wave,flux
3700.85,0.35681
3701.75,0.35267
3702.65,0.34274
3703.55,0.33178
3704.45,0.3187
3705.35,0.30762
3706.25,0.30106
3707.15,0.30082
3708.05,0.30342
3708.96,0.30656
3709.86,0.31175
3710.76,0.31631
3711.66,0.32114
3712.56,0.3298
3713.46,0.34022
3714.36,0.35105
3715.26,0.36086
3716.16,0.36716
3717.06,0.36971
3717.96,0.36243
3718.86,0.34853
3719.76,0.32977
3720.66,0.30977
3721.56,0.29423
3722.46,0.28862
3723.36,0.29253
3724.26,0.3067
3725.16,0.32384
3726.06,0.33899
3726.96,0.35003
3727.86,0.35737
3728.76,0.36034
3729.66,0.35838
3730.56,0.35252
3731.46,0.33982
3732.36,0.3223
3733.26,0.3012
3734.16,0.28095
3735.06,0.26753
3735.96,0.26327
3736.86,0.26981
3737.76,0.28539
3738.66,0.30776
3739.56,0.3307
3740.46,0.3514
3741.36,0.36444
3742.26,0.37052
3743.16,0.3669
3744.06,0.35804
3744.96,0.34808
3745.86,0.33328
3746.76,0.31632
3747.67,0.29779
3748.57,0.28262
3749.47,0.27122
3750.37,0.26857
3751.27,0.27687
3752.17,0.29327
3753.07,0.31772
3753.97,0.34458
3754.87,0.36238
3755.77,0.37696
3756.67,0.38357
3757.57,0.38062
3758.47,0.37663
3759.37,0.37016
3760.27,0.36766
3761.17,0.36931
3762.07,0.3746
3762.97,0.38097
3763.87,0.38294
3764.77,0.38415
3765.67,0.38032
3766.57,0.37431
3767.47,0.362
3768.37,0.34678
3769.27,0.33628
3770.17,0.32706
3771.07,0.32349
3771.97,0.32583
3772.87,0.33669
3773.77,0.35031
3774.67,0.36675
3775.57,0.38005
3776.47,0.39564
3777.37,0.40971
3778.27,0.42171
3779.17,0.43368
3780.07,0.44436
3780.97,0.45273
3781.87,0.45986
3782.77,0.46486
3783.67,0.46507
3784.57,0.46202
3785.47,0.45572
3786.38,0.44448
3787.28,0.43418
3788.18,0.42475
3789.08,0.41457
3789.98,0.40922
3790.88,0.40457
3791.78,0.39667
3792.68,0.38705
3793.58,0.37449
3794.48,0.36107
3795.38,0.34347
3796.28,0.32384
3797.18,0.30864
3798.08,0.2989
3798.98,0.29893
3799.88,0.3072
3800.78,0.32461
3801.68,0.34851
3802.58,0.37517
3803.48,0.39765
3804.38,0.41635
3805.28,0.43019
3806.18,0.43676
3807.08,0.44456
3807.98,0.44799
3808.88,0.45396
3809.78,0.46002
3810.68,0.46398
3811.58,0.4657
3812.48,0.46174
3813.38,0.45561
3814.28,0.44577
3815.18,0.43809
3816.08,0.4355
3816.98,0.4367
3817.88,0.43534
3818.78,0.43591
3819.68,0.43536
3820.58,0.43056
3821.48,0.42632
3822.38,0.42142
3823.28,0.41656
3824.18,0.40963
3825.09,0.39895
3825.99,0.39003
3826.89,0.38171
3827.79,0.37277
3828.69,0.36542
3829.59,0.3596
3830.49,0.34718
3831.39,0.3335
3832.29,0.31686
3833.19,0.29965
3834.09,0.28108
3834.99,0.26871
3835.89,0.2621
3836.79,0.26182
3837.69,0.26917
3838.59,0.28076
3839.49,0.29537
3840.39,0.31557
3841.29,0.33598
3842.19,0.35782
3843.09,0.38009
3843.99,0.39966
3844.89,0.41653
3845.79,0.42911
3846.69,0.43818
3847.59,0.44675
3848.49,0.45343
3849.39,0.45606
3850.29,0.46183
3851.19,0.46506
3852.09,0.46749
3852.99,0.47129
3853.89,0.47314
3854.79,0.47454
3855.69,0.47203
3856.59,0.46609
3857.49,0.4613
3858.39,0.45675
3859.29,0.45206
3860.19,0.45199
3861.09,0.45439
3861.99,0.46243
3862.9,0.47027
3863.8,0.4801
3864.7,0.48818
3865.6,0.48797
3866.5,0.49128
3867.4,0.48938
3868.3,0.48597
3869.2,0.48066
3870.1,0.47863
3871.0,0.47055
3871.9,0.46238
3872.8,0.45387
3873.7,0.44875
3874.6,0.44629
3875.5,0.44644
3876.4,0.44493
3877.3,0.44388
3878.2,0.43738
3879.1,0.43251
3880.0,0.42799
3880.9,0.42384
3881.8,0.42048
3882.7,0.41568
3883.6,0.406
3884.5,0.39228
3885.4,0.37757
3886.3,0.35741
3887.2,0.33809
3888.1,0.32085
3889.0,0.30955
3889.9,0.30753
3890.8,0.31558
3891.7,0.32881
3892.6,0.34652
3893.5,0.36321
3894.4,0.38144
3895.3,0.3945
3896.2,0.40589
3897.1,0.41614
3898.0,0.42462
3898.9,0.43368
3899.8,0.44058
3900.7,0.44656
3901.6,0.45076
3902.51,0.45255
3903.41,0.45266
3904.31,0.45479
3905.21,0.45412
3906.11,0.4558
3907.01,0.46044
3907.91,0.46751
3908.81,0.47613
3909.71,0.4859
3910.61,0.49346
3911.51,0.50236
3912.41,0.50387
3913.31,0.50371
3914.21,0.50406
3915.11,0.49934
3916.01,0.49362
3916.91,0.48982
3917.81,0.48681
3918.71,0.48052
3919.61,0.47523
3920.51,0.47115
3921.41,0.46696
3922.31,0.46538
3923.21,0.46186
3924.11,0.45902
3925.01,0.45345
3925.91,0.44621
3926.81,0.4302
3927.71,0.40837
3928.61,0.3821
3929.51,0.35038
3930.41,0.31645
3931.31,0.28119
3932.21,0.2494
3933.11,0.21921
3934.01,0.20334
3934.91,0.2001
3935.81,0.21154
3936.71,0.23508
3937.61,0.26763
3938.51,0.30429
3939.42,0.34127
3940.32,0.37378
3941.22,0.39708
3942.12,0.41537
3943.02,0.42885
3943.92,0.4377
3944.82,0.44626
3945.72,0.4528
3946.62,0.46091
3947.52,0.46789
3948.42,0.47263
3949.32,0.47655
3950.22,0.47888
3951.12,0.48278
3952.02,0.48463
3952.92,0.48458
3953.82,0.48474
3954.72,0.48354
3955.62,0.48216
3956.52,0.47871
3957.42,0.47269
3958.32,0.46731
3959.22,0.45907
3960.12,0.44898
3961.02,0.4348
3961.92,0.41812
3962.82,0.39398
3963.72,0.36981
3964.62,0.34049
3965.52,0.30906
3966.42,0.27431
3967.32,0.24069
3968.22,0.21365
3969.12,0.19476
3970.02,0.18638
3970.92,0.19376
3971.82,0.21177
3972.72,0.24059
3973.62,0.27228
3974.52,0.30652
3975.42,0.34083
3976.32,0.36887
3977.22,0.39499
3978.13,0.41891
3979.03,0.4399
3979.93,0.45645
3980.83,0.46835
3981.73,0.47565
3982.63,0.48452
3983.53,0.48892
3984.43,0.49471
3985.33,0.49945
3986.23,0.50385
3987.13,0.50986
3988.03,0.51652
3988.93,0.52079
3989.83,0.52603
3990.73,0.53092
3991.63,0.53495
3992.53,0.53918
3993.43,0.54099
3994.33,0.54194
3995.23,0.53986
3996.13,0.53627
3997.03,0.53379
3997.93,0.52979
3998.83,0.5325
3999.73,0.5351
4000.63,0.54128
4001.53,0.54818
4002.43,0.55213
4003.33,0.55119
4004.23,0.54938
4005.13,0.54366
4006.03,0.54075
4006.93,0.54025
4007.83,0.54115
4008.73,0.54518
4009.63,0.54932
4010.53,0.55735
4011.43,0.56133
4012.33,0.5649
4013.23,0.56682
4014.13,0.56696
4015.03,0.56652
4015.93,0.5653
4016.84,0.56757
4017.74,0.56709
4018.64,0.57247
4019.54,0.57337
4020.44,0.57474
4021.34,0.57576
4022.24,0.57409
4023.14,0.57607
4024.04,0.574
4024.94,0.57658
4025.84,0.57416
4026.74,0.57717
4027.64,0.58041
4028.54,0.57813
4029.44,0.57641
4030.34,0.56653
4031.24,0.55664
4032.14,0.54801
4033.04,0.54484
4033.94,0.54296
4034.84,0.55065
4035.74,0.56009
4036.64,0.56758
4037.54,0.5773
4038.44,0.58719
4039.34,0.5905
4040.24,0.58973
4041.14,0.58718
4042.04,0.58283
4042.94,0.57407
4043.84,0.56384
4044.74,0.55592
4045.64,0.54816
4046.54,0.54472
4047.44,0.54443
4048.34,0.5551
4049.24,0.56146
4050.14,0.569
4051.04,0.5785
4051.94,0.57872
4052.84,0.5775
4053.74,0.57277
4054.65,0.5686
4055.55,0.5675
4056.45,0.56256
4057.35,0.5607
4058.25,0.56248
4059.15,0.56029
4060.05,0.56319
4060.95,0.56174
4061.85,0.56177
4062.75,0.55601
4063.65,0.55053
4064.55,0.54635
4065.45,0.54254
4066.35,0.54457
4067.25,0.54834
4068.15,0.55446
4069.05,0.55962
4069.95,0.56021
4070.85,0.55992
4071.75,0.55851
4072.65,0.55656
4073.55,0.55167
4074.45,0.54794
4075.35,0.54273
4076.25,0.53716
4077.15,0.53024
4078.05,0.52468
4078.95,0.52288
4079.85,0.52723
4080.75,0.53339
4081.65,0.53967
4082.55,0.54546
4083.45,0.54923
4084.35,0.55114
4085.25,0.55161
4086.15,0.55205
4087.05,0.555
4087.95,0.55902
4088.85,0.56198
4089.75,0.5633
4090.65,0.56562
4091.55,0.56214
4092.45,0.55506
4093.36,0.54524
4094.26,0.53584
4095.16,0.52657
4096.06,0.51437
4096.96,0.49978
4097.86,0.48095
4098.76,0.4584
4099.66,0.43741
4100.56,0.41622
4101.46,0.39824
4102.36,0.38922
4103.26,0.38735
4104.16,0.39714
4105.06,0.41514
4105.96,0.43524
4106.86,0.45686
4107.76,0.47587
4108.66,0.49114
4109.56,0.50218
4110.46,0.50981
4111.36,0.51738
4112.26,0.52588
4113.16,0.53224
4114.06,0.53952
4114.96,0.54752
4115.86,0.55305
4116.76,0.5568
4117.66,0.55721
4118.56,0.55555
4119.46,0.55425
4120.36,0.55214
4121.26,0.55052
4122.16,0.55403
4123.06,0.55524
4123.96,0.55721
4124.86,0.56085
4125.76,0.56297
4126.66,0.56136
4127.56,0.56295
4128.46,0.56206
4129.36,0.56024
4130.26,0.55784
4131.17,0.55385
4132.06,0.55089
4132.97,0.54811
4133.87,0.54791
4134.77,0.54953
4135.67,0.55682
4136.57,0.5626
4137.47,0.57111
4138.37,0.57785
4139.27,0.58323
4140.17,0.58404
4141.07,0.58065
4141.97,0.57387
4142.87,0.56582
4143.77,0.56165
4144.67,0.55776
4145.57,0.55849
4146.47,0.56159
4147.37,0.56709
4148.27,0.57089
4149.17,0.57217
4150.07,0.57255
4150.97,0.5757
4151.87,0.57125
4152.77,0.56924
4153.67,0.56833
4154.57,0.56652
4155.47,0.56369
4156.37,0.56535
4157.27,0.56678
4158.17,0.56909
4159.07,0.57511
4159.97,0.5777
4160.87,0.58391
4161.77,0.58572
4162.67,0.58769
4163.57,0.58928
4164.47,0.59103
4165.37,0.5888
4166.27,0.58834
4167.17,0.58523
4168.07,0.58327
4168.98,0.57861
4169.88,0.5766
4170.78,0.56691
4171.68,0.56301
4172.58,0.55188
4173.48,0.54648
4174.38,0.54317
4175.28,0.54248
4176.18,0.54251
4177.08,0.54662
4177.98,0.5524
4178.88,0.55599
4179.78,0.56097
4180.68,0.56128
4181.58,0.56307
4182.48,0.56812
4183.38,0.56712
4184.28,0.56774
4185.18,0.56917
4186.08,0.56974
4186.98,0.56667
4187.88,0.56604
4188.78,0.56356
4189.68,0.56762
4190.58,0.57096
4191.48,0.57507
4192.38,0.57638
4193.28,0.57897
4194.18,0.58312
4195.08,0.5787
4195.98,0.57432
4196.88,0.56532
4197.78,0.56176
4198.68,0.55394
4199.58,0.55135
4200.48,0.54905
4201.38,0.54508
4202.28,0.54794
4203.18,0.55071
4204.08,0.5529
4204.98,0.55869
4205.88,0.56154
4206.79,0.56635
4207.69,0.57147
4208.59,0.5771
4209.49,0.57832
4210.39,0.58098
4211.29,0.58066
4212.19,0.58318
4213.09,0.57886
4213.99,0.5773
4214.89,0.57038
4215.79,0.56609
4216.69,0.56438
4217.59,0.5673
4218.49,0.56777
4219.39,0.57152
4220.29,0.57503
4221.19,0.57896
4222.09,0.57488
4222.99,0.56922
4223.89,0.55783
4224.79,0.54356
4225.69,0.52909
4226.59,0.51802
4227.49,0.51484
4228.39,0.51944
4229.29,0.52773
4230.19,0.54083
4231.09,0.55101
4231.99,0.56147
4232.89,0.56429
4233.79,0.56496
4234.69,0.56094
4235.59,0.56079
4236.49,0.55673
4237.39,0.55618
4238.29,0.55351
4239.19,0.55615
4240.09,0.55939
4240.99,0.56427
4241.89,0.56866
4242.79,0.57006
4243.69,0.57464
4244.59,0.57541
4245.5,0.57377
4246.4,0.56998
4247.3,0.56471
4248.2,0.55962
4249.1,0.55578
4250.0,0.55498
4250.9,0.55406
4251.8,0.55495
4252.7,0.55821
4253.6,0.56255
4254.5,0.56393
4255.4,0.56738
4256.3,0.56866
4257.2,0.56655
4258.1,0.56604
4259.0,0.56331
4259.9,0.56187
4260.8,0.55784
4261.7,0.55904
4262.6,0.56368
4263.5,0.56914
4264.4,0.57667
4265.3,0.58221
4266.2,0.58559
4267.1,0.58392
4268.0,0.57867
4268.9,0.5724
4269.8,0.56282
4270.7,0.55243
4271.6,0.5422
4272.5,0.53565
4273.4,0.53307
4274.3,0.53124
4275.2,0.53639
4276.1,0.54175
4277.0,0.55116
4277.9,0.55763
4278.8,0.56274
4279.7,0.56482
4280.6,0.56459
4281.5,0.5627
4282.4,0.56017
4283.31,0.55704
4284.21,0.55196
4285.11,0.5481
4286.01,0.54542
4286.91,0.5393
4287.81,0.53101
4288.71,0.52476
4289.61,0.51754
4290.51,0.51721
4291.41,0.51496
4292.31,0.5197
4293.21,0.52261
4294.11,0.52672
4295.01,0.52777
4295.91,0.52551
4296.81,0.51948
4297.71,0.5098
4298.61,0.49939
4299.51,0.48908
4300.41,0.47697
4301.31,0.46846
4302.21,0.46555
4303.11,0.46457
4304.01,0.46379
4304.91,0.46395
4305.81,0.46668
4306.71,0.46617
4307.61,0.46486
4308.51,0.46124
4309.41,0.46154
4310.31,0.46463
4311.21,0.471
4312.11,0.4791
4313.01,0.49005
4313.91,0.50244
4314.81,0.51525
4315.71,0.53205
4316.61,0.54623
4317.51,0.55905
4318.41,0.57054
4319.31,0.57631
4320.21,0.57657
4321.12,0.57252
4322.02,0.56335
4322.92,0.55096
4323.82,0.5368
4324.72,0.52933
4325.62,0.51866
4326.52,0.51395
4327.42,0.51761
4328.32,0.52233
4329.22,0.5308
4330.12,0.5367
4331.02,0.54238
4331.92,0.54536
4332.82,0.54321
4333.72,0.54079
4334.62,0.5309
4335.52,0.51919
4336.42,0.50142
4337.32,0.48065
4338.22,0.45403
4339.12,0.43232
4340.02,0.41329
4340.92,0.4028
4341.82,0.39965
4342.72,0.40718
4343.62,0.42293
4344.52,0.44431
4345.42,0.46531
4346.32,0.48572
4347.22,0.50134
4348.12,0.51521
4349.02,0.52392
4349.92,0.52532
4350.82,0.52626
4351.72,0.52687
4352.62,0.52613
4353.52,0.52543
4354.42,0.52876
4355.32,0.53711
4356.22,0.54402
4357.12,0.55192
4358.02,0.55689
4358.92,0.56207
4359.83,0.56592
4360.73,0.57121
4361.63,0.57504
4362.53,0.58009
4363.43,0.58435
4364.33,0.58513
4365.23,0.58827
4366.13,0.59015
4367.03,0.58737
4367.93,0.58353
4368.83,0.58046
4369.73,0.57769
4370.63,0.57416
4371.53,0.57159
4372.43,0.56984
4373.33,0.5664
4374.23,0.56446
4375.13,0.55908
4376.03,0.56104
4376.93,0.56432
4377.83,0.56827
4378.73,0.57238
4379.63,0.57669
4380.53,0.57681
4381.43,0.56859
4382.33,0.56084
4383.23,0.55101
4384.13,0.54147
4385.03,0.53582
4385.93,0.53333
4386.83,0.53727
4387.73,0.54467
4388.63,0.55132
4389.53,0.56163
4390.43,0.56306
4391.33,0.56901
4392.23,0.57122
4393.13,0.5732
4394.03,0.5728
4394.93,0.57379
4395.83,0.57566
4396.73,0.57691
4397.64,0.57778
4398.54,0.57802
4399.44,0.57788
4400.34,0.57853
4401.24,0.57714
4402.14,0.57188
4403.04,0.57112
4403.94,0.57214
4404.84,0.57088
4405.74,0.56808
4406.64,0.56898
4407.54,0.56768
4408.44,0.57209
4409.34,0.57678
4410.24,0.58174
4411.14,0.58706
4412.04,0.59028
4412.94,0.59134
4413.84,0.59476
4414.74,0.5931
4415.64,0.58853
4416.54,0.58356
4417.44,0.5845
4418.34,0.58265
4419.24,0.58578
4420.14,0.59369
4421.04,0.59606
4421.94,0.59771
4422.84,0.60021
4423.74,0.59817
4424.64,0.5963
4425.54,0.59734
4426.44,0.59526
4427.34,0.59668
4428.24,0.59341
4429.14,0.59468
4430.04,0.59497
4430.94,0.59439
4431.84,0.59081
4432.74,0.5889
4433.64,0.58644
4434.54,0.58444
4435.45,0.58331
4436.35,0.5838
4437.25,0.58706
4438.15,0.59033
4439.05,0.59641
4439.95,0.60008
4440.85,0.59887
4441.75,0.59536
4442.65,0.59016
4443.55,0.58734
4444.45,0.58614
4445.35,0.58641
4446.25,0.59018
4447.15,0.59398
4448.05,0.60018
4448.95,0.60065
4449.85,0.599
4450.75,0.59762
4451.65,0.59755
4452.55,0.59403
4453.45,0.59034
4454.35,0.58027
4455.25,0.57926
4456.15,0.57313
4457.05,0.57164
4457.95,0.5708
4458.85,0.56946
4459.75,0.56915
4460.65,0.57153
4461.55,0.57358
4462.45,0.57732
4463.35,0.57556
4464.25,0.5813
4465.15,0.58471
4466.05,0.5852
4466.95,0.58944
4467.85,0.58775
4468.75,0.58637
4469.65,0.58663
4470.55,0.59079
4471.45,0.5934
4472.35,0.60083
4473.25,0.60383
4474.16,0.60916
4475.06,0.61386
4475.96,0.6203
4476.86,0.62231
4477.76,0.62356
4478.66,0.61604
4479.56,0.61447
4480.46,0.60653
4481.36,0.60267
4482.26,0.60025
4483.16,0.59964
4484.06,0.5997
4484.96,0.60598
4485.86,0.60887
4486.76,0.61298
4487.66,0.61351
4488.56,0.61312
4489.46,0.61089
4490.36,0.60781
4491.26,0.6057
4492.16,0.60362
4493.06,0.60549
4493.96,0.60501
4494.86,0.60543
4495.76,0.60713
4496.66,0.60661
4497.56,0.60763
4498.46,0.61022
4499.36,0.61424
4500.26,0.61525
4501.16,0.62074
4502.06,0.62501
4502.96,0.62707
4503.86,0.63157
4504.76,0.63351
4505.66,0.63573
4506.56,0.63888
4507.46,0.63917
4508.36,0.64051
4509.26,0.6384
4510.17,0.63613
4511.06,0.63658
4511.97,0.63403
4512.87,0.63345
4513.77,0.62804
4514.67,0.62562
4515.57,0.62233
4516.47,0.61898
4517.37,0.61955
4518.27,0.61794
4519.17,0.61693
4520.07,0.61456
4520.97,0.61275
4521.87,0.61316
4522.77,0.60984
4523.67,0.60693
4524.57,0.60405
4525.47,0.5963
4526.37,0.59298
4527.27,0.58821
4528.17,0.58442
4529.07,0.58021
4529.97,0.5799
4530.87,0.57798
4531.77,0.57659
4532.67,0.57683
4533.57,0.57733
4534.47,0.57611
4535.37,0.58073
4536.27,0.58487
4537.17,0.5895
4538.07,0.59449
4538.97,0.60467
4539.87,0.61001
4540.77,0.61476
4541.67,0.61523
4542.57,0.61489
4543.47,0.61374
4544.37,0.61179
4545.27,0.60693
4546.17,0.60576
4547.07,0.60267
4547.97,0.59596
4548.88,0.59763
4549.77,0.59266
4550.68,0.59115
4551.58,0.5883
4552.48,0.58771
4553.38,0.58706
4554.28,0.58753
4555.18,0.5892
4556.08,0.59234
4556.98,0.59535
4557.88,0.6015
4558.78,0.60726
4559.68,0.61231
4560.58,0.61698
4561.48,0.6192
4562.38,0.61826
4563.28,0.61868
4564.18,0.61623
4565.08,0.61379
4565.98,0.6155
4566.88,0.61643
4567.78,0.61767
4568.68,0.61716
4569.58,0.61824
4570.48,0.6205
4571.38,0.61716
4572.28,0.6171
4573.18,0.61671
4574.08,0.6158
4574.98,0.6188
4575.88,0.61824
4576.78,0.61846
4577.68,0.6213
4578.58,0.61485
4579.48,0.61202
4580.38,0.60935
4581.28,0.60668
4582.18,0.60392
4583.08,0.60278
4583.98,0.60089
4584.88,0.60159
4585.78,0.60432
4586.69,0.60618
4587.58,0.61036
4588.49,0.61024
4589.39,0.61543
4590.29,0.61532
4591.19,0.61517
4592.09,0.61559
4592.99,0.61381
4593.89,0.60996
4594.79,0.61181
4595.69,0.61325
4596.59,0.61643
4597.49,0.61532
4598.39,0.61666
4599.29,0.61339
4600.19,0.61381
4601.09,0.61212
4601.99,0.61152
4602.89,0.61383
4603.79,0.61351
4604.69,0.61567
4605.59,0.61377
4606.49,0.61994
4607.39,0.62315
4608.29,0.62623
4609.19,0.63052
4610.09,0.63198
4610.99,0.63194
4611.89,0.63121
4612.79,0.62902
4613.69,0.6283
4614.59,0.62639
4615.49,0.62779
4616.39,0.62691
4617.29,0.625
4618.19,0.62359
4619.09,0.62278
4619.99,0.62564
4620.89,0.62703
4621.79,0.62973
4622.69,0.62891
4623.59,0.63028
4624.5,0.63075
4625.4,0.62982
4626.3,0.63216
4627.2,0.63167
4628.1,0.63009
4629.0,0.62991
4629.9,0.62661
4630.8,0.62964
4631.7,0.62751
4632.6,0.62634
4633.5,0.62682
4634.4,0.62234
4635.3,0.6238
4636.2,0.62149
4637.1,0.62145
4638.0,0.62147
4638.9,0.61847
4639.8,0.62141
4640.7,0.62198
4641.6,0.62272
4642.5,0.6257
4643.4,0.62562
4644.3,0.62478
4645.2,0.62219
4646.1,0.62137
4647.0,0.61708
4647.9,0.61684
4648.8,0.61663
4649.7,0.61319
4650.6,0.61287
4651.5,0.61444
4652.4,0.61365
4653.3,0.61611
4654.2,0.61548
4655.1,0.61284
4656.0,0.61837
4656.9,0.61813
4657.8,0.619
4658.7,0.62105
4659.6,0.63047
4660.5,0.63332
4661.4,0.63139
4662.3,0.63048
4663.21,0.63019
4664.11,0.62557
4665.01,0.62033
4665.91,0.6134
4666.81,0.60912
4667.71,0.60361
4668.61,0.60167
4669.51,0.59859
4670.41,0.60264
4671.31,0.60565
4672.21,0.60744
4673.11,0.6136
4674.01,0.61674
4674.91,0.6213
4675.81,0.62537
4676.71,0.62586
4677.61,0.62439
4678.51,0.62258
4679.41,0.62103
4680.31,0.61882
4681.21,0.61736
4682.11,0.61538
4683.01,0.6149
4683.91,0.61676
4684.81,0.61779
4685.71,0.61976
4686.61,0.62148
4687.51,0.62476
4688.41,0.62409
4689.31,0.62693
4690.21,0.62174
4691.11,0.62348
4692.01,0.62586
4692.91,0.62599
4693.81,0.6291
4694.71,0.63041
4695.61,0.63288
4696.51,0.63139
4697.41,0.63179
4698.31,0.62788
4699.21,0.62512
4700.12,0.62021
4701.02,0.61711
4701.92,0.61476
4702.82,0.61199
4703.72,0.60988
4704.62,0.60835
4705.52,0.60752
4706.42,0.60651
4707.32,0.60663
4708.22,0.60574
4709.12,0.60917
4710.02,0.61345
4710.92,0.61026
4711.82,0.61119
4712.72,0.61597
4713.62,0.61898
4714.52,0.62093
4715.42,0.62208
4716.32,0.62232
4717.22,0.62576
4718.12,0.62671
4719.02,0.62919
4719.92,0.63297
4720.82,0.63287
4721.72,0.63375
4722.62,0.63294
4723.52,0.63429
4724.42,0.63517
4725.32,0.63181
4726.22,0.63078
4727.12,0.62812
4728.02,0.62352
4728.92,0.62062
4729.82,0.61713
4730.72,0.61514
4731.62,0.61489
4732.52,0.61533
4733.42,0.61465
4734.32,0.61734
4735.22,0.6194
4736.12,0.62032
4737.02,0.62172
4737.92,0.62178
4738.83,0.62067
4739.73,0.62171
4740.63,0.62132
4741.53,0.62218
4742.43,0.62476
4743.33,0.62412
4744.23,0.62743
4745.13,0.62753
4746.03,0.62745
4746.93,0.63068
4747.83,0.63252
4748.73,0.6324
4749.63,0.63475
4750.53,0.63229
4751.43,0.63103
4752.33,0.62849
4753.23,0.62983
4754.13,0.62408
4755.03,0.62254
4755.93,0.6228
4756.83,0.61876
4757.73,0.61866
4758.63,0.61955
4759.53,0.62068
4760.43,0.61549
4761.33,0.61614
4762.23,0.6104
4763.13,0.60919
4764.03,0.60687
4764.93,0.60725
4765.83,0.60512
4766.73,0.60555
4767.63,0.60684
4768.53,0.61101
4769.43,0.61394
4770.33,0.61373
4771.23,0.61647
4772.13,0.61961
4773.03,0.62192
4773.93,0.62129
4774.83,0.6222
4775.73,0.62432
4776.64,0.62618
4777.54,0.6291
4778.44,0.62823
4779.34,0.62643
4780.24,0.62499
4781.14,0.62293
4782.04,0.62436
4782.94,0.62085
4783.84,0.61811
4784.74,0.61705
4785.64,0.61456
4786.54,0.61294
4787.44,0.60721
4788.34,0.60874
4789.24,0.60813
4790.14,0.60968
4791.04,0.61396
4791.94,0.61687
4792.84,0.61768
4793.74,0.62368
4794.64,0.62457
4795.54,0.62719
4796.44,0.63044
4797.34,0.62905
4798.24,0.62443
4799.14,0.62478
4800.04,0.62401
4800.94,0.62011
4801.84,0.62116
4802.74,0.62164
4803.64,0.62166
4804.54,0.62113
4805.44,0.6206
4806.34,0.62166
4807.24,0.62043
4808.14,0.61745
4809.04,0.62066
4809.94,0.61939
4810.84,0.6209
4811.74,0.62282
4812.64,0.62268
4813.54,0.62202
4814.45,0.62737
4815.35,0.6288
4816.25,0.62697
4817.15,0.62608
4818.05,0.63114
4818.95,0.63198
4819.85,0.62772
4820.75,0.62642
4821.65,0.62662
4822.55,0.6219
4823.45,0.6188
4824.35,0.61774
4825.25,0.61452
4826.15,0.61326
4827.05,0.61353
4827.95,0.61433
4828.85,0.61263
4829.75,0.61407
4830.65,0.6121
4831.55,0.6111
4832.45,0.60977
4833.35,0.61049
4834.25,0.61075
4835.15,0.60932
4836.05,0.61035
4836.95,0.60693
4837.85,0.61084
4838.75,0.60551
4839.65,0.60376
