wave,flux
3700.85,0.14398
3701.75,0.14118
3702.65,0.13569
3703.55,0.12847
3704.45,0.11957
3705.35,0.11198
3706.25,0.10507
3707.15,0.1017
3708.05,0.102
3708.96,0.10357
3709.86,0.10865
3710.76,0.11491
3711.66,0.12332
3712.56,0.13139
3713.46,0.13882
3714.36,0.14382
3715.26,0.14532
3716.16,0.14317
3717.06,0.13855
3717.96,0.12937
3718.86,0.119
3719.76,0.10789
3720.66,0.098577
3721.56,0.092782
3722.46,0.092577
3723.36,0.096944
3724.26,0.10367
3725.16,0.11158
3726.06,0.1171
3726.96,0.12033
3727.86,0.12151
3728.76,0.12066
3729.66,0.11913
3730.56,0.11609
3731.46,0.11116
3732.36,0.10406
3733.26,0.095653
3734.16,0.087278
3735.06,0.080905
3735.96,0.077788
3736.86,0.078689
3737.76,0.083828
3738.66,0.091621
3739.56,0.10102
3740.46,0.10901
3741.36,0.11392
3742.26,0.11506
3743.16,0.11191
3744.06,0.10688
3744.96,0.10035
3745.86,0.093483
3746.76,0.08787
3747.67,0.083159
3748.57,0.079978
3749.47,0.079729
3750.37,0.083741
3751.27,0.090557
3752.17,0.10008
3753.07,0.11086
3753.97,0.12092
3754.87,0.12761
3755.77,0.13023
3756.67,0.128
3757.57,0.12295
3758.47,0.11638
3759.37,0.11141
3760.27,0.10973
3761.17,0.10915
3762.07,0.11114
3762.97,0.11229
3763.87,0.11395
3764.77,0.1145
3765.67,0.11445
3766.57,0.1144
3767.47,0.11439
3768.37,0.11504
3769.27,0.1165
3770.17,0.11914
3771.07,0.1223
3771.97,0.12658
3772.87,0.13077
3773.77,0.13509
3774.67,0.13827
3775.57,0.13993
3776.47,0.14195
3777.37,0.14295
3778.27,0.14524
3779.17,0.14748
3780.07,0.14962
3780.97,0.15359
3781.87,0.15601
3782.77,0.15645
3783.67,0.15638
3784.57,0.15324
3785.47,0.14852
3786.38,0.1416
3787.28,0.1347
3788.18,0.12742
3789.08,0.12293
3789.98,0.1204
3790.88,0.11917
3791.78,0.11907
3792.68,0.11812
3793.58,0.11746
3794.48,0.1142
3795.38,0.11074
3796.28,0.1066
3797.18,0.1039
3798.08,0.10172
3798.98,0.10224
3799.88,0.10523
3800.78,0.11097
3801.68,0.11882
3802.58,0.12711
3803.48,0.13365
3804.38,0.13863
3805.28,0.14127
3806.18,0.14076
3807.08,0.14012
3807.98,0.13969
3808.88,0.14
3809.78,0.1413
3810.68,0.14244
3811.58,0.14117
3812.48,0.13786
3813.38,0.13221
3814.28,0.12461
3815.18,0.11885
3816.08,0.11375
3816.98,0.11077
3817.88,0.10925
3818.78,0.10781
3819.68,0.10598
3820.58,0.10406
3821.48,0.10216
3822.38,0.10054
3823.28,0.099355
3824.18,0.097097
3825.09,0.09385
3825.99,0.090117
3826.89,0.087333
3827.79,0.08519
3828.69,0.084881
3829.59,0.085056
3830.49,0.08493
3831.39,0.083785
3832.29,0.082195
3833.19,0.079875
3834.09,0.078187
3834.99,0.077726
3835.89,0.077133
3836.79,0.077925
3837.69,0.07844
3838.59,0.079515
3839.49,0.08156
3840.39,0.084336
3841.29,0.089176
3842.19,0.095633
3843.09,0.10327
3843.99,0.11091
3844.89,0.11653
3845.79,0.12092
3846.69,0.12399
3847.59,0.12506
3848.49,0.12539
3849.39,0.12491
3850.29,0.12401
3851.19,0.12378
3852.09,0.12358
3852.99,0.12319
3853.89,0.12231
3854.79,0.12053
3855.69,0.11762
3856.59,0.114
3857.49,0.10996
3858.39,0.10628
3859.29,0.10385
3860.19,0.10278
3861.09,0.10542
3861.99,0.10941
3862.9,0.11544
3863.8,0.12109
3864.7,0.12457
3865.6,0.1267
3866.5,0.12608
3867.4,0.12492
3868.3,0.12269
3869.2,0.11943
3870.1,0.11602
3871.0,0.11267
3871.9,0.11097
3872.8,0.10995
3873.7,0.1113
3874.6,0.11481
3875.5,0.11789
3876.4,0.11985
3877.3,0.1197
3878.2,0.11864
3879.1,0.11671
3880.0,0.11474
3880.9,0.11375
3881.8,0.11362
3882.7,0.11344
3883.6,0.11308
3884.5,0.11213
3885.4,0.11114
3886.3,0.10825
3887.2,0.10576
3888.1,0.10409
3889.0,0.10484
3889.9,0.10838
3890.8,0.11401
3891.7,0.12053
3892.6,0.12699
3893.5,0.13229
3894.4,0.13508
3895.3,0.13761
3896.2,0.13864
3897.1,0.13938
3898.0,0.13978
3898.9,0.1412
3899.8,0.1413
3900.7,0.14126
3901.6,0.14099
3902.51,0.14018
3903.41,0.13865
3904.31,0.13641
3905.21,0.13547
3906.11,0.13434
3907.01,0.13618
3907.91,0.14056
3908.81,0.14518
3909.71,0.15163
3910.61,0.15599
3911.51,0.15963
3912.41,0.1625
3913.31,0.16326
3914.21,0.16255
3915.11,0.16101
3916.01,0.15913
3916.91,0.15568
3917.81,0.15128
3918.71,0.14653
3919.61,0.14176
3920.51,0.13764
3921.41,0.13314
3922.31,0.12988
3923.21,0.12803
3924.11,0.12588
3925.01,0.12374
3925.91,0.11937
3926.81,0.11265
3927.71,0.10445
3928.61,0.09438
3929.51,0.083518
3930.41,0.072823
3931.31,0.063061
3932.21,0.054523
3933.11,0.048456
3934.01,0.045061
3934.91,0.04492
3935.81,0.047488
3936.71,0.053944
3937.61,0.062422
3938.51,0.072401
3939.42,0.082841
3940.32,0.091999
3941.22,0.10011
3942.12,0.10606
3943.02,0.11063
3943.92,0.11422
3944.82,0.11884
3945.72,0.12411
3946.62,0.13014
3947.52,0.13594
3948.42,0.14172
3949.32,0.14648
3950.22,0.15066
3951.12,0.15377
3952.02,0.15648
3952.92,0.15744
3953.82,0.15857
3954.72,0.15776
3955.62,0.15793
3956.52,0.15624
3957.42,0.15411
3958.32,0.15211
3959.22,0.14856
3960.12,0.14245
3961.02,0.13506
3961.92,0.12551
3962.82,0.11525
3963.72,0.10506
3964.62,0.095396
3965.52,0.08534
3966.42,0.075693
3967.32,0.066456
3968.22,0.05916
3969.12,0.054996
3970.02,0.054979
3970.92,0.058402
3971.82,0.065781
3972.72,0.075756
3973.62,0.086817
3974.52,0.098592
3975.42,0.11027
3976.32,0.12174
3977.22,0.13255
3978.13,0.14269
3979.03,0.15174
3979.93,0.15968
3980.83,0.16558
3981.73,0.16876
3982.63,0.17091
3983.53,0.17233
3984.43,0.17266
3985.33,0.17531
3986.23,0.17652
3987.13,0.17916
3988.03,0.18187
3988.93,0.18401
3989.83,0.18622
3990.73,0.1882
3991.63,0.1893
3992.53,0.1911
3993.43,0.19213
3994.33,0.19144
3995.23,0.19018
3996.13,0.18889
3997.03,0.1873
3997.93,0.18729
3998.83,0.18922
3999.73,0.19089
4000.63,0.1949
4001.53,0.19827
4002.43,0.20096
4003.33,0.19927
4004.23,0.19735
4005.13,0.19291
4006.03,0.18977
4006.93,0.18825
4007.83,0.18859
4008.73,0.19119
4009.63,0.19548
4010.53,0.19843
4011.43,0.20175
4012.33,0.20422
4013.23,0.20662
4014.13,0.20788
4015.03,0.20776
4015.93,0.20887
4016.84,0.20964
4017.74,0.21011
4018.64,0.21035
4019.54,0.21088
4020.44,0.21123
4021.34,0.2124
4022.24,0.21122
4023.14,0.21079
4024.04,0.20998
4024.94,0.2109
4025.84,0.21067
4026.74,0.21178
4027.64,0.21222
4028.54,0.2113
4029.44,0.2081
4030.34,0.20151
4031.24,0.19443
4032.14,0.18731
4033.04,0.18291
4033.94,0.18184
4034.84,0.18355
4035.74,0.1896
4036.64,0.19701
4037.54,0.20499
4038.44,0.21105
4039.34,0.21571
4040.24,0.2164
4041.14,0.21554
4042.04,0.21165
4042.94,0.20511
4043.84,0.19748
4044.74,0.18884
4045.64,0.18199
4046.54,0.17946
4047.44,0.18041
4048.34,0.18568
4049.24,0.19353
4050.14,0.20199
4051.04,0.20709
4051.94,0.21016
4052.84,0.20955
4053.74,0.20741
4054.65,0.2036
4055.55,0.20027
4056.45,0.19702
4057.35,0.19298
4058.25,0.19211
4059.15,0.19173
4060.05,0.19239
4060.95,0.19153
4061.85,0.18977
4062.75,0.18663
4063.65,0.18285
4064.55,0.18123
4065.45,0.18046
4066.35,0.18247
4067.25,0.18553
4068.15,0.19154
4069.05,0.19606
4069.95,0.19701
4070.85,0.1972
4071.75,0.1962
4072.65,0.19488
4073.55,0.19413
4074.45,0.19296
4075.35,0.19248
4076.25,0.18882
4077.15,0.18678
4078.05,0.18606
4078.95,0.18764
4079.85,0.19105
4080.75,0.19711
4081.65,0.20263
4082.55,0.20659
4083.45,0.2105
4084.35,0.21151
4085.25,0.21301
4086.15,0.21408
4087.05,0.21713
4087.95,0.22109
4088.85,0.22404
4089.75,0.22681
4090.65,0.22817
4091.55,0.22731
4092.45,0.22446
4093.36,0.2214
4094.26,0.21648
4095.16,0.21228
4096.06,0.20689
4096.96,0.20114
4097.86,0.19516
4098.76,0.18892
4099.66,0.18249
4100.56,0.17594
4101.46,0.17179
4102.36,0.16902
4103.26,0.17001
4104.16,0.17393
4105.06,0.18068
4105.96,0.1882
4106.86,0.19507
4107.76,0.20115
4108.66,0.20434
4109.56,0.20589
4110.46,0.20643
4111.36,0.20703
4112.26,0.20801
4113.16,0.2106
4114.06,0.21261
4114.96,0.21525
4115.86,0.21738
4116.76,0.21791
4117.66,0.21738
4118.56,0.21573
4119.46,0.2128
4120.36,0.21094
4121.26,0.21024
4122.16,0.2111
4123.06,0.21079
4123.96,0.21219
4124.86,0.21239
4125.76,0.21341
4126.66,0.21247
4127.56,0.21099
4128.46,0.20811
4129.36,0.20549
4130.26,0.20219
4131.17,0.19857
4132.06,0.19633
4132.97,0.19383
4133.87,0.19339
4134.77,0.19643
4135.67,0.19985
4136.57,0.20494
4137.47,0.2095
4138.37,0.21426
4139.27,0.21664
4140.17,0.21592
4141.07,0.21379
4141.97,0.2084
4142.87,0.20286
4143.77,0.19725
4144.67,0.19515
4145.57,0.19432
4146.47,0.19673
4147.37,0.19905
4148.27,0.20211
4149.17,0.20385
4150.07,0.20455
4150.97,0.2027
4151.87,0.20167
4152.77,0.19987
4153.67,0.19802
4154.57,0.1979
4155.47,0.19696
4156.37,0.19756
4157.27,0.19818
4158.17,0.20138
4159.07,0.20386
4159.97,0.20867
4160.87,0.21239
4161.77,0.21581
4162.67,0.2181
4163.57,0.22013
4164.47,0.21953
4165.37,0.21782
4166.27,0.2159
4167.17,0.21369
4168.07,0.21172
4168.98,0.20832
4169.88,0.20602
4170.78,0.20267
4171.68,0.1997
4172.58,0.19571
4173.48,0.1915
4174.38,0.1898
4175.28,0.18884
4176.18,0.18953
4177.08,0.19163
4177.98,0.1931
4178.88,0.19509
4179.78,0.19712
4180.68,0.19856
4181.58,0.201
4182.48,0.20201
4183.38,0.20214
4184.28,0.20329
4185.18,0.20341
4186.08,0.2039
4186.98,0.20389
4187.88,0.20323
4188.78,0.20365
4189.68,0.20462
4190.58,0.20584
4191.48,0.20874
4192.38,0.21037
4193.28,0.21174
4194.18,0.21165
4195.08,0.20932
4195.98,0.2058
4196.88,0.20184
4197.78,0.19629
4198.68,0.19283
4199.58,0.18995
4200.48,0.18829
4201.38,0.18889
4202.28,0.19031
4203.18,0.19272
4204.08,0.19755
4204.98,0.201
4205.88,0.20527
4206.79,0.21166
4207.69,0.21468
4208.59,0.21832
4209.49,0.21999
4210.39,0.22006
4211.29,0.22043
4212.19,0.21844
4213.09,0.21696
4213.99,0.21462
4214.89,0.21208
4215.79,0.2104
4216.69,0.21064
4217.59,0.2117
4218.49,0.21602
4219.39,0.2201
4220.29,0.22409
4221.19,0.22397
4222.09,0.22159
4222.99,0.21571
4223.89,0.20591
4224.79,0.1936
4225.69,0.18228
4226.59,0.17385
4227.49,0.17068
4228.39,0.17311
4229.29,0.17949
4230.19,0.18885
4231.09,0.19827
4231.99,0.20623
4232.89,0.21061
4233.79,0.21362
4234.69,0.21076
4235.59,0.20887
4236.49,0.20713
4237.39,0.20505
4238.29,0.20655
4239.19,0.20752
4240.09,0.20993
4240.99,0.21502
4241.89,0.21766
4242.79,0.22298
4243.69,0.22595
4244.59,0.23002
4245.5,0.22906
4246.4,0.22876
4247.3,0.22479
4248.2,0.21929
4249.1,0.21462
4250.0,0.2095
4250.9,0.20587
4251.8,0.20478
4252.7,0.20458
4253.6,0.20534
4254.5,0.20643
4255.4,0.20853
4256.3,0.20867
4257.2,0.21007
4258.1,0.21043
4259.0,0.20989
4259.9,0.20717
4260.8,0.20534
4261.7,0.2074
4262.6,0.21116
4263.5,0.21722
4264.4,0.22385
4265.3,0.22867
4266.2,0.23086
4267.1,0.2315
4268.0,0.22695
4268.9,0.2199
4269.8,0.21165
4270.7,0.20165
4271.6,0.19329
4272.5,0.18686
4273.4,0.18353
4274.3,0.18414
4275.2,0.18812
4276.1,0.19426
4277.0,0.20167
4277.9,0.20915
4278.8,0.21504
4279.7,0.21838
4280.6,0.21963
4281.5,0.21873
4282.4,0.21783
4283.31,0.21534
4284.21,0.21482
4285.11,0.21193
4286.01,0.20988
4286.91,0.20622
4287.81,0.20214
4288.71,0.19792
4289.61,0.19481
4290.51,0.19135
4291.41,0.19133
4292.31,0.1922
4293.21,0.19466
4294.11,0.19736
4295.01,0.1987
4295.91,0.19838
4296.81,0.19405
4297.71,0.18794
4298.61,0.18135
4299.51,0.17312
4300.41,0.16652
4301.31,0.16165
4302.21,0.15751
4303.11,0.15736
4304.01,0.15682
4304.91,0.15673
4305.81,0.15518
4306.71,0.15392
4307.61,0.15233
4308.51,0.15093
4309.41,0.151
4310.31,0.15352
4311.21,0.1598
4312.11,0.16773
4313.01,0.17784
4313.91,0.19031
4314.81,0.20376
4315.71,0.21846
4316.61,0.23002
4317.51,0.24094
4318.41,0.25021
4319.31,0.25336
4320.21,0.2531
4321.12,0.25033
4322.02,0.24142
4322.92,0.23175
4323.82,0.22023
4324.72,0.21081
4325.62,0.20346
4326.52,0.20149
4327.42,0.20403
4328.32,0.21233
4329.22,0.22244
4330.12,0.23249
4331.02,0.23997
4331.92,0.24533
4332.82,0.24984
4333.72,0.25016
4334.62,0.24951
4335.52,0.24605
4336.42,0.23956
4337.32,0.22897
4338.22,0.21859
4339.12,0.20732
4340.02,0.19867
4340.92,0.19251
4341.82,0.19261
4342.72,0.19711
4343.62,0.20382
4344.52,0.21264
4345.42,0.22271
4346.32,0.22892
4347.22,0.2365
4348.12,0.24112
4349.02,0.24264
4349.92,0.24202
4350.82,0.23901
4351.72,0.23456
4352.62,0.23011
4353.52,0.22855
4354.42,0.22921
4355.32,0.23071
4356.22,0.23411
4357.12,0.23792
4358.02,0.2421
4358.92,0.24386
4359.83,0.24629
4360.73,0.24904
4361.63,0.25162
4362.53,0.25499
4363.43,0.25785
4364.33,0.26077
4365.23,0.26191
4366.13,0.26114
4367.03,0.25918
4367.93,0.25656
4368.83,0.25359
4369.73,0.25047
4370.63,0.24742
4371.53,0.2436
4372.43,0.24056
4373.33,0.2374
4374.23,0.23475
4375.13,0.23334
4376.03,0.23203
4376.93,0.23243
4377.83,0.23504
4378.73,0.23686
4379.63,0.23695
4380.53,0.23415
4381.43,0.22824
4382.33,0.21752
4383.23,0.20716
4384.13,0.20091
4385.03,0.19608
4385.93,0.19562
4386.83,0.19913
4387.73,0.2051
4388.63,0.21221
4389.53,0.21792
4390.43,0.22226
4391.33,0.22506
4392.23,0.22817
4393.13,0.23083
4394.03,0.234
4394.93,0.23731
4395.83,0.2396
4396.73,0.24201
4397.64,0.24388
4398.54,0.24649
4399.44,0.24638
4400.34,0.24474
4401.24,0.24064
4402.14,0.23594
4403.04,0.23215
4403.94,0.22633
4404.84,0.22226
4405.74,0.21893
4406.64,0.21826
4407.54,0.22004
4408.44,0.22409
4409.34,0.23015
4410.24,0.2374
4411.14,0.2443
4412.04,0.24895
4412.94,0.25213
4413.84,0.25226
4414.74,0.25039
4415.64,0.24821
4416.54,0.24648
4417.44,0.24667
4418.34,0.24912
4419.24,0.25226
4420.14,0.25482
4421.04,0.25735
4421.94,0.25784
4422.84,0.25673
4423.74,0.25484
4424.64,0.25419
4425.54,0.2524
4426.44,0.25218
4427.34,0.25359
4428.24,0.25294
4429.14,0.25382
4430.04,0.25253
4430.94,0.25266
4431.84,0.25113
4432.74,0.24835
4433.64,0.24613
4434.54,0.24424
4435.45,0.24328
4436.35,0.24561
4437.25,0.2471
4438.15,0.25126
4439.05,0.25387
4439.95,0.25679
4440.85,0.25872
4441.75,0.25767
4442.65,0.25583
4443.55,0.25495
4444.45,0.25583
4445.35,0.25763
4446.25,0.26038
4447.15,0.26498
4448.05,0.26809
4448.95,0.26849
4449.85,0.26896
4450.75,0.2664
4451.65,0.2646
4452.55,0.26114
4453.45,0.25602
4454.35,0.25027
4455.25,0.24414
4456.15,0.23943
4457.05,0.23497
4457.95,0.23332
4458.85,0.23097
4459.75,0.23014
4460.65,0.23054
4461.55,0.23237
4462.45,0.23522
4463.35,0.23876
4464.25,0.2426
4465.15,0.24666
4466.05,0.25009
4466.95,0.25236
4467.85,0.25431
4468.75,0.25549
4469.65,0.25572
4470.55,0.25767
4471.45,0.26161
4472.35,0.26409
4473.25,0.26777
4474.16,0.27302
4475.06,0.27699
4475.96,0.27945
4476.86,0.28163
4477.76,0.2811
4478.66,0.28006
4479.56,0.27555
4480.46,0.27138
4481.36,0.26728
4482.26,0.26424
4483.16,0.26587
4484.06,0.26719
4484.96,0.27073
4485.86,0.27449
4486.76,0.27681
4487.66,0.27635
4488.56,0.27429
4489.46,0.27297
4490.36,0.27036
4491.26,0.26764
4492.16,0.26653
4493.06,0.26604
4493.96,0.2651
4494.86,0.26429
4495.76,0.26384
4496.66,0.26561
4497.56,0.26671
4498.46,0.26939
4499.36,0.27341
4500.26,0.27734
4501.16,0.28248
4502.06,0.28666
4502.96,0.28864
4503.86,0.29331
4504.76,0.29598
4505.66,0.29946
4506.56,0.30037
4507.46,0.29889
4508.36,0.29893
4509.26,0.29937
4510.17,0.29809
4511.06,0.29669
4511.97,0.29398
4512.87,0.29128
4513.77,0.2888
4514.67,0.28543
4515.57,0.28427
4516.47,0.28067
4517.37,0.28218
4518.27,0.28274
4519.17,0.28322
4520.07,0.28447
4520.97,0.28424
4521.87,0.28466
4522.77,0.2828
4523.67,0.27973
4524.57,0.27406
4525.47,0.26826
4526.37,0.26217
4527.27,0.25689
4528.17,0.25045
4529.07,0.24764
4529.97,0.24537
4530.87,0.24362
4531.77,0.24568
4532.67,0.24708
4533.57,0.24883
4534.47,0.25071
4535.37,0.25464
4536.27,0.25752
4537.17,0.2615
4538.07,0.26761
4538.97,0.27203
4539.87,0.27418
4540.77,0.27729
4541.67,0.27793
4542.57,0.27731
4543.47,0.27702
4544.37,0.27615
4545.27,0.27458
4546.17,0.27338
4547.07,0.27119
4547.97,0.27
4548.88,0.26799
4549.77,0.26792
4550.68,0.26604
4551.58,0.26657
4552.48,0.2657
4553.38,0.26599
4554.28,0.26705
4555.18,0.26746
4556.08,0.27127
4556.98,0.27487
4557.88,0.27929
4558.78,0.28312
4559.68,0.28793
4560.58,0.28884
4561.48,0.29019
4562.38,0.2904
4563.28,0.28826
4564.18,0.28654
4565.08,0.28462
4565.98,0.28264
4566.88,0.28315
4567.78,0.28346
4568.68,0.28536
4569.58,0.28717
4570.48,0.28676
4571.38,0.28875
4572.28,0.2884
4573.18,0.28877
4574.08,0.28858
4574.98,0.28961
4575.88,0.28974
4576.78,0.28947
4577.68,0.28773
4578.58,0.28555
4579.48,0.2816
4580.38,0.2783
4581.28,0.27407
4582.18,0.2715
4583.08,0.27122
4583.98,0.27076
4584.88,0.27068
4585.78,0.27268
4586.69,0.27478
4587.58,0.27847
4588.49,0.27979
4589.39,0.28225
4590.29,0.28356
4591.19,0.28413
4592.09,0.28175
4592.99,0.27976
4593.89,0.27762
4594.79,0.27596
4595.69,0.27364
4596.59,0.27297
4597.49,0.27319
4598.39,0.27287
4599.29,0.27411
4600.19,0.27326
4601.09,0.27474
4601.99,0.27532
4602.89,0.27615
4603.79,0.27778
4604.69,0.27931
4605.59,0.28187
4606.49,0.2837
4607.39,0.28846
4608.29,0.29098
4609.19,0.29438
4610.09,0.29702
4610.99,0.29878
4611.89,0.29888
4612.79,0.29746
4613.69,0.29686
4614.59,0.29857
4615.49,0.29667
4616.39,0.29852
4617.29,0.29665
4618.19,0.29824
4619.09,0.29836
4619.99,0.29998
4620.89,0.29854
4621.79,0.29886
4622.69,0.29852
4623.59,0.30016
4624.5,0.29865
4625.4,0.29881
4626.3,0.29852
4627.2,0.29836
4628.1,0.2982
4629.0,0.29753
4629.9,0.2975
4630.8,0.296
4631.7,0.29593
4632.6,0.29396
4633.5,0.29231
4634.4,0.29213
4635.3,0.2888
4636.2,0.28583
4637.1,0.2842
4638.0,0.28294
4638.9,0.28076
4639.8,0.27926
4640.7,0.27943
4641.6,0.27809
4642.5,0.27805
4643.4,0.27953
4644.3,0.27498
4645.2,0.2736
4646.1,0.27153
4647.0,0.26882
4647.9,0.26688
4648.8,0.26714
4649.7,0.2684
4650.6,0.2708
4651.5,0.27385
4652.4,0.2784
4653.3,0.27983
4654.2,0.28079
4655.1,0.28154
4656.0,0.28256
4656.9,0.284
4657.8,0.28605
4658.7,0.28955
4659.6,0.29313
4660.5,0.29483
4661.4,0.29592
4662.3,0.29455
4663.21,0.28934
4664.11,0.28581
4665.01,0.28046
4665.91,0.27316
4666.81,0.26753
4667.71,0.26236
4668.61,0.26033
4669.51,0.25941
4670.41,0.26335
4671.31,0.26698
4672.21,0.27175
4673.11,0.27592
4674.01,0.27951
4674.91,0.28107
4675.81,0.28309
4676.71,0.28393
4677.61,0.28458
4678.51,0.28348
4679.41,0.28137
4680.31,0.28008
4681.21,0.27829
4682.11,0.27776
4683.01,0.27862
4683.91,0.27919
4684.81,0.28088
4685.71,0.28347
4686.61,0.28284
4687.51,0.28303
4688.41,0.28339
4689.31,0.28284
4690.21,0.28175
4691.11,0.28234
4692.01,0.28167
4692.91,0.2837
4693.81,0.284
4694.71,0.28377
4695.61,0.28643
4696.51,0.28518
4697.41,0.28562
4698.31,0.28379
4699.21,0.28022
4700.12,0.2775
4701.02,0.27287
4701.92,0.27115
4702.82,0.27043
4703.72,0.26825
4704.62,0.26939
4705.52,0.26947
4706.42,0.27112
4707.32,0.27045
4708.22,0.27146
4709.12,0.27342
4710.02,0.27247
4710.92,0.27476
4711.82,0.27813
4712.72,0.27833
4713.62,0.27985
4714.52,0.28226
4715.42,0.28379
4716.32,0.28625
4717.22,0.2903
4718.12,0.29287
4719.02,0.29704
4719.92,0.29978
4720.82,0.30272
4721.72,0.30449
4722.62,0.3039
4723.52,0.30323
4724.42,0.30212
4725.32,0.29996
4726.22,0.29602
4727.12,0.29368
4728.02,0.28717
4728.92,0.28312
4729.82,0.27859
4730.72,0.2769
4731.62,0.2761
4732.52,0.27677
4733.42,0.27979
4734.32,0.28079
4735.22,0.28511
4736.12,0.28631
4737.02,0.28797
4737.92,0.28977
4738.83,0.29036
4739.73,0.29281
4740.63,0.29367
4741.53,0.29508
4742.43,0.29513
4743.33,0.29532
4744.23,0.29715
4745.13,0.29822
4746.03,0.29977
4746.93,0.30075
4747.83,0.30216
4748.73,0.30299
4749.63,0.30235
4750.53,0.30163
4751.43,0.30091
4752.33,0.29983
4753.23,0.29714
4754.13,0.29511
4755.03,0.29345
4755.93,0.29046
4756.83,0.29116
4757.73,0.29041
4758.63,0.28951
4759.53,0.2898
4760.43,0.28918
4761.33,0.28749
4762.23,0.28515
4763.13,0.28453
4764.03,0.28021
4764.93,0.27698
4765.83,0.27583
4766.73,0.2754
4767.63,0.2771
4768.53,0.27871
4769.43,0.2798
4770.33,0.28433
4771.23,0.28646
4772.13,0.29094
4773.03,0.29176
4773.93,0.29314
4774.83,0.29727
4775.73,0.30007
4776.64,0.30043
4777.54,0.30232
4778.44,0.30225
4779.34,0.30142
4780.24,0.30042
4781.14,0.29923
4782.04,0.29666
4782.94,0.29569
4783.84,0.2917
4784.74,0.28994
4785.64,0.2887
4786.54,0.28703
4787.44,0.28581
4788.34,0.28681
4789.24,0.28788
4790.14,0.28854
4791.04,0.28896
4791.94,0.29341
4792.84,0.29552
4793.74,0.29936
4794.64,0.30395
4795.54,0.30613
4796.44,0.30655
4797.34,0.30494
4798.24,0.30466
4799.14,0.30274
4800.04,0.30201
4800.94,0.29947
4801.84,0.30054
4802.74,0.29936
4803.64,0.30165
4804.54,0.30035
4805.44,0.29947
4806.34,0.29831
4807.24,0.29638
4808.14,0.29596
4809.04,0.29424
4809.94,0.29414
4810.84,0.29418
4811.74,0.29566
4812.64,0.29778
4813.54,0.2984
4814.45,0.30138
4815.35,0.30265
4816.25,0.30454
4817.15,0.30763
4818.05,0.30718
4818.95,0.30941
4819.85,0.3103
4820.75,0.30894
4821.65,0.30629
4822.55,0.30393
4823.45,0.30051
4824.35,0.29845
4825.25,0.29795
4826.15,0.29726
4827.05,0.29638
4827.95,0.29638
4828.85,0.29411
4829.75,0.29458
4830.65,0.29591
4831.55,0.29519
4832.45,0.29474
4833.35,0.29433
4834.25,0.2953
4835.15,0.29654
4836.05,0.29613
