wave,flux
3700.85,0.11971
3701.75,0.11812
3702.65,0.11388
3703.55,0.10903
3704.45,0.10277
3705.35,0.097031
3706.25,0.092909
3707.15,0.090871
3708.05,0.090628
3708.96,0.092626
3709.86,0.09522
3710.76,0.099279
3711.66,0.1051
3712.56,0.11019
3713.46,0.11506
3714.36,0.1194
3715.26,0.12172
3716.16,0.12161
3717.06,0.11803
3717.96,0.11286
3718.86,0.10503
3719.76,0.096346
3720.66,0.089182
3721.56,0.084377
3722.46,0.083791
3723.36,0.086781
3724.26,0.092139
3725.16,0.098212
3726.06,0.10335
3726.96,0.10657
3727.86,0.10805
3728.76,0.10813
3729.66,0.10705
3730.56,0.10476
3731.46,0.10116
3732.36,0.095375
3733.26,0.089024
3734.16,0.081176
3735.06,0.07573
3735.96,0.07275
3736.86,0.073629
3737.76,0.077579
3738.66,0.08412
3739.56,0.091537
3740.46,0.098551
3741.36,0.10281
3742.26,0.10407
3743.16,0.10224
3744.06,0.098585
3744.96,0.093822
3745.86,0.088012
3746.76,0.08335
3747.67,0.079038
3748.57,0.076279
3749.47,0.075309
3750.37,0.077036
3751.27,0.08235
3752.17,0.089798
3753.07,0.098176
3753.97,0.10616
3754.87,0.11184
3755.77,0.11424
3756.67,0.1135
3757.57,0.10966
3758.47,0.10536
3759.37,0.10215
3760.27,0.10054
3761.17,0.10101
3762.07,0.10282
3762.97,0.10384
3763.87,0.10558
3764.77,0.10641
3765.67,0.1062
3766.57,0.10641
3767.47,0.10582
3768.37,0.10555
3769.27,0.10564
3770.17,0.10608
3771.07,0.1076
3771.97,0.11007
3772.87,0.11353
3773.77,0.11714
3774.67,0.1203
3775.57,0.12239
3776.47,0.12406
3777.37,0.12623
3778.27,0.12794
3779.17,0.13009
3780.07,0.13249
3780.97,0.13494
3781.87,0.13698
3782.77,0.13791
3783.67,0.13699
3784.57,0.13484
3785.47,0.13172
3786.38,0.12702
3787.28,0.12267
3788.18,0.11765
3789.08,0.11498
3789.98,0.11304
3790.88,0.11206
3791.78,0.11189
3792.68,0.11105
3793.58,0.10958
3794.48,0.10653
3795.38,0.10322
3796.28,0.09934
3797.18,0.096409
3798.08,0.094369
3798.98,0.09486
3799.88,0.09743
3800.78,0.10274
3801.68,0.10928
3802.58,0.11653
3803.48,0.12248
3804.38,0.12686
3805.28,0.12916
3806.18,0.13015
3807.08,0.12893
3807.98,0.129
3808.88,0.12947
3809.78,0.13054
3810.68,0.13064
3811.58,0.12943
3812.48,0.12745
3813.38,0.12229
3814.28,0.11744
3815.18,0.11291
3816.08,0.10922
3816.98,0.10778
3817.88,0.10626
3818.78,0.10568
3819.68,0.10409
3820.58,0.10252
3821.48,0.10084
3822.38,0.099655
3823.28,0.098301
3824.18,0.096344
3825.09,0.093534
3825.99,0.090328
3826.89,0.087587
3827.79,0.085921
3828.69,0.085361
3829.59,0.085098
3830.49,0.08408
3831.39,0.082298
3832.29,0.080412
3833.19,0.077547
3834.09,0.075484
3834.99,0.073803
3835.89,0.07317
3836.79,0.073425
3837.69,0.074589
3838.59,0.075956
3839.49,0.078121
3840.39,0.081321
3841.29,0.086458
3842.19,0.092634
3843.09,0.10005
3843.99,0.10643
3844.89,0.11219
3845.79,0.11654
3846.69,0.11921
3847.59,0.12033
3848.49,0.12045
3849.39,0.11991
3850.29,0.11962
3851.19,0.11982
3852.09,0.11981
3852.99,0.11981
3853.89,0.11976
3854.79,0.11791
3855.69,0.11501
3856.59,0.11272
3857.49,0.10902
3858.39,0.10539
3859.29,0.1031
3860.19,0.10215
3861.09,0.10378
3861.99,0.1074
3862.9,0.11192
3863.8,0.11672
3864.7,0.12004
3865.6,0.12166
3866.5,0.12234
3867.4,0.12184
3868.3,0.12017
3869.2,0.11878
3870.1,0.11581
3871.0,0.11256
3871.9,0.11005
3872.8,0.1083
3873.7,0.10779
3874.6,0.10894
3875.5,0.11109
3876.4,0.11201
3877.3,0.11154
3878.2,0.11095
3879.1,0.10987
3880.0,0.10854
3880.9,0.10864
3881.8,0.10887
3882.7,0.10825
3883.6,0.1081
3884.5,0.10657
3885.4,0.10484
3886.3,0.10133
3887.2,0.098023
3888.1,0.095787
3889.0,0.094919
3889.9,0.096502
3890.8,0.099643
3891.7,0.10453
3892.6,0.10941
3893.5,0.11377
3894.4,0.11638
3895.3,0.11859
3896.2,0.11996
3897.1,0.1209
3898.0,0.12173
3898.9,0.12232
3899.8,0.12366
3900.7,0.12314
3901.6,0.12363
3902.51,0.12307
3903.41,0.12171
3904.31,0.12061
3905.21,0.11935
3906.11,0.11898
3907.01,0.12025
3907.91,0.12296
3908.81,0.12641
3909.71,0.1308
3910.61,0.13386
3911.51,0.13757
3912.41,0.13888
3913.31,0.13905
3914.21,0.1386
3915.11,0.13748
3916.01,0.13517
3916.91,0.13302
3917.81,0.13001
3918.71,0.1274
3919.61,0.12363
3920.51,0.12041
3921.41,0.11728
3922.31,0.1149
3923.21,0.11353
3924.11,0.11192
3925.01,0.10977
3925.91,0.106
3926.81,0.10052
3927.71,0.093257
3928.61,0.084804
3929.51,0.075206
3930.41,0.065622
3931.31,0.056816
3932.21,0.048909
3933.11,0.042701
3934.01,0.039571
3934.91,0.039054
3935.81,0.04172
3936.71,0.047166
3937.61,0.054964
3938.51,0.063934
3939.42,0.073268
3940.32,0.081897
3941.22,0.089149
3942.12,0.095035
3943.02,0.099547
3943.92,0.10324
3944.82,0.10747
3945.72,0.11126
3946.62,0.11533
3947.52,0.11965
3948.42,0.1238
3949.32,0.12614
3950.22,0.1294
3951.12,0.13117
3952.02,0.13241
3952.92,0.13391
3953.82,0.13468
3954.72,0.13461
3955.62,0.13422
3956.52,0.13342
3957.42,0.13194
3958.32,0.12996
3959.22,0.12718
3960.12,0.12289
3961.02,0.11721
3961.92,0.11017
3962.82,0.10232
3963.72,0.093723
3964.62,0.084623
3965.52,0.076048
3966.42,0.066927
3967.32,0.058586
3968.22,0.051645
3969.12,0.047832
3970.02,0.047199
3970.92,0.050006
3971.82,0.056362
3972.72,0.064704
3973.62,0.074969
3974.52,0.08554
3975.42,0.095509
3976.32,0.105
3977.22,0.11383
3978.13,0.12221
3979.03,0.12914
3979.93,0.13442
3980.83,0.13889
3981.73,0.14136
3982.63,0.14307
3983.53,0.14497
3984.43,0.14541
3985.33,0.14601
3986.23,0.14828
3987.13,0.14994
3988.03,0.15184
3988.93,0.15406
3989.83,0.15479
3990.73,0.15659
3991.63,0.15753
3992.53,0.15863
3993.43,0.15899
3994.33,0.15894
3995.23,0.15783
3996.13,0.15631
3997.03,0.15406
3997.93,0.15418
3998.83,0.15395
3999.73,0.15588
4000.63,0.1583
4001.53,0.16159
4002.43,0.16272
4003.33,0.16186
4004.23,0.16112
4005.13,0.15761
4006.03,0.15585
4006.93,0.15514
4007.83,0.15565
4008.73,0.15785
4009.63,0.16041
4010.53,0.16302
4011.43,0.1648
4012.33,0.1667
4013.23,0.16732
4014.13,0.16773
4015.03,0.16876
4015.93,0.1681
4016.84,0.1685
4017.74,0.16847
4018.64,0.16806
4019.54,0.16807
4020.44,0.16876
4021.34,0.16904
4022.24,0.16982
4023.14,0.16933
4024.04,0.16919
4024.94,0.16959
4025.84,0.17037
4026.74,0.1719
4027.64,0.17149
4028.54,0.1715
4029.44,0.16944
4030.34,0.16517
4031.24,0.16184
4032.14,0.15845
4033.04,0.15554
4033.94,0.15482
4034.84,0.15682
4035.74,0.15977
4036.64,0.16418
4037.54,0.16993
4038.44,0.17337
4039.34,0.17513
4040.24,0.17622
4041.14,0.17524
4042.04,0.17216
4042.94,0.16851
4043.84,0.16377
4044.74,0.15795
4045.64,0.15401
4046.54,0.15263
4047.44,0.15331
4048.34,0.15617
4049.24,0.16161
4050.14,0.16599
4051.04,0.16997
4051.94,0.17147
4052.84,0.17152
4053.74,0.1711
4054.65,0.16939
4055.55,0.16694
4056.45,0.16522
4057.35,0.1646
4058.25,0.1644
4059.15,0.16473
4060.05,0.16457
4060.95,0.16452
4061.85,0.16262
4062.75,0.16115
4063.65,0.15764
4064.55,0.15561
4065.45,0.1547
4066.35,0.15645
4067.25,0.15802
4068.15,0.16133
4069.05,0.16377
4069.95,0.16453
4070.85,0.16546
4071.75,0.16502
4072.65,0.1637
4073.55,0.16321
4074.45,0.16223
4075.35,0.16101
4076.25,0.15895
4077.15,0.15668
4078.05,0.15555
4078.95,0.15645
4079.85,0.15792
4080.75,0.16117
4081.65,0.16457
4082.55,0.16848
4083.45,0.16981
4084.35,0.17117
4085.25,0.17208
4086.15,0.17358
4087.05,0.17656
4087.95,0.17935
4088.85,0.18234
4089.75,0.18353
4090.65,0.1851
4091.55,0.18481
4092.45,0.18332
4093.36,0.18152
4094.26,0.18008
4095.16,0.17589
4096.06,0.17216
4096.96,0.16763
4097.86,0.16281
4098.76,0.15793
4099.66,0.15189
4100.56,0.14662
4101.46,0.14236
4102.36,0.13936
4103.26,0.13982
4104.16,0.1434
4105.06,0.14795
4105.96,0.15424
4106.86,0.15996
4107.76,0.16376
4108.66,0.16648
4109.56,0.16893
4110.46,0.17034
4111.36,0.17017
4112.26,0.17181
4113.16,0.17335
4114.06,0.17496
4114.96,0.17758
4115.86,0.17831
4116.76,0.17922
4117.66,0.17843
4118.56,0.17701
4119.46,0.17521
4120.36,0.17421
4121.26,0.17413
4122.16,0.17317
4123.06,0.17449
4123.96,0.17487
4124.86,0.17547
4125.76,0.17564
4126.66,0.1759
4127.56,0.17531
4128.46,0.17368
4129.36,0.17216
4130.26,0.17002
4131.17,0.16757
4132.06,0.16589
4132.97,0.16512
4133.87,0.16403
4134.77,0.16511
4135.67,0.16788
4136.57,0.17153
4137.47,0.1748
4138.37,0.17738
4139.27,0.17835
4140.17,0.17948
4141.07,0.1772
4141.97,0.17403
4142.87,0.16974
4143.77,0.16664
4144.67,0.16529
4145.57,0.16412
4146.47,0.16701
4147.37,0.16895
4148.27,0.17112
4149.17,0.17282
4150.07,0.17369
4150.97,0.17337
4151.87,0.17282
4152.77,0.17199
4153.67,0.17068
4154.57,0.16998
4155.47,0.16952
4156.37,0.16995
4157.27,0.1709
4158.17,0.17262
4159.07,0.17422
4159.97,0.17725
4160.87,0.17919
4161.77,0.18044
4162.67,0.18164
4163.57,0.18314
4164.47,0.18264
4165.37,0.18153
4166.27,0.18067
4167.17,0.17906
4168.07,0.17716
4168.98,0.17648
4169.88,0.17398
4170.78,0.17188
4171.68,0.16843
4172.58,0.1653
4173.48,0.16319
4174.38,0.16166
4175.28,0.16148
4176.18,0.16209
4177.08,0.16402
4177.98,0.16624
4178.88,0.16753
4179.78,0.16957
4180.68,0.17141
4181.58,0.17254
4182.48,0.17124
4183.38,0.17269
4184.28,0.17217
4185.18,0.17189
4186.08,0.17126
4186.98,0.17025
4187.88,0.1701
4188.78,0.17005
4189.68,0.17007
4190.58,0.17117
4191.48,0.17341
4192.38,0.17438
4193.28,0.17557
4194.18,0.1759
4195.08,0.17473
4195.98,0.17365
4196.88,0.16992
4197.78,0.16723
4198.68,0.1649
4199.58,0.1624
4200.48,0.1611
4201.38,0.16041
4202.28,0.16118
4203.18,0.1629
4204.08,0.16435
4204.98,0.1673
4205.88,0.16948
4206.79,0.17248
4207.69,0.17553
4208.59,0.17722
4209.49,0.17896
4210.39,0.17962
4211.29,0.17959
4212.19,0.17928
4213.09,0.1781
4213.99,0.17595
4214.89,0.17448
4215.79,0.17219
4216.69,0.17151
4217.59,0.17238
4218.49,0.17509
4219.39,0.17654
4220.29,0.17833
4221.19,0.17814
4222.09,0.17589
4222.99,0.1727
4223.89,0.16727
4224.79,0.15882
4225.69,0.15299
4226.59,0.14636
4227.49,0.1447
4228.39,0.14644
4229.29,0.15047
4230.19,0.15679
4231.09,0.163
4231.99,0.16769
4232.89,0.17035
4233.79,0.17146
4234.69,0.17119
4235.59,0.16886
4236.49,0.168
4237.39,0.16725
4238.29,0.16759
4239.19,0.16823
4240.09,0.17017
4240.99,0.17172
4241.89,0.17431
4242.79,0.17611
4243.69,0.1776
4244.59,0.17923
4245.5,0.179
4246.4,0.17739
4247.3,0.17546
4248.2,0.17231
4249.1,0.16953
4250.0,0.16784
4250.9,0.16519
4251.8,0.16611
4252.7,0.1664
4253.6,0.16749
4254.5,0.16793
4255.4,0.16959
4256.3,0.16932
4257.2,0.17045
4258.1,0.17009
4259.0,0.16981
4259.9,0.16829
4260.8,0.16733
4261.7,0.16738
4262.6,0.16952
4263.5,0.17221
4264.4,0.17629
4265.3,0.17892
4266.2,0.18098
4267.1,0.18054
4268.0,0.17822
4268.9,0.17465
4269.8,0.16936
4270.7,0.16499
4271.6,0.15904
4272.5,0.15565
4273.4,0.153
4274.3,0.15351
4275.2,0.15624
4276.1,0.15897
4277.0,0.16385
4277.9,0.16756
4278.8,0.17102
4279.7,0.1727
4280.6,0.17245
4281.5,0.17177
4282.4,0.17073
4283.31,0.17115
4284.21,0.16814
4285.11,0.16695
4286.01,0.16535
4286.91,0.16252
4287.81,0.16034
4288.71,0.15782
4289.61,0.15508
4290.51,0.15422
4291.41,0.15379
4292.31,0.15539
4293.21,0.1575
4294.11,0.15875
4295.01,0.15888
4295.91,0.15765
4296.81,0.15464
4297.71,0.15005
4298.61,0.145
4299.51,0.13979
4300.41,0.13502
4301.31,0.13106
4302.21,0.12919
4303.11,0.12847
4304.01,0.12851
4304.91,0.12837
4305.81,0.12824
4306.71,0.12775
4307.61,0.12642
4308.51,0.12521
4309.41,0.12501
4310.31,0.12684
4311.21,0.12965
4312.11,0.13459
4313.01,0.14119
4313.91,0.14924
4314.81,0.15859
4315.71,0.16886
4316.61,0.17773
4317.51,0.18568
4318.41,0.19125
4319.31,0.19443
4320.21,0.19414
4321.12,0.19262
4322.02,0.18736
4322.92,0.18131
4323.82,0.17475
4324.72,0.16739
4325.62,0.16405
4326.52,0.1636
4327.42,0.16541
4328.32,0.17023
4329.22,0.17521
4330.12,0.18112
4331.02,0.18658
4331.92,0.19003
4332.82,0.19112
4333.72,0.1925
4334.62,0.19063
4335.52,0.18815
4336.42,0.18296
4337.32,0.17653
4338.22,0.16954
4339.12,0.16202
4340.02,0.15559
4340.92,0.1517
4341.82,0.15175
4342.72,0.15439
4343.62,0.15914
4344.52,0.16608
4345.42,0.17238
4346.32,0.17882
4347.22,0.18272
4348.12,0.186
4349.02,0.18598
4349.92,0.18654
4350.82,0.18457
4351.72,0.18212
4352.62,0.17953
4353.52,0.17873
4354.42,0.17962
4355.32,0.17985
4356.22,0.18259
4357.12,0.18461
4358.02,0.18661
4358.92,0.18928
4359.83,0.19003
4360.73,0.19111
4361.63,0.19227
4362.53,0.19509
4363.43,0.19644
4364.33,0.19628
4365.23,0.19943
4366.13,0.19795
4367.03,0.19673
4367.93,0.19496
4368.83,0.19361
4369.73,0.19132
4370.63,0.18982
4371.53,0.18745
4372.43,0.18657
4373.33,0.18436
4374.23,0.18258
4375.13,0.18104
4376.03,0.18088
4376.93,0.18182
4377.83,0.18378
4378.73,0.1845
4379.63,0.18491
4380.53,0.18355
4381.43,0.18041
4382.33,0.17513
4383.23,0.16973
4384.13,0.16504
4385.03,0.16277
4385.93,0.1622
4386.83,0.16495
4387.73,0.16828
4388.63,0.17254
4389.53,0.17594
4390.43,0.18008
4391.33,0.18075
4392.23,0.18285
4393.13,0.1847
4394.03,0.18574
4394.93,0.18595
4395.83,0.18786
4396.73,0.18836
4397.64,0.18936
4398.54,0.19035
4399.44,0.19017
4400.34,0.18946
4401.24,0.18795
4402.14,0.18593
4403.04,0.18354
4403.94,0.18142
4404.84,0.17999
4405.74,0.17858
4406.64,0.17802
4407.54,0.17957
4408.44,0.181
4409.34,0.18439
4410.24,0.18918
4411.14,0.19193
4412.04,0.19442
4412.94,0.19567
4413.84,0.1964
4414.74,0.19612
4415.64,0.19396
4416.54,0.19328
4417.44,0.19328
4418.34,0.19383
4419.24,0.1958
4420.14,0.19812
4421.04,0.1992
4421.94,0.19988
4422.84,0.19956
4423.74,0.19845
4424.64,0.19888
4425.54,0.19808
4426.44,0.19809
4427.34,0.198
4428.24,0.19787
4429.14,0.19727
4430.04,0.19785
4430.94,0.1977
4431.84,0.19631
4432.74,0.19494
4433.64,0.19462
4434.54,0.19321
4435.45,0.19345
4436.35,0.19258
4437.25,0.19474
4438.15,0.19662
4439.05,0.19931
4439.95,0.20084
4440.85,0.20073
4441.75,0.19988
4442.65,0.19888
4443.55,0.19789
4444.45,0.19729
4445.35,0.19873
4446.25,0.20036
4447.15,0.20214
4448.05,0.20261
4448.95,0.20418
4449.85,0.20408
4450.75,0.20425
4451.65,0.20282
4452.55,0.20094
4453.45,0.19703
4454.35,0.19469
4455.25,0.19152
4456.15,0.18886
4457.05,0.18756
4457.95,0.18583
4458.85,0.18598
4459.75,0.18574
4460.65,0.18661
4461.55,0.18694
4462.45,0.18897
4463.35,0.19097
4464.25,0.19326
4465.15,0.19518
4466.05,0.19689
4466.95,0.19859
4467.85,0.19825
4468.75,0.19909
4469.65,0.19939
4470.55,0.2001
4471.45,0.20218
4472.35,0.20465
4473.25,0.20701
4474.16,0.20925
4475.06,0.2122
4475.96,0.21373
4476.86,0.2155
4477.76,0.21521
4478.66,0.21406
4479.56,0.21218
4480.46,0.21002
4481.36,0.20732
4482.26,0.20586
4483.16,0.20739
4484.06,0.20674
4484.96,0.20906
4485.86,0.21031
4486.76,0.2109
4487.66,0.2129
4488.56,0.21138
4489.46,0.20974
4490.36,0.20886
4491.26,0.20782
4492.16,0.20738
4493.06,0.20773
4493.96,0.20788
4494.86,0.20688
4495.76,0.20714
4496.66,0.20764
4497.56,0.20771
4498.46,0.21054
4499.36,0.21199
4500.26,0.21293
4501.16,0.21562
4502.06,0.21797
4502.96,0.21926
4503.86,0.22252
4504.76,0.22355
4505.66,0.22372
4506.56,0.2262
4507.46,0.22519
4508.36,0.22598
4509.26,0.22651
4510.17,0.22451
4511.06,0.22501
4511.97,0.22319
4512.87,0.22117
4513.77,0.22085
4514.67,0.21897
4515.57,0.21798
4516.47,0.21666
4517.37,0.21671
4518.27,0.21436
4519.17,0.21597
4520.07,0.2166
4520.97,0.21552
4521.87,0.2156
4522.77,0.21402
4523.67,0.2109
4524.57,0.20932
4525.47,0.20686
4526.37,0.20309
4527.27,0.20009
4528.17,0.1979
4529.07,0.19707
4529.97,0.19547
4530.87,0.19433
4531.77,0.19544
4532.67,0.19476
4533.57,0.19498
4534.47,0.19619
4535.37,0.19762
4536.27,0.19933
4537.17,0.20288
4538.07,0.20572
4538.97,0.2089
4539.87,0.21166
4540.77,0.21318
4541.67,0.21399
4542.57,0.21508
4543.47,0.21322
4544.37,0.21281
4545.27,0.21249
4546.17,0.2112
4547.07,0.20877
4547.97,0.20751
4548.88,0.20698
4549.77,0.20664
4550.68,0.20571
4551.58,0.20472
4552.48,0.2054
4553.38,0.20477
4554.28,0.20561
4555.18,0.2053
4556.08,0.20732
4556.98,0.2096
4557.88,0.21215
4558.78,0.21557
4559.68,0.21783
4560.58,0.21972
4561.48,0.22064
4562.38,0.21989
4563.28,0.21864
4564.18,0.21852
4565.08,0.21766
4565.98,0.21726
4566.88,0.21734
4567.78,0.21728
4568.68,0.21895
4569.58,0.21866
4570.48,0.21926
4571.38,0.21817
4572.28,0.21957
4573.18,0.21931
4574.08,0.21921
4574.98,0.22014
4575.88,0.21974
4576.78,0.21973
4577.68,0.21921
4578.58,0.218
4579.48,0.21688
4580.38,0.21408
4581.28,0.21238
4582.18,0.21131
4583.08,0.20986
4583.98,0.21071
4584.88,0.21149
4585.78,0.21145
4586.69,0.2133
4587.58,0.21468
4588.49,0.21605
4589.39,0.21887
4590.29,0.21942
4591.19,0.21848
4592.09,0.21715
4592.99,0.2162
4593.89,0.21546
4594.79,0.21517
4595.69,0.21519
4596.59,0.2146
4597.49,0.21547
4598.39,0.21544
4599.29,0.21555
4600.19,0.21546
4601.09,0.21528
4601.99,0.21523
4602.89,0.21632
4603.79,0.21597
4604.69,0.21741
4605.59,0.21802
4606.49,0.21953
4607.39,0.22089
4608.29,0.22275
4609.19,0.22417
4610.09,0.22539
4610.99,0.22614
4611.89,0.22579
4612.79,0.22633
4613.69,0.22461
4614.59,0.22509
4615.49,0.224
4616.39,0.22485
4617.29,0.22506
4618.19,0.22504
4619.09,0.22401
4619.99,0.22467
4620.89,0.22536
4621.79,0.22541
4622.69,0.22556
4623.59,0.22654
4624.5,0.22562
4625.4,0.22763
4626.3,0.22636
4627.2,0.22588
4628.1,0.22509
4629.0,0.22547
4629.9,0.22514
4630.8,0.22565
4631.7,0.22475
4632.6,0.22507
4633.5,0.22394
4634.4,0.22387
4635.3,0.22231
4636.2,0.22134
4637.1,0.22097
4638.0,0.21944
4638.9,0.21863
4639.8,0.21933
4640.7,0.21991
4641.6,0.22046
4642.5,0.22067
4643.4,0.22067
4644.3,0.22086
4645.2,0.21883
4646.1,0.21715
4647.0,0.21584
4647.9,0.21509
4648.8,0.21486
4649.7,0.21548
4650.6,0.21602
4651.5,0.2166
4652.4,0.21757
4653.3,0.21771
4654.2,0.21793
4655.1,0.2189
4656.0,0.21868
4656.9,0.2195
4657.8,0.22157
4658.7,0.2232
4659.6,0.22547
4660.5,0.22735
4661.4,0.22827
4662.3,0.22743
4663.21,0.22546
4664.11,0.22371
4665.01,0.22087
4665.91,0.21652
4666.81,0.21304
4667.71,0.21159
4668.61,0.21054
4669.51,0.20935
4670.41,0.21005
4671.31,0.21226
4672.21,0.21552
4673.11,0.21743
4674.01,0.2199
4674.91,0.22205
4675.81,0.22215
4676.71,0.22285
4677.61,0.22296
4678.51,0.22209
4679.41,0.22165
4680.31,0.21937
4681.21,0.21814
4682.11,0.21793
4683.01,0.21857
4683.91,0.21921
4684.81,0.21958
4685.71,0.22058
4686.61,0.22154
4687.51,0.22262
4688.41,0.22116
4689.31,0.22221
4690.21,0.22268
4691.11,0.22253
4692.01,0.22294
4692.91,0.22246
4693.81,0.22448
4694.71,0.22551
4695.61,0.2256
4696.51,0.22626
4697.41,0.22622
4698.31,0.22389
4699.21,0.222
4700.12,0.22061
4701.02,0.21999
4701.92,0.21763
4702.82,0.21605
4703.72,0.21559
4704.62,0.21489
4705.52,0.21484
4706.42,0.21483
4707.32,0.21505
4708.22,0.21512
4709.12,0.21508
4710.02,0.21601
4710.92,0.21679
4711.82,0.21839
4712.72,0.21991
4713.62,0.22159
4714.52,0.22179
4715.42,0.22312
4716.32,0.22368
4717.22,0.22526
4718.12,0.22612
4719.02,0.22859
4719.92,0.23035
4720.82,0.23067
4721.72,0.23074
4722.62,0.231
4723.52,0.23067
4724.42,0.23085
4725.32,0.22979
4726.22,0.2279
4727.12,0.22593
4728.02,0.22422
4728.92,0.22223
4729.82,0.2207
4730.72,0.21907
4731.62,0.21974
4732.52,0.2187
4733.42,0.22059
4734.32,0.22142
4735.22,0.22195
4736.12,0.22302
4737.02,0.22292
4737.92,0.22345
4738.83,0.22378
4739.73,0.22489
4740.63,0.22496
4741.53,0.22539
4742.43,0.22548
4743.33,0.22634
4744.23,0.22768
4745.13,0.22767
4746.03,0.22844
4746.93,0.22943
4747.83,0.22997
4748.73,0.23031
4749.63,0.23063
4750.53,0.23054
4751.43,0.2303
4752.33,0.22982
4753.23,0.2281
4754.13,0.22569
4755.03,0.22651
4755.93,0.22443
4756.83,0.22491
4757.73,0.22351
4758.63,0.22335
4759.53,0.2233
4760.43,0.22196
4761.33,0.22217
4762.23,0.21985
4763.13,0.21996
4764.03,0.21824
4764.93,0.21777
4765.83,0.21591
4766.73,0.2162
4767.63,0.21712
4768.53,0.2178
4769.43,0.21952
4770.33,0.22084
4771.23,0.22273
4772.13,0.22336
4773.03,0.2236
4773.93,0.22656
4774.83,0.22696
4775.73,0.22685
4776.64,0.22766
4777.54,0.22879
4778.44,0.22797
4779.34,0.22864
4780.24,0.22744
4781.14,0.22617
4782.04,0.22439
4782.94,0.2242
4783.84,0.22341
4784.74,0.22187
4785.64,0.2212
4786.54,0.22112
4787.44,0.21989
4788.34,0.22001
4789.24,0.22018
4790.14,0.22053
4791.04,0.22211
4791.94,0.22312
4792.84,0.22566
4793.74,0.22755
4794.64,0.22829
4795.54,0.22962
4796.44,0.23023
4797.34,0.22961
4798.24,0.23057
4799.14,0.22948
4800.04,0.22824
4800.94,0.22754
4801.84,0.22768
4802.74,0.22876
4803.64,0.22862
4804.54,0.22711
4805.44,0.22781
4806.34,0.22777
4807.24,0.22692
4808.14,0.22641
4809.04,0.22579
4809.94,0.22628
4810.84,0.22702
4811.74,0.22736
4812.64,0.22916
4813.54,0.22974
4814.45,0.23013
4815.35,0.23122
4816.25,0.23274
4817.15,0.23266
4818.05,0.23353
4818.95,0.23256
4819.85,0.23267
4820.75,0.23389
4821.65,0.23142
4822.55,0.23035
4823.45,0.22887
4824.35,0.22801
4825.25,0.22787
4826.15,0.22789
4827.05,0.22683
4827.95,0.22829
4828.85,0.22622
4829.75,0.2269
4830.65,0.22642
4831.55,0.22564
4832.45,0.22634
4833.35,0.22546
