wave,flux
3700.85,0.27394
3701.75,0.27155
3702.65,0.26402
3703.55,0.25324
3704.45,0.24239
3705.35,0.232
3706.25,0.22684
3707.15,0.22502
3708.05,0.2267
3708.96,0.22967
3709.86,0.23357
3710.76,0.23979
3711.66,0.24503
3712.56,0.25209
3713.46,0.26113
3714.36,0.27094
3715.26,0.2784
3716.16,0.28088
3717.06,0.28094
3717.96,0.27445
3718.86,0.26229
3719.76,0.24641
3720.66,0.23132
3721.56,0.2189
3722.46,0.21474
3723.36,0.21966
3724.26,0.2308
3725.16,0.2434
3726.06,0.25404
3726.96,0.26299
3727.86,0.26734
3728.76,0.2687
3729.66,0.26642
3730.56,0.26209
3731.46,0.25323
3732.36,0.23996
3733.26,0.22423
3734.16,0.20856
3735.06,0.19832
3735.96,0.19362
3736.86,0.19797
3737.76,0.20917
3738.66,0.22459
3739.56,0.24204
3740.46,0.25749
3741.36,0.26823
3742.26,0.27152
3743.16,0.26808
3744.06,0.26149
3744.96,0.25223
3745.86,0.24201
3746.76,0.22899
3747.67,0.21693
3748.57,0.20698
3749.47,0.19994
3750.37,0.1992
3751.27,0.20553
3752.17,0.22096
3753.07,0.23893
3753.97,0.25816
3754.87,0.27278
3755.77,0.28191
3756.67,0.28419
3757.57,0.28177
3758.47,0.2746
3759.37,0.26893
3760.27,0.26597
3761.17,0.26837
3762.07,0.27046
3762.97,0.27604
3763.87,0.27939
3764.77,0.28124
3765.67,0.27962
3766.57,0.27419
3767.47,0.26862
3768.37,0.26136
3769.27,0.25288
3770.17,0.24835
3771.07,0.2467
3771.97,0.25034
3772.87,0.2587
3773.77,0.26872
3774.67,0.28048
3775.57,0.28859
3776.47,0.29699
3777.37,0.30578
3778.27,0.31289
3779.17,0.32171
3780.07,0.32821
3780.97,0.33376
3781.87,0.34098
3782.77,0.34242
3783.67,0.3432
3784.57,0.34024
3785.47,0.33279
3786.38,0.32534
3787.28,0.31468
3788.18,0.30779
3789.08,0.30245
3789.98,0.29634
3790.88,0.29351
3791.78,0.29035
3792.68,0.28405
3793.58,0.27765
3794.48,0.26665
3795.38,0.25691
3796.28,0.24342
3797.18,0.23349
3798.08,0.2266
3798.98,0.2253
3799.88,0.23246
3800.78,0.24421
3801.68,0.26277
3802.58,0.28073
3803.48,0.29832
3804.38,0.31086
3805.28,0.31893
3806.18,0.32534
3807.08,0.32649
3807.98,0.32905
3808.88,0.33185
3809.78,0.33515
3810.68,0.33848
3811.58,0.33837
3812.48,0.33292
3813.38,0.32718
3814.28,0.31786
3815.18,0.31138
3816.08,0.30734
3816.98,0.3067
3817.88,0.30674
3818.78,0.30588
3819.68,0.30517
3820.58,0.30187
3821.48,0.29919
3822.38,0.29659
3823.28,0.2923
3824.18,0.28741
3825.09,0.28103
3825.99,0.27304
3826.89,0.26705
3827.79,0.2615
3828.69,0.25658
3829.59,0.25221
3830.49,0.24594
3831.39,0.23926
3832.29,0.22732
3833.19,0.21645
3834.09,0.20498
3834.99,0.19667
3835.89,0.19273
3836.79,0.19294
3837.69,0.19687
3838.59,0.20387
3839.49,0.21381
3840.39,0.22664
3841.29,0.24211
3842.19,0.25841
3843.09,0.27326
3843.99,0.28832
3844.89,0.30073
3845.79,0.31083
3846.69,0.31787
3847.59,0.32338
3848.49,0.3252
3849.39,0.32892
3850.29,0.32961
3851.19,0.33153
3852.09,0.33436
3852.99,0.33587
3853.89,0.33618
3854.79,0.33579
3855.69,0.33233
3856.59,0.32738
3857.49,0.32285
3858.39,0.31658
3859.29,0.3131
3860.19,0.31144
3861.09,0.31577
3861.99,0.32228
3862.9,0.3292
3863.8,0.33854
3864.7,0.34255
3865.6,0.34483
3866.5,0.3474
3867.4,0.34497
3868.3,0.34484
3869.2,0.34159
3870.1,0.33673
3871.0,0.32964
3871.9,0.32375
3872.8,0.3166
3873.7,0.31387
3874.6,0.31328
3875.5,0.31478
3876.4,0.31553
3877.3,0.3136
3878.2,0.31217
3879.1,0.30854
3880.0,0.30574
3880.9,0.30396
3881.8,0.30222
3882.7,0.29872
3883.6,0.29365
3884.5,0.28644
3885.4,0.27539
3886.3,0.26352
3887.2,0.25016
3888.1,0.23905
3889.0,0.23188
3889.9,0.23131
3890.8,0.23667
3891.7,0.24712
3892.6,0.26066
3893.5,0.27311
3894.4,0.28323
3895.3,0.29248
3896.2,0.30056
3897.1,0.30641
3898.0,0.31038
3898.9,0.31674
3899.8,0.31908
3900.7,0.32249
3901.6,0.32514
3902.51,0.32618
3903.41,0.32626
3904.31,0.32351
3905.21,0.32276
3906.11,0.32336
3907.01,0.32574
3907.91,0.32926
3908.81,0.33892
3909.71,0.3461
3910.61,0.35344
3911.51,0.35868
3912.41,0.36215
3913.31,0.36192
3914.21,0.36107
3915.11,0.35526
3916.01,0.35431
3916.91,0.34783
3917.81,0.34436
3918.71,0.33977
3919.61,0.33429
3920.51,0.33028
3921.41,0.32675
3922.31,0.32453
3923.21,0.32182
3924.11,0.31921
3925.01,0.31369
3925.91,0.30496
3926.81,0.29223
3927.71,0.27602
3928.61,0.25624
3929.51,0.23176
3930.41,0.20626
3931.31,0.1801
3932.21,0.15704
3933.11,0.13764
3934.01,0.12577
3934.91,0.12437
3935.81,0.13196
3936.71,0.14817
3937.61,0.17076
3938.51,0.19718
3939.42,0.22341
3940.32,0.24671
3941.22,0.26613
3942.12,0.27997
3943.02,0.28948
3943.92,0.30021
3944.82,0.30711
3945.72,0.31283
3946.62,0.32202
3947.52,0.32752
3948.42,0.33249
3949.32,0.33735
3950.22,0.33898
3951.12,0.34242
3952.02,0.34492
3952.92,0.34719
3953.82,0.34618
3954.72,0.34729
3955.62,0.34607
3956.52,0.34381
3957.42,0.34095
3958.32,0.3373
3959.22,0.33227
3960.12,0.32367
3961.02,0.31292
3961.92,0.29856
3962.82,0.28056
3963.72,0.26054
3964.62,0.23984
3965.52,0.21609
3966.42,0.19222
3967.32,0.16766
3968.22,0.14749
3969.12,0.13551
3970.02,0.13099
3970.92,0.1368
3971.82,0.15192
3972.72,0.17319
3973.62,0.19695
3974.52,0.22271
3975.42,0.24742
3976.32,0.26868
3977.22,0.29085
3978.13,0.30835
3979.03,0.32385
3979.93,0.33589
3980.83,0.34399
3981.73,0.35118
3982.63,0.35506
3983.53,0.35904
3984.43,0.36057
3985.33,0.36351
3986.23,0.36597
3987.13,0.37131
3988.03,0.37667
3988.93,0.37978
3989.83,0.38336
3990.73,0.38703
3991.63,0.38942
3992.53,0.39273
3993.43,0.39513
3994.33,0.39375
3995.23,0.38986
3996.13,0.38857
3997.03,0.38421
3997.93,0.38383
3998.83,0.38395
3999.73,0.38711
4000.63,0.39286
4001.53,0.39815
4002.43,0.40144
4003.33,0.40015
4004.23,0.39844
4005.13,0.39422
4006.03,0.3903
4006.93,0.38872
4007.83,0.38934
4008.73,0.39355
4009.63,0.39995
4010.53,0.40336
4011.43,0.40663
4012.33,0.40959
4013.23,0.4111
4014.13,0.41363
4015.03,0.41183
4015.93,0.41422
4016.84,0.41297
4017.74,0.41286
4018.64,0.41378
4019.54,0.41571
4020.44,0.41618
4021.34,0.41645
4022.24,0.41677
4023.14,0.41526
4024.04,0.41638
4024.94,0.41678
4025.84,0.4178
4026.74,0.42175
4027.64,0.42148
4028.54,0.41967
4029.44,0.41763
4030.34,0.41059
4031.24,0.40259
4032.14,0.39615
4033.04,0.3909
4033.94,0.39102
4034.84,0.39432
4035.74,0.40155
4036.64,0.4102
4037.54,0.41887
4038.44,0.42754
4039.34,0.42916
4040.24,0.43114
4041.14,0.42949
4042.04,0.42367
4042.94,0.41607
4043.84,0.40918
4044.74,0.40172
4045.64,0.39422
4046.54,0.39174
4047.44,0.39278
4048.34,0.39939
4049.24,0.40476
4050.14,0.41386
4051.04,0.41988
4051.94,0.42024
4052.84,0.4205
4053.74,0.41811
4054.65,0.41347
4055.55,0.40886
4056.45,0.40801
4057.35,0.40587
4058.25,0.40551
4059.15,0.40657
4060.05,0.40821
4060.95,0.40761
4061.85,0.40523
4062.75,0.40186
4063.65,0.39587
4064.55,0.39516
4065.45,0.39175
4066.35,0.3953
4067.25,0.39851
4068.15,0.40328
4069.05,0.40609
4069.95,0.40794
4070.85,0.40829
4071.75,0.40814
4072.65,0.40515
4073.55,0.40207
4074.45,0.39921
4075.35,0.39445
4076.25,0.3895
4077.15,0.38398
4078.05,0.3785
4078.95,0.38084
4079.85,0.38422
4080.75,0.39015
4081.65,0.39632
4082.55,0.40176
4083.45,0.40717
4084.35,0.40726
4085.25,0.40781
4086.15,0.41047
4087.05,0.41335
4087.95,0.41811
4088.85,0.42181
4089.75,0.42599
4090.65,0.42576
4091.55,0.42475
4092.45,0.42207
4093.36,0.41665
4094.26,0.40688
4095.16,0.40007
4096.06,0.39356
4096.96,0.37999
4097.86,0.36721
4098.76,0.35502
4099.66,0.33712
4100.56,0.32226
4101.46,0.31074
4102.36,0.30391
4103.26,0.3023
4104.16,0.30981
4105.06,0.3236
4105.96,0.33763
4106.86,0.35357
4107.76,0.36471
4108.66,0.37455
4109.56,0.3831
4110.46,0.38757
4111.36,0.39309
4112.26,0.39711
4113.16,0.40107
4114.06,0.40833
4114.96,0.4114
4115.86,0.41591
4116.76,0.41748
4117.66,0.41715
4118.56,0.41557
4119.46,0.41313
4120.36,0.41302
4121.26,0.41026
4122.16,0.41212
4123.06,0.41236
4123.96,0.41198
4124.86,0.417
4125.76,0.41696
4126.66,0.41732
4127.56,0.41616
4128.46,0.4144
4129.36,0.41193
4130.26,0.40868
4131.17,0.40642
4132.06,0.40357
4132.97,0.40288
4133.87,0.40039
4134.77,0.40251
4135.67,0.40814
4136.57,0.41451
4137.47,0.42048
4138.37,0.42604
4139.27,0.42928
4140.17,0.42907
4141.07,0.42772
4141.97,0.423
4142.87,0.41651
4143.77,0.41027
4144.67,0.40808
4145.57,0.40702
4146.47,0.40963
4147.37,0.41592
4148.27,0.41871
4149.17,0.41916
4150.07,0.42229
4150.97,0.42072
4151.87,0.41904
4152.77,0.41712
4153.67,0.41461
4154.57,0.41299
4155.47,0.41235
4156.37,0.41206
4157.27,0.41459
4158.17,0.41889
4159.07,0.41877
4159.97,0.42466
4160.87,0.42828
4161.77,0.43055
4162.67,0.43251
4163.57,0.43494
4164.47,0.43386
4165.37,0.43463
4166.27,0.43307
4167.17,0.43069
4168.07,0.42761
4168.98,0.42431
4169.88,0.41889
4170.78,0.41499
4171.68,0.40877
4172.58,0.4047
4173.48,0.3977
4174.38,0.39395
4175.28,0.39398
4176.18,0.39548
4177.08,0.39914
4177.98,0.40096
4178.88,0.40612
4179.78,0.4097
4180.68,0.41083
4181.58,0.41396
4182.48,0.41523
4183.38,0.41658
4184.28,0.41602
4185.18,0.4169
4186.08,0.4155
4186.98,0.413
4187.88,0.41466
4188.78,0.41469
4189.68,0.41475
4190.58,0.41625
4191.48,0.42046
4192.38,0.42312
4193.28,0.42352
4194.18,0.42534
4195.08,0.42334
4195.98,0.41935
4196.88,0.41538
4197.78,0.41143
4198.68,0.40477
4199.58,0.40092
4200.48,0.39907
4201.38,0.3983
4202.28,0.39947
4203.18,0.40067
4204.08,0.40438
4204.98,0.40728
4205.88,0.41205
4206.79,0.41576
4207.69,0.42046
4208.59,0.4259
4209.49,0.42722
4210.39,0.42909
4211.29,0.42969
4212.19,0.42867
4213.09,0.42811
4213.99,0.4244
4214.89,0.42345
4215.79,0.41682
4216.69,0.41627
4217.59,0.4151
4218.49,0.41791
4219.39,0.42124
4220.29,0.42524
4221.19,0.42705
4222.09,0.42328
4222.99,0.41691
4223.89,0.40737
4224.79,0.39569
4225.69,0.38314
4226.59,0.37474
4227.49,0.37011
4228.39,0.37417
4229.29,0.38193
4230.19,0.39318
4231.09,0.40232
4231.99,0.40996
4232.89,0.41486
4233.79,0.41719
4234.69,0.41289
4235.59,0.41065
4236.49,0.40893
4237.39,0.40822
4238.29,0.40697
4239.19,0.40853
4240.09,0.41107
4240.99,0.41591
4241.89,0.41704
4242.79,0.4204
4243.69,0.4226
4244.59,0.42662
4245.5,0.4233
4246.4,0.42135
4247.3,0.4175
4248.2,0.41202
4249.1,0.40747
4250.0,0.40482
4250.9,0.40335
4251.8,0.40738
4252.7,0.40854
4253.6,0.41136
4254.5,0.41177
4255.4,0.41503
4256.3,0.41725
4257.2,0.4151
4258.1,0.41495
4259.0,0.41227
4259.9,0.41408
4260.8,0.40722
4261.7,0.40968
4262.6,0.41324
4263.5,0.41924
4264.4,0.42314
4265.3,0.42742
4266.2,0.4313
4267.1,0.43134
4268.0,0.42748
4268.9,0.42079
4269.8,0.41311
4270.7,0.40499
4271.6,0.39553
4272.5,0.38951
4273.4,0.38657
4274.3,0.38663
4275.2,0.39123
4276.1,0.39618
4277.0,0.40386
4277.9,0.41051
4278.8,0.41372
4279.7,0.41639
4280.6,0.41573
4281.5,0.41309
4282.4,0.41261
4283.31,0.40944
4284.21,0.4077
4285.11,0.40346
4286.01,0.40063
4286.91,0.39575
4287.81,0.38842
4288.71,0.38533
4289.61,0.37967
4290.51,0.37696
4291.41,0.37617
4292.31,0.37856
4293.21,0.38204
4294.11,0.38557
4295.01,0.38643
4295.91,0.38411
4296.81,0.37925
4297.71,0.37162
4298.61,0.36161
4299.51,0.35215
4300.41,0.34303
4301.31,0.33686
4302.21,0.3335
4303.11,0.33258
4304.01,0.33106
4304.91,0.33247
4305.81,0.33365
4306.71,0.33258
4307.61,0.33119
4308.51,0.32961
4309.41,0.3293
4310.31,0.3318
4311.21,0.33705
4312.11,0.34506
4313.01,0.35465
4313.91,0.36673
4314.81,0.38097
4315.71,0.39455
4316.61,0.40905
4317.51,0.42245
4318.41,0.43228
4319.31,0.43619
4320.21,0.43742
4321.12,0.43236
4322.02,0.42623
4322.92,0.41648
4323.82,0.40413
4324.72,0.3949
4325.62,0.38811
4326.52,0.38544
4327.42,0.38798
4328.32,0.39237
4329.22,0.40299
4330.12,0.41043
4331.02,0.4176
4331.92,0.41964
4332.82,0.42096
4333.72,0.41962
4334.62,0.41304
4335.52,0.40543
4336.42,0.39193
4337.32,0.37748
4338.22,0.35892
4339.12,0.34073
4340.02,0.32674
4340.92,0.31766
4341.82,0.31563
4342.72,0.32197
4343.62,0.33268
4344.52,0.3488
4345.42,0.36549
4346.32,0.37975
4347.22,0.39171
4348.12,0.40023
4349.02,0.40688
4349.92,0.40586
4350.82,0.40623
4351.72,0.40207
4352.62,0.40093
4353.52,0.40156
4354.42,0.40221
4355.32,0.40918
4356.22,0.41502
4357.12,0.41836
4358.02,0.42395
4358.92,0.42911
4359.83,0.43016
4360.73,0.43206
4361.63,0.43734
4362.53,0.44081
4363.43,0.44358
4364.33,0.4458
4365.23,0.44858
4366.13,0.44584
4367.03,0.44751
4367.93,0.44126
4368.83,0.43931
4369.73,0.43562
4370.63,0.4333
4371.53,0.43049
4372.43,0.42788
4373.33,0.42291
4374.23,0.42144
4375.13,0.41931
4376.03,0.42047
4376.93,0.42128
4377.83,0.42685
4378.73,0.42764
4379.63,0.42854
4380.53,0.42903
4381.43,0.42625
4382.33,0.41597
4383.23,0.40788
4384.13,0.39905
4385.03,0.39417
4385.93,0.39504
4386.83,0.39625
4387.73,0.40253
4388.63,0.41009
4389.53,0.41386
4390.43,0.41955
4391.33,0.42354
4392.23,0.42546
4393.13,0.42725
4394.03,0.42753
4394.93,0.43087
4395.83,0.42987
4396.73,0.43169
4397.64,0.43462
4398.54,0.43348
4399.44,0.4351
4400.34,0.43248
4401.24,0.432
4402.14,0.42865
4403.04,0.42625
4403.94,0.42552
4404.84,0.42396
4405.74,0.42199
4406.64,0.42172
4407.54,0.42156
4408.44,0.425
4409.34,0.42844
4410.24,0.43545
4411.14,0.44007
4412.04,0.44493
4412.94,0.44609
4413.84,0.44677
4414.74,0.44632
4415.64,0.44211
4416.54,0.44029
4417.44,0.43906
4418.34,0.44074
4419.24,0.44254
4420.14,0.44657
4421.04,0.45047
4421.94,0.44986
4422.84,0.45012
4423.74,0.45071
4424.64,0.45112
4425.54,0.44738
4426.44,0.44794
4427.34,0.44812
4428.24,0.44697
4429.14,0.44748
4430.04,0.44683
4430.94,0.44769
4431.84,0.44535
4432.74,0.44209
4433.64,0.4409
4434.54,0.43797
4435.45,0.43843
4436.35,0.4396
4437.25,0.44281
4438.15,0.44633
4439.05,0.45036
4439.95,0.45299
4440.85,0.45237
4441.75,0.44983
4442.65,0.4464
4443.55,0.44577
4444.45,0.44364
4445.35,0.44627
4446.25,0.44735
4447.15,0.45189
4448.05,0.45387
4448.95,0.45404
4449.85,0.45712
4450.75,0.45462
4451.65,0.45205
4452.55,0.44819
4453.45,0.44538
4454.35,0.44052
4455.25,0.43456
4456.15,0.42816
4457.05,0.42727
4457.95,0.42451
4458.85,0.42421
4459.75,0.42567
4460.65,0.42719
4461.55,0.4291
4462.45,0.43112
4463.35,0.43265
4464.25,0.4378
4465.15,0.44035
4466.05,0.44159
4466.95,0.44329
4467.85,0.44464
4468.75,0.44674
4469.65,0.44466
4470.55,0.44581
4471.45,0.44756
4472.35,0.4529
4473.25,0.45998
4474.16,0.46363
4475.06,0.46919
4475.96,0.47328
4476.86,0.47078
4477.76,0.47285
4478.66,0.47126
4479.56,0.46738
4480.46,0.46193
4481.36,0.45837
4482.26,0.45518
4483.16,0.45358
4484.06,0.45793
4484.96,0.45849
4485.86,0.46373
4486.76,0.46538
4487.66,0.4656
4488.56,0.46276
4489.46,0.46305
4490.36,0.45967
4491.26,0.46004
4492.16,0.4574
4493.06,0.4608
4493.96,0.46014
4494.86,0.46178
4495.76,0.4602
4496.66,0.46096
4497.56,0.4636
4498.46,0.46614
4499.36,0.46783
4500.26,0.47244
4501.16,0.47217
4502.06,0.47675
4502.96,0.47976
4503.86,0.48343
4504.76,0.48596
4505.66,0.48736
4506.56,0.48962
4507.46,0.49082
4508.36,0.49112
4509.26,0.48933
4510.17,0.48773
4511.06,0.48723
4511.97,0.48785
4512.87,0.48253
4513.77,0.48103
4514.67,0.47764
4515.57,0.47769
4516.47,0.47388
4517.37,0.47424
4518.27,0.47109
4519.17,0.47304
4520.07,0.4704
4520.97,0.4701
4521.87,0.46704
4522.77,0.46666
4523.67,0.46298
4524.57,0.45753
4525.47,0.45643
4526.37,0.45126
4527.27,0.44597
4528.17,0.44322
4529.07,0.4394
4529.97,0.43826
4530.87,0.43528
4531.77,0.43436
4532.67,0.43395
4533.57,0.43629
4534.47,0.43611
4535.37,0.43898
4536.27,0.4441
4537.17,0.44875
4538.07,0.45388
4538.97,0.45932
4539.87,0.46487
4540.77,0.46736
4541.67,0.46868
4542.57,0.46926
4543.47,0.4672
4544.37,0.46561
4545.27,0.4639
4546.17,0.46155
4547.07,0.45993
4547.97,0.45453
4548.88,0.45135
4549.77,0.45038
4550.68,0.45056
4551.58,0.4491
4552.48,0.4472
4553.38,0.44531
4554.28,0.44827
4555.18,0.44864
4556.08,0.45251
4556.98,0.45698
4557.88,0.45932
4558.78,0.46702
4559.68,0.47057
4560.58,0.47411
4561.48,0.4769
4562.38,0.47624
4563.28,0.47391
4564.18,0.47315
4565.08,0.47161
4565.98,0.47053
4566.88,0.47119
4567.78,0.47305
4568.68,0.47555
4569.58,0.4757
4570.48,0.47502
4571.38,0.47322
4572.28,0.47284
4573.18,0.47417
4574.08,0.47332
4574.98,0.47526
4575.88,0.47556
4576.78,0.47528
4577.68,0.47377
4578.58,0.47221
4579.48,0.46823
4580.38,0.46581
4581.28,0.46225
4582.18,0.46278
4583.08,0.45922
4583.98,0.45793
4584.88,0.4594
4585.78,0.4619
4586.69,0.46468
4587.58,0.46456
4588.49,0.46844
4589.39,0.46926
4590.29,0.47087
4591.19,0.47284
4592.09,0.47017
4592.99,0.47034
4593.89,0.46943
4594.79,0.46774
4595.69,0.46803
4596.59,0.46807
4597.49,0.46905
4598.39,0.47201
4599.29,0.46904
4600.19,0.46869
4601.09,0.46871
4601.99,0.46866
4602.89,0.47072
4603.79,0.46896
4604.69,0.46998
4605.59,0.47313
4606.49,0.4748
4607.39,0.47939
4608.29,0.48046
4609.19,0.48243
4610.09,0.48327
4610.99,0.48703
4611.89,0.48471
4612.79,0.48445
4613.69,0.48521
4614.59,0.48352
4615.49,0.48283
4616.39,0.48201
4617.29,0.47957
4618.19,0.48173
4619.09,0.48107
4619.99,0.48145
4620.89,0.48405
4621.79,0.48406
4622.69,0.48342
4623.59,0.48574
4624.5,0.48657
4625.4,0.48655
4626.3,0.48437
4627.2,0.48337
4628.1,0.48464
4629.0,0.4843
4629.9,0.48227
4630.8,0.48316
4631.7,0.48456
4632.6,0.48078
4633.5,0.48107
4634.4,0.48121
4635.3,0.47986
4636.2,0.47741
4637.1,0.47363
4638.0,0.47548
4638.9,0.47456
4639.8,0.47521
4640.7,0.47645
4641.6,0.47637
4642.5,0.4787
4643.4,0.4781
4644.3,0.47845
4645.2,0.47632
4646.1,0.47597
4647.0,0.47297
4647.9,0.46788
4648.8,0.46769
4649.7,0.47006
4650.6,0.46943
4651.5,0.47015
4652.4,0.47117
4653.3,0.47227
4654.2,0.47137
4655.1,0.47247
4656.0,0.47064
4656.9,0.47047
4657.8,0.47519
4658.7,0.48131
4659.6,0.48453
4660.5,0.48402
4661.4,0.48589
4662.3,0.48673
4663.21,0.4831
4664.11,0.48052
4665.01,0.47629
4665.91,0.46995
4666.81,0.46671
4667.71,0.45901
4668.61,0.45871
4669.51,0.45629
4670.41,0.45917
4671.31,0.46209
4672.21,0.46523
4673.11,0.46892
4674.01,0.47476
4674.91,0.47593
4675.81,0.47946
4676.71,0.48067
4677.61,0.48122
4678.51,0.47961
4679.41,0.47679
4680.31,0.47392
4681.21,0.47287
4682.11,0.47174
4683.01,0.47318
4683.91,0.47494
4684.81,0.47504
4685.71,0.47524
4686.61,0.47815
4687.51,0.47707
4688.41,0.48082
4689.31,0.47977
4690.21,0.47894
4691.11,0.47911
4692.01,0.48048
4692.91,0.4821
4693.81,0.48288
4694.71,0.48433
4695.61,0.48653
4696.51,0.48621
4697.41,0.4855
4698.31,0.48188
4699.21,0.48064
4700.12,0.47659
4701.02,0.47444
4701.92,0.47004
4702.82,0.46847
4703.72,0.46674
4704.62,0.4675
4705.52,0.46624
4706.42,0.46646
4707.32,0.46411
4708.22,0.46653
4709.12,0.46547
4710.02,0.46335
4710.92,0.46959
4711.82,0.47113
4712.72,0.47155
4713.62,0.47607
4714.52,0.47659
4715.42,0.47831
4716.32,0.48305
4717.22,0.48406
4718.12,0.48509
4719.02,0.48804
4719.92,0.48929
4720.82,0.48915
4721.72,0.48923
4722.62,0.49009
4723.52,0.49012
4724.42,0.48983
4725.32,0.4887
4726.22,0.4864
4727.12,0.4847
4728.02,0.48017
4728.92,0.47827
4729.82,0.47654
4730.72,0.47299
4731.62,0.4723
4732.52,0.47468
4733.42,0.47372
4734.32,0.47446
4735.22,0.47708
4736.12,0.47667
4737.02,0.47835
4737.92,0.47838
4738.83,0.47937
4739.73,0.47963
4740.63,0.48018
4741.53,0.48315
4742.43,0.48185
4743.33,0.48463
4744.23,0.48355
4745.13,0.48423
4746.03,0.48624
4746.93,0.48671
4747.83,0.4891
4748.73,0.4904
4749.63,0.48818
4750.53,0.49005
4751.43,0.48776
4752.33,0.48739
4753.23,0.48666
4754.13,0.4835
4755.03,0.48403
4755.93,0.47985
4756.83,0.47739
4757.73,0.47754
4758.63,0.47597
4759.53,0.47719
4760.43,0.47689
4761.33,0.47349
4762.23,0.4731
4763.13,0.46975
4764.03,0.46586
4764.93,0.46603
4765.83,0.46469
4766.73,0.46661
4767.63,0.46821
4768.53,0.46978
4769.43,0.47393
4770.33,0.47513
4771.23,0.47545
4772.13,0.47671
4773.03,0.4813
4773.93,0.48242
4774.83,0.48059
4775.73,0.48436
4776.64,0.48509
4777.54,0.48659
4778.44,0.48621
4779.34,0.48507
4780.24,0.48237
4781.14,0.48274
4782.04,0.48275
4782.94,0.48073
4783.84,0.4778
4784.74,0.47392
4785.64,0.47371
4786.54,0.47259
4787.44,0.47182
4788.34,0.47122
4789.24,0.47251
4790.14,0.47202
4791.04,0.47337
4791.94,0.47791
4792.84,0.47871
4793.74,0.48275
4794.64,0.48533
4795.54,0.48821
4796.44,0.48777
4797.34,0.48783
4798.24,0.4847
4799.14,0.48143
4800.04,0.48444
4800.94,0.48221
4801.84,0.48125
4802.74,0.48326
4803.64,0.48231
4804.54,0.48297
4805.44,0.48199
4806.34,0.48045
4807.24,0.48082
4808.14,0.48058
4809.04,0.47847
4809.94,0.48272
4810.84,0.48253
4811.74,0.48317
4812.64,0.48256
4813.54,0.48532
4814.45,0.48661
4815.35,0.48719
4816.25,0.48828
4817.15,0.49013
4818.05,0.48976
4818.95,0.48935
4819.85,0.49048
4820.75,0.49015
4821.65,0.48843
4822.55,0.4846
4823.45,0.48027
4824.35,0.47993
4825.25,0.4794
4826.15,0.47837
4827.05,0.47984
4827.95,0.47873
4828.85,0.47821
4829.75,0.47784
4830.65,0.4769
4831.55,0.47867
4832.45,0.47681
4833.35,0.47667
4834.25,0.47563
4835.15,0.47686
4836.05,0.47614
4836.95,0.47613
4837.85,0.47431
4838.75,0.47458
