wave,flux
3700.85,0.14139
3701.75,0.14014
3702.65,0.13546
3703.55,0.12938
3704.45,0.12233
3705.35,0.11683
3706.25,0.11231
3707.15,0.11035
3708.05,0.11035
3708.96,0.11261
3709.86,0.11517
3710.76,0.11973
3711.66,0.1245
3712.56,0.13079
3713.46,0.13616
3714.36,0.14109
3715.26,0.14432
3716.16,0.14384
3717.06,0.14179
3717.96,0.13617
3718.86,0.12745
3719.76,0.1186
3720.66,0.11004
3721.56,0.10473
3722.46,0.10331
3723.36,0.1062
3724.26,0.11268
3725.16,0.11911
3726.06,0.12574
3726.96,0.12928
3727.86,0.13118
3728.76,0.13118
3729.66,0.13074
3730.56,0.12811
3731.46,0.1231
3732.36,0.1168
3733.26,0.10884
3734.16,0.10031
3735.06,0.094484
3735.96,0.091102
3736.86,0.092135
3737.76,0.097298
3738.66,0.1048
3739.56,0.11338
3740.46,0.12109
3741.36,0.12587
3742.26,0.12815
3743.16,0.12661
3744.06,0.12243
3744.96,0.11699
3745.86,0.11081
3746.76,0.10477
3747.67,0.099623
3748.57,0.095791
3749.47,0.093923
3750.37,0.09531
3751.27,0.1007
3752.17,0.10895
3753.07,0.11938
3753.97,0.12814
3754.87,0.13531
3755.77,0.1382
3756.67,0.13896
3757.57,0.13504
3758.47,0.13037
3759.37,0.12598
3760.27,0.12415
3761.17,0.12496
3762.07,0.12699
3762.97,0.12874
3763.87,0.13145
3764.77,0.13209
3765.67,0.13187
3766.57,0.13176
3767.47,0.13005
3768.37,0.12881
3769.27,0.12783
3770.17,0.12754
3771.07,0.12848
3771.97,0.13072
3772.87,0.13462
3773.77,0.13919
3774.67,0.14383
3775.57,0.14657
3776.47,0.14894
3777.37,0.15227
3778.27,0.15494
3779.17,0.15688
3780.07,0.16086
3780.97,0.163
3781.87,0.16548
3782.77,0.1664
3783.67,0.16653
3784.57,0.16318
3785.47,0.16033
3786.38,0.15508
3787.28,0.15029
3788.18,0.14507
3789.08,0.14201
3789.98,0.13982
3790.88,0.13891
3791.78,0.13878
3792.68,0.13688
3793.58,0.13396
3794.48,0.13046
3795.38,0.12649
3796.28,0.12162
3797.18,0.11724
3798.08,0.11466
3798.98,0.11501
3799.88,0.118
3800.78,0.12425
3801.68,0.13257
3802.58,0.14171
3803.48,0.149
3804.38,0.15428
3805.28,0.15743
3806.18,0.15787
3807.08,0.15837
3807.98,0.1582
3808.88,0.15877
3809.78,0.15989
3810.68,0.1602
3811.58,0.15929
3812.48,0.1566
3813.38,0.15182
3814.28,0.14583
3815.18,0.14126
3816.08,0.13784
3816.98,0.1359
3817.88,0.1352
3818.78,0.13428
3819.68,0.13277
3820.58,0.13163
3821.48,0.129
3822.38,0.12763
3823.28,0.12627
3824.18,0.12394
3825.09,0.12036
3825.99,0.11688
3826.89,0.11376
3827.79,0.11155
3828.69,0.1101
3829.59,0.10953
3830.49,0.1084
3831.39,0.10554
3832.29,0.10244
3833.19,0.098167
3834.09,0.094807
3834.99,0.092444
3835.89,0.091353
3836.79,0.091923
3837.69,0.093125
3838.59,0.095663
3839.49,0.09817
3840.39,0.10273
3841.29,0.1099
3842.19,0.11728
3843.09,0.12624
3843.99,0.13265
3844.89,0.14011
3845.79,0.14475
3846.69,0.14761
3847.59,0.1501
3848.49,0.15062
3849.39,0.15023
3850.29,0.14987
3851.19,0.15032
3852.09,0.15022
3852.99,0.15051
3853.89,0.15048
3854.79,0.1491
3855.69,0.14703
3856.59,0.14314
3857.49,0.13904
3858.39,0.13552
3859.29,0.1325
3860.19,0.1314
3861.09,0.13285
3861.99,0.13747
3862.9,0.14331
3863.8,0.14765
3864.7,0.15169
3865.6,0.15322
3866.5,0.15388
3867.4,0.15382
3868.3,0.15306
3869.2,0.1503
3870.1,0.14737
3871.0,0.1439
3871.9,0.14008
3872.8,0.13825
3873.7,0.13644
3874.6,0.13808
3875.5,0.13949
3876.4,0.14043
3877.3,0.14044
3878.2,0.13979
3879.1,0.13827
3880.0,0.13728
3880.9,0.13635
3881.8,0.13689
3882.7,0.13694
3883.6,0.13534
3884.5,0.13338
3885.4,0.12959
3886.3,0.12464
3887.2,0.12013
3888.1,0.11713
3889.0,0.11562
3889.9,0.11618
3890.8,0.12009
3891.7,0.12601
3892.6,0.13133
3893.5,0.13617
3894.4,0.13994
3895.3,0.14316
3896.2,0.14514
3897.1,0.14736
3898.0,0.14828
3898.9,0.14958
3899.8,0.15029
3900.7,0.15091
3901.6,0.15098
3902.51,0.15057
3903.41,0.14894
3904.31,0.1485
3905.21,0.14699
3906.11,0.14735
3907.01,0.14783
3907.91,0.15127
3908.81,0.15535
3909.71,0.16017
3910.61,0.16349
3911.51,0.16705
3912.41,0.168
3913.31,0.16875
3914.21,0.16734
3915.11,0.167
3916.01,0.1643
3916.91,0.16186
3917.81,0.15861
3918.71,0.15473
3919.61,0.15174
3920.51,0.14803
3921.41,0.14438
3922.31,0.14244
3923.21,0.14051
3924.11,0.1395
3925.01,0.13637
3925.91,0.13219
3926.81,0.12544
3927.71,0.11693
3928.61,0.10684
3929.51,0.095295
3930.41,0.083104
3931.31,0.071767
3932.21,0.062046
3933.11,0.054126
3934.01,0.049909
3934.91,0.048934
3935.81,0.052304
3936.71,0.059256
3937.61,0.068917
3938.51,0.080685
3939.42,0.09247
3940.32,0.103
3941.22,0.11245
3942.12,0.11949
3943.02,0.12476
3943.92,0.12977
3944.82,0.13345
3945.72,0.13834
3946.62,0.14307
3947.52,0.14795
3948.42,0.15174
3949.32,0.15418
3950.22,0.15771
3951.12,0.15961
3952.02,0.16137
3952.92,0.16254
3953.82,0.16285
3954.72,0.16318
3955.62,0.16297
3956.52,0.16177
3957.42,0.16063
3958.32,0.15864
3959.22,0.15552
3960.12,0.15048
3961.02,0.14421
3961.92,0.1366
3962.82,0.12751
3963.72,0.11685
3964.62,0.10619
3965.52,0.095201
3966.42,0.084008
3967.32,0.07337
3968.22,0.06488
3969.12,0.059216
3970.02,0.058145
3970.92,0.061318
3971.82,0.069371
3972.72,0.079786
3973.62,0.09214
3974.52,0.10488
3975.42,0.11686
3976.32,0.12809
3977.22,0.13837
3978.13,0.14812
3979.03,0.15553
3979.93,0.16212
3980.83,0.16677
3981.73,0.17027
3982.63,0.17154
3983.53,0.17286
3984.43,0.17459
3985.33,0.176
3986.23,0.17765
3987.13,0.17994
3988.03,0.18228
3988.93,0.18366
3989.83,0.18565
3990.73,0.18706
3991.63,0.18845
3992.53,0.19067
3993.43,0.19019
3994.33,0.18966
3995.23,0.18864
3996.13,0.18699
3997.03,0.18447
3997.93,0.18422
3998.83,0.18477
3999.73,0.1871
4000.63,0.18911
4001.53,0.19124
4002.43,0.19246
4003.33,0.19341
4004.23,0.19194
4005.13,0.18881
4006.03,0.18631
4006.93,0.18571
4007.83,0.18703
4008.73,0.18913
4009.63,0.19107
4010.53,0.19424
4011.43,0.19697
4012.33,0.19857
4013.23,0.19935
4014.13,0.2
4015.03,0.2003
4015.93,0.19931
4016.84,0.19929
4017.74,0.19943
4018.64,0.19999
4019.54,0.20085
4020.44,0.2014
4021.34,0.2018
4022.24,0.20107
4023.14,0.20112
4024.04,0.20115
4024.94,0.20196
4025.84,0.20284
4026.74,0.20442
4027.64,0.20433
4028.54,0.20396
4029.44,0.20146
4030.34,0.19764
4031.24,0.19287
4032.14,0.1896
4033.04,0.1864
4033.94,0.18635
4034.84,0.18785
4035.74,0.19189
4036.64,0.19741
4037.54,0.20247
4038.44,0.20656
4039.34,0.20908
4040.24,0.20986
4041.14,0.20839
4042.04,0.20576
4042.94,0.20144
4043.84,0.19544
4044.74,0.1902
4045.64,0.18636
4046.54,0.18413
4047.44,0.18519
4048.34,0.18831
4049.24,0.19325
4050.14,0.19851
4051.04,0.20253
4051.94,0.20503
4052.84,0.2048
4053.74,0.20427
4054.65,0.20224
4055.55,0.19938
4056.45,0.19807
4057.35,0.19758
4058.25,0.19822
4059.15,0.19717
4060.05,0.1978
4060.95,0.19663
4061.85,0.19563
4062.75,0.19297
4063.65,0.18974
4064.55,0.18771
4065.45,0.18649
4066.35,0.18768
4067.25,0.18965
4068.15,0.19312
4069.05,0.19588
4069.95,0.19732
4070.85,0.19788
4071.75,0.19709
4072.65,0.19696
4073.55,0.19496
4074.45,0.19457
4075.35,0.19172
4076.25,0.18935
4077.15,0.18679
4078.05,0.18533
4078.95,0.18565
4079.85,0.18778
4080.75,0.19196
4081.65,0.19533
4082.55,0.19931
4083.45,0.20137
4084.35,0.20258
4085.25,0.20377
4086.15,0.20541
4087.05,0.2067
4087.95,0.21036
4088.85,0.21408
4089.75,0.21648
4090.65,0.21772
4091.55,0.21684
4092.45,0.21565
4093.36,0.21299
4094.26,0.20994
4095.16,0.20746
4096.06,0.20268
4096.96,0.19793
4097.86,0.19212
4098.76,0.18517
4099.66,0.17878
4100.56,0.1722
4101.46,0.16616
4102.36,0.16303
4103.26,0.16333
4104.16,0.16693
4105.06,0.17186
4105.96,0.17959
4106.86,0.18646
4107.76,0.19201
4108.66,0.19626
4109.56,0.19825
4110.46,0.19919
4111.36,0.20148
4112.26,0.20337
4113.16,0.20479
4114.06,0.20683
4114.96,0.20998
4115.86,0.21071
4116.76,0.21097
4117.66,0.21033
4118.56,0.20886
4119.46,0.20755
4120.36,0.20636
4121.26,0.20567
4122.16,0.20588
4123.06,0.20636
4123.96,0.20686
4124.86,0.20762
4125.76,0.20826
4126.66,0.20884
4127.56,0.20734
4128.46,0.20675
4129.36,0.20453
4130.26,0.20177
4131.17,0.20035
4132.06,0.1979
4132.97,0.19676
4133.87,0.1966
4134.77,0.1965
4135.67,0.19933
4136.57,0.2031
4137.47,0.20612
4138.37,0.21067
4139.27,0.21311
4140.17,0.21281
4141.07,0.20978
4141.97,0.2075
4142.87,0.20299
4143.77,0.19926
4144.67,0.19725
4145.57,0.19746
4146.47,0.1994
4147.37,0.20179
4148.27,0.20512
4149.17,0.2067
4150.07,0.20644
4150.97,0.20637
4151.87,0.2063
4152.77,0.20476
4153.67,0.20412
4154.57,0.20257
4155.47,0.20265
4156.37,0.20314
4157.27,0.20366
4158.17,0.20517
4159.07,0.20812
4159.97,0.21014
4160.87,0.21211
4161.77,0.21336
4162.67,0.21563
4163.57,0.21612
4164.47,0.21634
4165.37,0.21485
4166.27,0.21349
4167.17,0.21259
4168.07,0.21061
4168.98,0.21045
4169.88,0.20739
4170.78,0.20334
4171.68,0.20049
4172.58,0.19718
4173.48,0.19492
4174.38,0.19296
4175.28,0.19254
4176.18,0.19376
4177.08,0.19614
4177.98,0.19727
4178.88,0.1996
4179.78,0.20159
4180.68,0.20319
4181.58,0.20443
4182.48,0.20434
4183.38,0.20467
4184.28,0.20416
4185.18,0.20454
4186.08,0.20423
4186.98,0.20337
4187.88,0.20271
4188.78,0.20243
4189.68,0.20225
4190.58,0.20401
4191.48,0.20643
4192.38,0.20729
4193.28,0.20866
4194.18,0.2092
4195.08,0.20843
4195.98,0.20466
4196.88,0.20306
4197.78,0.2004
4198.68,0.19725
4199.58,0.19514
4200.48,0.19312
4201.38,0.19287
4202.28,0.19269
4203.18,0.19449
4204.08,0.19599
4204.98,0.19901
4205.88,0.20156
4206.79,0.20418
4207.69,0.20715
4208.59,0.20904
4209.49,0.21072
4210.39,0.21247
4211.29,0.21259
4212.19,0.21252
4213.09,0.20999
4213.99,0.20822
4214.89,0.20743
4215.79,0.20479
4216.69,0.20255
4217.59,0.2036
4218.49,0.20555
4219.39,0.20604
4220.29,0.20928
4221.19,0.20971
4222.09,0.20867
4222.99,0.20493
4223.89,0.19807
4224.79,0.19004
4225.69,0.18247
4226.59,0.17728
4227.49,0.17479
4228.39,0.17594
4229.29,0.18086
4230.19,0.18754
4231.09,0.19434
4231.99,0.19905
4232.89,0.2022
4233.79,0.20261
4234.69,0.20157
4235.59,0.20081
4236.49,0.19936
4237.39,0.19885
4238.29,0.19876
4239.19,0.19948
4240.09,0.20122
4240.99,0.20386
4241.89,0.20554
4242.79,0.2084
4243.69,0.21022
4244.59,0.21047
4245.5,0.21037
4246.4,0.20858
4247.3,0.20623
4248.2,0.2032
4249.1,0.20021
4250.0,0.198
4250.9,0.19665
4251.8,0.19798
4252.7,0.19899
4253.6,0.2007
4254.5,0.20016
4255.4,0.20148
4256.3,0.20261
4257.2,0.20278
4258.1,0.20207
4259.0,0.20102
4259.9,0.20065
4260.8,0.19906
4261.7,0.19968
4262.6,0.20134
4263.5,0.20533
4264.4,0.20849
4265.3,0.21143
4266.2,0.21272
4267.1,0.21249
4268.0,0.21073
4268.9,0.20697
4269.8,0.20144
4270.7,0.19629
4271.6,0.19075
4272.5,0.18728
4273.4,0.18424
4274.3,0.18517
4275.2,0.18767
4276.1,0.19063
4277.0,0.19535
4277.9,0.19931
4278.8,0.20217
4279.7,0.20426
4280.6,0.20387
4281.5,0.20355
4282.4,0.20289
4283.31,0.20069
4284.21,0.20014
4285.11,0.1989
4286.01,0.19656
4286.91,0.19313
4287.81,0.19009
4288.71,0.18639
4289.61,0.18418
4290.51,0.18352
4291.41,0.1828
4292.31,0.18426
4293.21,0.18572
4294.11,0.1874
4295.01,0.18852
4295.91,0.18783
4296.81,0.18384
4297.71,0.17945
4298.61,0.17332
4299.51,0.16711
4300.41,0.16143
4301.31,0.15777
4302.21,0.15668
4303.11,0.15557
4304.01,0.15547
4304.91,0.15563
4305.81,0.15529
4306.71,0.1536
4307.61,0.15296
4308.51,0.15192
4309.41,0.15187
4310.31,0.1532
4311.21,0.15627
4312.11,0.16221
4313.01,0.16854
4313.91,0.17699
4314.81,0.18739
4315.71,0.19672
4316.61,0.20709
4317.51,0.21617
4318.41,0.22242
4319.31,0.2257
4320.21,0.22593
4321.12,0.22291
4322.02,0.21866
4322.92,0.21142
4323.82,0.20505
4324.72,0.19896
4325.62,0.19507
4326.52,0.19325
4327.42,0.19604
4328.32,0.20017
4329.22,0.20677
4330.12,0.21252
4331.02,0.21729
4331.92,0.22077
4332.82,0.22288
4333.72,0.22117
4334.62,0.22002
4335.52,0.21785
4336.42,0.21193
4337.32,0.20438
4338.22,0.19493
4339.12,0.18632
4340.02,0.17906
4340.92,0.17494
4341.82,0.17418
4342.72,0.17679
4343.62,0.18336
4344.52,0.19075
4345.42,0.19965
4346.32,0.20603
4347.22,0.21098
4348.12,0.21451
4349.02,0.21575
4349.92,0.21628
4350.82,0.21385
4351.72,0.21158
4352.62,0.20923
4353.52,0.20839
4354.42,0.20876
4355.32,0.21085
4356.22,0.21345
4357.12,0.21577
4358.02,0.21865
4358.92,0.2187
4359.83,0.22164
4360.73,0.2234
4361.63,0.22398
4362.53,0.2263
4363.43,0.22842
4364.33,0.2295
4365.23,0.23037
4366.13,0.2308
4367.03,0.22912
4367.93,0.22585
4368.83,0.22561
4369.73,0.22298
4370.63,0.22082
4371.53,0.21923
4372.43,0.21744
4373.33,0.21608
4374.23,0.21314
4375.13,0.2127
4376.03,0.21268
4376.93,0.21249
4377.83,0.21454
4378.73,0.21691
4379.63,0.21767
4380.53,0.2162
4381.43,0.21221
4382.33,0.20702
4383.23,0.20236
4384.13,0.19713
4385.03,0.19408
4385.93,0.19359
4386.83,0.19638
4387.73,0.20015
4388.63,0.20404
4389.53,0.20723
4390.43,0.21088
4391.33,0.21316
4392.23,0.21451
4393.13,0.21653
4394.03,0.21731
4394.93,0.21826
4395.83,0.21936
4396.73,0.22034
4397.64,0.22146
4398.54,0.2217
4399.44,0.22136
4400.34,0.22037
4401.24,0.2192
4402.14,0.21692
4403.04,0.21506
4403.94,0.21376
4404.84,0.21158
4405.74,0.21096
4406.64,0.21075
4407.54,0.21167
4408.44,0.214
4409.34,0.21745
4410.24,0.22023
4411.14,0.22336
4412.04,0.22764
4412.94,0.22891
4413.84,0.22803
4414.74,0.22857
4415.64,0.22639
4416.54,0.22406
4417.44,0.22492
4418.34,0.22624
4419.24,0.22758
4420.14,0.23023
4421.04,0.23156
4421.94,0.2327
4422.84,0.23254
4423.74,0.2312
4424.64,0.23129
4425.54,0.23072
4426.44,0.22983
4427.34,0.22928
4428.24,0.22943
4429.14,0.22939
4430.04,0.22969
4430.94,0.22972
4431.84,0.22899
4432.74,0.22751
4433.64,0.22688
4434.54,0.2255
4435.45,0.22404
4436.35,0.22549
4437.25,0.22697
4438.15,0.22906
4439.05,0.2328
4439.95,0.23466
4440.85,0.23328
4441.75,0.23262
4442.65,0.23117
4443.55,0.23106
4444.45,0.22906
4445.35,0.22998
4446.25,0.23231
4447.15,0.2339
4448.05,0.23487
4448.95,0.23725
4449.85,0.236
4450.75,0.23502
4451.65,0.23389
4452.55,0.23307
4453.45,0.2289
4454.35,0.22671
4455.25,0.22233
4456.15,0.2204
4457.05,0.21845
4457.95,0.21733
4458.85,0.21777
4459.75,0.21789
4460.65,0.21801
4461.55,0.2206
4462.45,0.22042
4463.35,0.22309
4464.25,0.22498
4465.15,0.22712
4466.05,0.22962
4466.95,0.23014
4467.85,0.23165
4468.75,0.23088
4469.65,0.23142
4470.55,0.23172
4471.45,0.23452
4472.35,0.23591
4473.25,0.23917
4474.16,0.2432
4475.06,0.24518
4475.96,0.24709
4476.86,0.24876
4477.76,0.24718
4478.66,0.24624
4479.56,0.24499
4480.46,0.24266
4481.36,0.24078
4482.26,0.23833
4483.16,0.2387
4484.06,0.23858
4484.96,0.24106
4485.86,0.24293
4486.76,0.24389
4487.66,0.24412
4488.56,0.24327
4489.46,0.24175
4490.36,0.24126
4491.26,0.23987
4492.16,0.23972
4493.06,0.24121
4493.96,0.24034
4494.86,0.23924
4495.76,0.23983
4496.66,0.24029
4497.56,0.24098
4498.46,0.24278
4499.36,0.24415
4500.26,0.24704
4501.16,0.2482
4502.06,0.25093
4502.96,0.25255
4503.86,0.25554
4504.76,0.25625
4505.66,0.25849
4506.56,0.25829
4507.46,0.25975
4508.36,0.26
4509.26,0.25977
4510.17,0.25845
4511.06,0.25916
4511.97,0.25711
4512.87,0.25504
4513.77,0.25322
4514.67,0.2537
4515.57,0.25108
4516.47,0.25027
4517.37,0.24893
4518.27,0.24924
4519.17,0.24831
4520.07,0.24826
4520.97,0.24781
4521.87,0.24692
4522.77,0.24579
4523.67,0.24496
4524.57,0.24075
4525.47,0.23792
4526.37,0.235
4527.27,0.23203
4528.17,0.23004
4529.07,0.22748
4529.97,0.22593
4530.87,0.22681
4531.77,0.22651
4532.67,0.2264
4533.57,0.22623
4534.47,0.22737
4535.37,0.22868
4536.27,0.23008
4537.17,0.2326
4538.07,0.23727
4538.97,0.24143
4539.87,0.24432
4540.77,0.24651
4541.67,0.24699
4542.57,0.24625
4543.47,0.24619
4544.37,0.24506
4545.27,0.24481
4546.17,0.24248
4547.07,0.24152
4547.97,0.23993
4548.88,0.23807
4549.77,0.23801
4550.68,0.23726
4551.58,0.23638
4552.48,0.23501
4553.38,0.23661
4554.28,0.23603
4555.18,0.23711
4556.08,0.23829
4556.98,0.24113
4557.88,0.24347
4558.78,0.24725
4559.68,0.24949
4560.58,0.25109
4561.48,0.2533
4562.38,0.253
4563.28,0.25091
4564.18,0.25108
4565.08,0.25007
4565.98,0.2487
4566.88,0.25018
4567.78,0.25069
4568.68,0.25062
4569.58,0.25239
4570.48,0.25252
4571.38,0.25139
4572.28,0.25064
4573.18,0.25092
4574.08,0.25151
4574.98,0.25154
4575.88,0.25296
4576.78,0.25257
4577.68,0.25223
4578.58,0.25058
4579.48,0.24842
4580.38,0.24706
4581.28,0.24527
4582.18,0.24319
4583.08,0.24343
4583.98,0.24393
4584.88,0.24346
4585.78,0.2448
4586.69,0.24576
4587.58,0.24777
4588.49,0.24817
4589.39,0.25039
4590.29,0.25143
4591.19,0.25079
4592.09,0.24959
4592.99,0.24916
4593.89,0.24879
4594.79,0.2471
4595.69,0.24733
4596.59,0.24692
4597.49,0.24787
4598.39,0.24854
4599.29,0.24819
4600.19,0.24903
4601.09,0.24823
4601.99,0.24781
4602.89,0.24856
4603.79,0.2476
4604.69,0.24948
4605.59,0.25117
4606.49,0.25224
4607.39,0.25384
4608.29,0.25583
4609.19,0.25693
4610.09,0.25811
4610.99,0.25906
4611.89,0.25878
4612.79,0.25823
4613.69,0.25866
4614.59,0.2573
4615.49,0.25838
4616.39,0.25604
4617.29,0.25762
4618.19,0.2575
4619.09,0.25731
4619.99,0.25735
4620.89,0.25852
4621.79,0.25865
4622.69,0.25764
4623.59,0.25862
4624.5,0.25968
4625.4,0.25956
4626.3,0.25946
4627.2,0.25862
4628.1,0.25867
4629.0,0.25781
4629.9,0.25732
4630.8,0.2575
4631.7,0.25824
4632.6,0.25764
4633.5,0.25679
4634.4,0.25622
4635.3,0.25601
4636.2,0.2548
4637.1,0.25332
4638.0,0.25351
4638.9,0.2525
4639.8,0.25345
4640.7,0.25334
4641.6,0.2538
4642.5,0.25496
4643.4,0.2545
4644.3,0.25453
4645.2,0.25355
4646.1,0.25247
4647.0,0.25017
4647.9,0.24905
4648.8,0.24866
4649.7,0.24968
4650.6,0.24968
4651.5,0.25054
4652.4,0.25024
4653.3,0.25203
4654.2,0.25158
4655.1,0.2517
4656.0,0.25018
4656.9,0.25264
4657.8,0.25398
4658.7,0.2575
4659.6,0.2581
4660.5,0.26045
4661.4,0.26066
4662.3,0.2614
4663.21,0.26019
4664.11,0.25698
4665.01,0.25324
4665.91,0.25022
4666.81,0.24718
4667.71,0.24434
4668.61,0.2427
4669.51,0.24294
4670.41,0.24332
4671.31,0.24508
4672.21,0.24871
4673.11,0.24964
4674.01,0.25207
4674.91,0.25509
4675.81,0.25523
4676.71,0.25692
4677.61,0.25572
4678.51,0.25437
4679.41,0.25435
4680.31,0.25339
4681.21,0.25246
4682.11,0.25128
4683.01,0.25135
4683.91,0.25262
4684.81,0.25275
4685.71,0.25342
4686.61,0.25558
4687.51,0.25499
4688.41,0.25617
4689.31,0.25668
4690.21,0.25633
4691.11,0.25631
4692.01,0.25637
4692.91,0.25755
4693.81,0.25791
4694.71,0.25984
4695.61,0.26039
4696.51,0.26027
4697.41,0.25968
4698.31,0.25816
4699.21,0.25589
4700.12,0.25578
4701.02,0.25268
4701.92,0.25055
4702.82,0.24991
4703.72,0.24925
4704.62,0.24963
4705.52,0.24841
4706.42,0.24803
4707.32,0.24827
4708.22,0.24814
4709.12,0.24859
4710.02,0.24914
4710.92,0.25026
4711.82,0.25156
4712.72,0.25325
4713.62,0.2552
4714.52,0.25612
4715.42,0.25642
4716.32,0.25819
4717.22,0.25908
4718.12,0.25917
4719.02,0.26063
4719.92,0.26208
4720.82,0.26405
4721.72,0.26478
4722.62,0.26489
4723.52,0.26376
4724.42,0.2631
4725.32,0.26344
4726.22,0.26189
4727.12,0.25896
4728.02,0.2575
4728.92,0.2556
4729.82,0.25332
4730.72,0.25351
4731.62,0.25312
4732.52,0.25326
4733.42,0.25346
4734.32,0.25463
4735.22,0.25599
4736.12,0.25608
4737.02,0.25564
4737.92,0.2576
4738.83,0.25659
4739.73,0.2579
4740.63,0.25787
4741.53,0.25775
4742.43,0.25919
4743.33,0.26003
4744.23,0.25985
4745.13,0.26018
4746.03,0.26184
4746.93,0.26201
4747.83,0.26326
4748.73,0.26466
4749.63,0.26409
4750.53,0.26367
4751.43,0.26426
4752.33,0.26313
4753.23,0.2615
4754.13,0.2605
4755.03,0.25896
4755.93,0.25756
4756.83,0.25817
4757.73,0.2565
4758.63,0.25666
4759.53,0.25676
4760.43,0.25477
4761.33,0.2542
4762.23,0.25347
4763.13,0.2523
4764.03,0.25146
4764.93,0.24897
4765.83,0.24982
4766.73,0.24934
4767.63,0.24921
4768.53,0.25186
4769.43,0.25192
4770.33,0.25462
4771.23,0.25572
4772.13,0.25669
4773.03,0.25725
4773.93,0.25866
4774.83,0.26015
4775.73,0.261
4776.64,0.26094
4777.54,0.26112
4778.44,0.26185
4779.34,0.2599
4780.24,0.25984
4781.14,0.25854
4782.04,0.25846
4782.94,0.25754
4783.84,0.25599
4784.74,0.25647
4785.64,0.25404
4786.54,0.25359
4787.44,0.25277
4788.34,0.25352
4789.24,0.25313
4790.14,0.25286
4791.04,0.25461
4791.94,0.25635
4792.84,0.2579
4793.74,0.25984
4794.64,0.26119
4795.54,0.26304
4796.44,0.2634
4797.34,0.26318
4798.24,0.26366
4799.14,0.2616
4800.04,0.26096
4800.94,0.26072
4801.84,0.26096
4802.74,0.26055
4803.64,0.26056
4804.54,0.26024
4805.44,0.26068
4806.34,0.26028
4807.24,0.25978
4808.14,0.25965
4809.04,0.26033
4809.94,0.26028
4810.84,0.26027
4811.74,0.26089
4812.64,0.26202
4813.54,0.26259
4814.45,0.26287
4815.35,0.26467
4816.25,0.26583
4817.15,0.26518
4818.05,0.26684
4818.95,0.26764
4819.85,0.26627
4820.75,0.26536
4821.65,0.26381
4822.55,0.26265
4823.45,0.26125
4824.35,0.26152
4825.25,0.26137
4826.15,0.25985
4827.05,0.25943
4827.95,0.25974
4828.85,0.25978
4829.75,0.26004
4830.65,0.25775
4831.55,0.25867
4832.45,0.25874
4833.35,0.25917
4834.25,0.25836
4835.15,0.25956
4836.05,0.26002
4836.95,0.2599
4837.85,0.25968
