wave,flux
3700.85,0.14417
3701.75,0.14111
3702.65,0.13651
3703.55,0.12926
3704.45,0.12075
3705.35,0.11321
3706.25,0.10745
3707.15,0.10431
3708.05,0.10398
3708.96,0.10627
3709.86,0.11038
3710.76,0.11622
3711.66,0.12361
3712.56,0.13142
3713.46,0.13875
3714.36,0.14317
3715.26,0.14552
3716.16,0.14393
3717.06,0.13947
3717.96,0.13154
3718.86,0.12077
3719.76,0.1105
3720.66,0.1015
3721.56,0.096078
3722.46,0.095636
3723.36,0.099419
3724.26,0.10621
3725.16,0.11323
3726.06,0.11991
3726.96,0.12335
3727.86,0.12439
3728.76,0.12365
3729.66,0.12267
3730.56,0.11932
3731.46,0.11482
3732.36,0.10811
3733.26,0.099334
3734.16,0.090526
3735.06,0.083762
3735.96,0.081002
3736.86,0.081861
3737.76,0.086626
3738.66,0.094944
3739.56,0.10443
3740.46,0.1126
3741.36,0.11782
3742.26,0.11879
3743.16,0.11602
3744.06,0.11079
3744.96,0.10454
3745.86,0.097921
3746.76,0.091964
3747.67,0.087198
3748.57,0.083811
3749.47,0.083173
3750.37,0.086025
3751.27,0.09299
3752.17,0.10253
3753.07,0.113
3753.97,0.12275
3754.87,0.1294
3755.77,0.13233
3756.67,0.13121
3757.57,0.12603
3758.47,0.12039
3759.37,0.11529
3760.27,0.11275
3761.17,0.1128
3762.07,0.11496
3762.97,0.11681
3763.87,0.1185
3764.77,0.11923
3765.67,0.11936
3766.57,0.11842
3767.47,0.11842
3768.37,0.11842
3769.27,0.11961
3770.17,0.12141
3771.07,0.12431
3771.97,0.1278
3772.87,0.13206
3773.77,0.13608
3774.67,0.14012
3775.57,0.14227
3776.47,0.14407
3777.37,0.14569
3778.27,0.14781
3779.17,0.15119
3780.07,0.15368
3780.97,0.15723
3781.87,0.15857
3782.77,0.15975
3783.67,0.1599
3784.57,0.15701
3785.47,0.15215
3786.38,0.1459
3787.28,0.13899
3788.18,0.13293
3789.08,0.12775
3789.98,0.12533
3790.88,0.12462
3791.78,0.12431
3792.68,0.12338
3793.58,0.12122
3794.48,0.11837
3795.38,0.11454
3796.28,0.11037
3797.18,0.10717
3798.08,0.10461
3798.98,0.10546
3799.88,0.10834
3800.78,0.1145
3801.68,0.12183
3802.58,0.1302
3803.48,0.13724
3804.38,0.14242
3805.28,0.14518
3806.18,0.14603
3807.08,0.14564
3807.98,0.14479
3808.88,0.14503
3809.78,0.14654
3810.68,0.14734
3811.58,0.14666
3812.48,0.14303
3813.38,0.13755
3814.28,0.1307
3815.18,0.12459
3816.08,0.1204
3816.98,0.11752
3817.88,0.11621
3818.78,0.11515
3819.68,0.11284
3820.58,0.11088
3821.48,0.10896
3822.38,0.10724
3823.28,0.10585
3824.18,0.10356
3825.09,0.09983
3825.99,0.096833
3826.89,0.093501
3827.79,0.091713
3828.69,0.090651
3829.59,0.090353
3830.49,0.090136
3831.39,0.088887
3832.29,0.086885
3833.19,0.083868
3834.09,0.081702
3834.99,0.080365
3835.89,0.080556
3836.79,0.080678
3837.69,0.081509
3838.59,0.082767
3839.49,0.084853
3840.39,0.088469
3841.29,0.09325
3842.19,0.10093
3843.09,0.1093
3843.99,0.11595
3844.89,0.12225
3845.79,0.12743
3846.69,0.1297
3847.59,0.13153
3848.49,0.13194
3849.39,0.13107
3850.29,0.13115
3851.19,0.13073
3852.09,0.13049
3852.99,0.13015
3853.89,0.12943
3854.79,0.12768
3855.69,0.12503
3856.59,0.12136
3857.49,0.1174
3858.39,0.11383
3859.29,0.11066
3860.19,0.11022
3861.09,0.11212
3861.99,0.11681
3862.9,0.12173
3863.8,0.12795
3864.7,0.13128
3865.6,0.13333
3866.5,0.13382
3867.4,0.13281
3868.3,0.12946
3869.2,0.12733
3870.1,0.12351
3871.0,0.12044
3871.9,0.11782
3872.8,0.11653
3873.7,0.11793
3874.6,0.12051
3875.5,0.12386
3876.4,0.12563
3877.3,0.12485
3878.2,0.12353
3879.1,0.12199
3880.0,0.12045
3880.9,0.11875
3881.8,0.11931
3882.7,0.11914
3883.6,0.11891
3884.5,0.11772
3885.4,0.11505
3886.3,0.112
3887.2,0.10984
3888.1,0.10785
3889.0,0.10775
3889.9,0.11065
3890.8,0.11543
3891.7,0.12159
3892.6,0.12833
3893.5,0.13373
3894.4,0.13713
3895.3,0.13919
3896.2,0.14113
3897.1,0.14204
3898.0,0.14276
3898.9,0.14402
3899.8,0.14436
3900.7,0.14405
3901.6,0.14421
3902.51,0.14368
3903.41,0.14242
3904.31,0.14044
3905.21,0.1388
3906.11,0.13899
3907.01,0.1412
3907.91,0.14413
3908.81,0.14907
3909.71,0.15427
3910.61,0.15943
3911.51,0.16312
3912.41,0.16516
3913.31,0.16578
3914.21,0.16545
3915.11,0.16415
3916.01,0.1612
3916.91,0.15868
3917.81,0.15406
3918.71,0.15058
3919.61,0.14543
3920.51,0.14087
3921.41,0.13709
3922.31,0.13406
3923.21,0.1321
3924.11,0.13068
3925.01,0.1279
3925.91,0.12364
3926.81,0.11763
3927.71,0.10863
3928.61,0.098332
3929.51,0.087499
3930.41,0.07653
3931.31,0.066462
3932.21,0.05757
3933.11,0.050777
3934.01,0.047175
3934.91,0.046752
3935.81,0.049962
3936.71,0.056007
3937.61,0.064938
3938.51,0.075148
3939.42,0.086018
3940.32,0.095818
3941.22,0.10349
3942.12,0.11016
3943.02,0.11465
3943.92,0.11935
3944.82,0.12345
3945.72,0.1289
3946.62,0.13371
3947.52,0.13995
3948.42,0.14552
3949.32,0.14999
3950.22,0.15335
3951.12,0.15613
3952.02,0.15837
3952.92,0.16005
3953.82,0.16059
3954.72,0.16134
3955.62,0.16053
3956.52,0.15895
3957.42,0.15685
3958.32,0.15481
3959.22,0.15087
3960.12,0.14508
3961.02,0.13775
3961.92,0.12891
3962.82,0.11883
3963.72,0.10876
3964.62,0.098224
3965.52,0.087931
3966.42,0.078022
3967.32,0.068789
3968.22,0.061155
3969.12,0.056727
3970.02,0.056265
3970.92,0.059683
3971.82,0.066601
3972.72,0.076454
3973.62,0.088212
3974.52,0.10027
3975.42,0.112
3976.32,0.1236
3977.22,0.13477
3978.13,0.14459
3979.03,0.1537
3979.93,0.16064
3980.83,0.16645
3981.73,0.17055
3982.63,0.1719
3983.53,0.17262
3984.43,0.17432
3985.33,0.17618
3986.23,0.17808
3987.13,0.18139
3988.03,0.18271
3988.93,0.18602
3989.83,0.18764
3990.73,0.1901
3991.63,0.19163
3992.53,0.19229
3993.43,0.1932
3994.33,0.19307
3995.23,0.19163
3996.13,0.1897
3997.03,0.18749
3997.93,0.18809
3998.83,0.18874
3999.73,0.19177
4000.63,0.19608
4001.53,0.19965
4002.43,0.20045
4003.33,0.1996
4004.23,0.19698
4005.13,0.19347
4006.03,0.18976
4006.93,0.18926
4007.83,0.18925
4008.73,0.19137
4009.63,0.19598
4010.53,0.1994
4011.43,0.20178
4012.33,0.20436
4013.23,0.20604
4014.13,0.20793
4015.03,0.20754
4015.93,0.20874
4016.84,0.2088
4017.74,0.20912
4018.64,0.20926
4019.54,0.20869
4020.44,0.21055
4021.34,0.21096
4022.24,0.21097
4023.14,0.21089
4024.04,0.20908
4024.94,0.21014
4025.84,0.20979
4026.74,0.21125
4027.64,0.21261
4028.54,0.21181
4029.44,0.20858
4030.34,0.20278
4031.24,0.19673
4032.14,0.18971
4033.04,0.18608
4033.94,0.18504
4034.84,0.18729
4035.74,0.19279
4036.64,0.19949
4037.54,0.2071
4038.44,0.21193
4039.34,0.21585
4040.24,0.21587
4041.14,0.21579
4042.04,0.21191
4042.94,0.20563
4043.84,0.19945
4044.74,0.19095
4045.64,0.18454
4046.54,0.18195
4047.44,0.18347
4048.34,0.18816
4049.24,0.19553
4050.14,0.20262
4051.04,0.20808
4051.94,0.21069
4052.84,0.21025
4053.74,0.20807
4054.65,0.20495
4055.55,0.20254
4056.45,0.19811
4057.35,0.19706
4058.25,0.19494
4059.15,0.19566
4060.05,0.19415
4060.95,0.19477
4061.85,0.19352
4062.75,0.19149
4063.65,0.18659
4064.55,0.18429
4065.45,0.18355
4066.35,0.18685
4067.25,0.19022
4068.15,0.19352
4069.05,0.19747
4069.95,0.19883
4070.85,0.19922
4071.75,0.19916
4072.65,0.19773
4073.55,0.19636
4074.45,0.19495
4075.35,0.19367
4076.25,0.19212
4077.15,0.18868
4078.05,0.18814
4078.95,0.1893
4079.85,0.19197
4080.75,0.19819
4081.65,0.20255
4082.55,0.2071
4083.45,0.20909
4084.35,0.21008
4085.25,0.21202
4086.15,0.21352
4087.05,0.21664
4087.95,0.22023
4088.85,0.22355
4089.75,0.22629
4090.65,0.22654
4091.55,0.22639
4092.45,0.2244
4093.36,0.22071
4094.26,0.21639
4095.16,0.21267
4096.06,0.20708
4096.96,0.20116
4097.86,0.19602
4098.76,0.18904
4099.66,0.18296
4100.56,0.17569
4101.46,0.17081
4102.36,0.16956
4103.26,0.16948
4104.16,0.17235
4105.06,0.18027
4105.96,0.18676
4106.86,0.19429
4107.76,0.20019
4108.66,0.2032
4109.56,0.20512
4110.46,0.20631
4111.36,0.20641
4112.26,0.20856
4113.16,0.20972
4114.06,0.21228
4114.96,0.21533
4115.86,0.217
4116.76,0.21763
4117.66,0.21741
4118.56,0.21537
4119.46,0.21392
4120.36,0.2121
4121.26,0.20983
4122.16,0.21078
4123.06,0.21133
4123.96,0.21228
4124.86,0.21306
4125.76,0.21392
4126.66,0.21347
4127.56,0.21223
4128.46,0.20965
4129.36,0.20783
4130.26,0.20416
4131.17,0.20148
4132.06,0.19804
4132.97,0.19689
4133.87,0.19603
4134.77,0.19764
4135.67,0.20186
4136.57,0.20638
4137.47,0.21134
4138.37,0.21476
4139.27,0.21765
4140.17,0.21733
4141.07,0.21429
4141.97,0.21001
4142.87,0.20494
4143.77,0.20074
4144.67,0.19778
4145.57,0.19668
4146.47,0.1991
4147.37,0.20195
4148.27,0.20444
4149.17,0.20711
4150.07,0.20646
4150.97,0.20597
4151.87,0.20467
4152.77,0.2038
4153.67,0.20184
4154.57,0.20132
4155.47,0.20068
4156.37,0.20093
4157.27,0.20246
4158.17,0.20494
4159.07,0.20805
4159.97,0.21178
4160.87,0.21551
4161.77,0.21784
4162.67,0.21948
4163.57,0.2214
4164.47,0.22131
4165.37,0.21947
4166.27,0.21769
4167.17,0.21476
4168.07,0.21327
4168.98,0.21153
4169.88,0.20834
4170.78,0.20647
4171.68,0.20225
4172.58,0.19834
4173.48,0.19395
4174.38,0.19241
4175.28,0.19164
4176.18,0.19285
4177.08,0.19401
4177.98,0.19663
4178.88,0.19829
4179.78,0.20072
4180.68,0.20244
4181.58,0.2032
4182.48,0.20435
4183.38,0.20429
4184.28,0.20667
4185.18,0.20622
4186.08,0.20581
4186.98,0.20627
4187.88,0.20513
4188.78,0.20466
4189.68,0.20693
4190.58,0.20808
4191.48,0.2105
4192.38,0.21202
4193.28,0.21322
4194.18,0.21384
4195.08,0.21155
4195.98,0.20851
4196.88,0.20525
4197.78,0.19917
4198.68,0.19582
4199.58,0.193
4200.48,0.19077
4201.38,0.19149
4202.28,0.19328
4203.18,0.19511
4204.08,0.19885
4204.98,0.203
4205.88,0.20759
4206.79,0.21123
4207.69,0.21537
4208.59,0.2186
4209.49,0.22038
4210.39,0.22084
4211.29,0.22078
4212.19,0.21954
4213.09,0.21836
4213.99,0.21616
4214.89,0.21359
4215.79,0.21172
4216.69,0.21173
4217.59,0.21314
4218.49,0.21602
4219.39,0.21908
4220.29,0.2225
4221.19,0.22342
4222.09,0.21972
4222.99,0.21457
4223.89,0.20548
4224.79,0.19511
4225.69,0.18441
4226.59,0.1765
4227.49,0.17284
4228.39,0.17451
4229.29,0.18133
4230.19,0.19046
4231.09,0.19982
4231.99,0.20708
4232.89,0.21083
4233.79,0.2122
4234.69,0.21088
4235.59,0.20838
4236.49,0.2071
4237.39,0.20587
4238.29,0.20674
4239.19,0.2078
4240.09,0.21029
4240.99,0.21383
4241.89,0.21724
4242.79,0.2212
4243.69,0.22429
4244.59,0.22635
4245.5,0.22626
4246.4,0.22543
4247.3,0.22188
4248.2,0.21776
4249.1,0.21221
4250.0,0.20903
4250.9,0.20604
4251.8,0.20423
4252.7,0.20476
4253.6,0.20688
4254.5,0.20638
4255.4,0.20859
4256.3,0.20967
4257.2,0.20986
4258.1,0.21081
4259.0,0.20915
4259.9,0.2067
4260.8,0.20546
4261.7,0.20731
4262.6,0.20997
4263.5,0.21523
4264.4,0.22104
4265.3,0.22529
4266.2,0.22853
4267.1,0.22923
4268.0,0.22417
4268.9,0.21908
4269.8,0.21139
4270.7,0.2018
4271.6,0.19429
4272.5,0.1881
4273.4,0.18476
4274.3,0.18547
4275.2,0.18869
4276.1,0.19519
4277.0,0.20191
4277.9,0.20874
4278.8,0.21219
4279.7,0.21521
4280.6,0.21635
4281.5,0.21725
4282.4,0.21547
4283.31,0.21407
4284.21,0.21242
4285.11,0.21023
4286.01,0.20776
4286.91,0.20424
4287.81,0.20081
4288.71,0.19647
4289.61,0.1933
4290.51,0.19093
4291.41,0.19023
4292.31,0.19263
4293.21,0.19492
4294.11,0.19685
4295.01,0.19744
4295.91,0.19747
4296.81,0.19347
4297.71,0.18814
4298.61,0.18051
4299.51,0.17269
4300.41,0.16639
4301.31,0.1611
4302.21,0.15879
4303.11,0.15844
4304.01,0.15686
4304.91,0.15712
4305.81,0.15671
4306.71,0.15449
4307.61,0.154
4308.51,0.15153
4309.41,0.15222
4310.31,0.15471
4311.21,0.15965
4312.11,0.16712
4313.01,0.17659
4313.91,0.18873
4314.81,0.20165
4315.71,0.21459
4316.61,0.22731
4317.51,0.23771
4318.41,0.24544
4319.31,0.24994
4320.21,0.24816
4321.12,0.24317
4322.02,0.2367
4322.92,0.22805
4323.82,0.21838
4324.72,0.20873
4325.62,0.20368
4326.52,0.20083
4327.42,0.20336
4328.32,0.21034
4329.22,0.21904
4330.12,0.22746
4331.02,0.23486
4331.92,0.24032
4332.82,0.24356
4333.72,0.24414
4334.62,0.24317
4335.52,0.23953
4336.42,0.23284
4337.32,0.22449
4338.22,0.21369
4339.12,0.20183
4340.02,0.19339
4340.92,0.18939
4341.82,0.18876
4342.72,0.19258
4343.62,0.19914
4344.52,0.2091
4345.42,0.21715
4346.32,0.2246
4347.22,0.23151
4348.12,0.23507
4349.02,0.2369
4349.92,0.23639
4350.82,0.23327
4351.72,0.22968
4352.62,0.22616
4353.52,0.22503
4354.42,0.22495
4355.32,0.2275
4356.22,0.23027
4357.12,0.23375
4358.02,0.23697
4358.92,0.23957
4359.83,0.24107
4360.73,0.2451
4361.63,0.24613
4362.53,0.25012
4363.43,0.25259
4364.33,0.25457
4365.23,0.2555
4366.13,0.2552
4367.03,0.25329
4367.93,0.25024
4368.83,0.24778
4369.73,0.24443
4370.63,0.24158
4371.53,0.23856
4372.43,0.23651
4373.33,0.23429
4374.23,0.23083
4375.13,0.22889
4376.03,0.22851
4376.93,0.22893
4377.83,0.2313
4378.73,0.23319
4379.63,0.23359
4380.53,0.23018
4381.43,0.22548
4382.33,0.21716
4383.23,0.20875
4384.13,0.20107
4385.03,0.19726
4385.93,0.19708
4386.83,0.20106
4387.73,0.20596
4388.63,0.21232
4389.53,0.21799
4390.43,0.22105
4391.33,0.22456
4392.23,0.22681
4393.13,0.22981
4394.03,0.23178
4394.93,0.23372
4395.83,0.23674
4396.73,0.2388
4397.64,0.24048
4398.54,0.24227
4399.44,0.24226
4400.34,0.23989
4401.24,0.23641
4402.14,0.23349
4403.04,0.22946
4403.94,0.22521
4404.84,0.22148
4405.74,0.21883
4406.64,0.21864
4407.54,0.21949
4408.44,0.22395
4409.34,0.22944
4410.24,0.23544
4411.14,0.24132
4412.04,0.24649
4412.94,0.24852
4413.84,0.24794
4414.74,0.24796
4415.64,0.24444
4416.54,0.24283
4417.44,0.24293
4418.34,0.24594
4419.24,0.24864
4420.14,0.25128
4421.04,0.25251
4421.94,0.25331
4422.84,0.25212
4423.74,0.25145
4424.64,0.251
4425.54,0.24817
4426.44,0.24947
4427.34,0.24985
4428.24,0.24971
4429.14,0.24951
4430.04,0.24939
4430.94,0.24873
4431.84,0.24689
4432.74,0.24568
4433.64,0.24213
4434.54,0.24183
4435.45,0.24051
4436.35,0.24177
4437.25,0.24495
4438.15,0.2475
4439.05,0.25113
4439.95,0.25402
4440.85,0.25506
4441.75,0.25347
4442.65,0.25234
4443.55,0.25143
4444.45,0.25093
4445.35,0.25181
4446.25,0.25629
4447.15,0.2584
4448.05,0.26165
4448.95,0.26242
4449.85,0.26316
4450.75,0.26017
4451.65,0.25949
4452.55,0.25595
4453.45,0.25185
4454.35,0.24569
4455.25,0.24051
4456.15,0.237
4457.05,0.23249
4457.95,0.23101
4458.85,0.22998
4459.75,0.22991
4460.65,0.23031
4461.55,0.23136
4462.45,0.23269
4463.35,0.23647
4464.25,0.23977
4465.15,0.2443
4466.05,0.24681
4466.95,0.24828
4467.85,0.24962
4468.75,0.25093
4469.65,0.25143
4470.55,0.25311
4471.45,0.25608
4472.35,0.25906
4473.25,0.26269
4474.16,0.26753
4475.06,0.27102
4475.96,0.27372
4476.86,0.2758
4477.76,0.2754
4478.66,0.27328
4479.56,0.27096
4480.46,0.26761
4481.36,0.26368
4482.26,0.26006
4483.16,0.26067
4484.06,0.26301
4484.96,0.265
4485.86,0.26868
4486.76,0.27148
4487.66,0.27122
4488.56,0.27016
4489.46,0.26851
4490.36,0.26569
4491.26,0.26321
4492.16,0.26221
4493.06,0.26103
4493.96,0.26073
4494.86,0.26022
4495.76,0.26071
4496.66,0.26119
4497.56,0.26334
4498.46,0.2661
4499.36,0.26902
4500.26,0.27257
4501.16,0.27624
4502.06,0.27824
4502.96,0.28192
4503.86,0.28572
4504.76,0.28785
4505.66,0.29053
4506.56,0.29247
4507.46,0.29102
4508.36,0.2926
4509.26,0.29136
4510.17,0.29019
4511.06,0.28758
4511.97,0.28635
4512.87,0.2858
4513.77,0.28226
4514.67,0.27947
4515.57,0.27919
4516.47,0.27675
4517.37,0.27559
4518.27,0.27702
4519.17,0.2764
4520.07,0.27778
4520.97,0.27666
4521.87,0.27717
4522.77,0.2753
4523.67,0.27285
4524.57,0.26783
4525.47,0.26277
4526.37,0.25815
4527.27,0.25223
4528.17,0.24782
4529.07,0.24472
4529.97,0.24304
4530.87,0.24192
4531.77,0.24249
4532.67,0.24407
4533.57,0.24561
4534.47,0.24762
4535.37,0.25038
4536.27,0.25292
4537.17,0.25729
4538.07,0.26216
4538.97,0.2673
4539.87,0.27021
4540.77,0.27098
4541.67,0.27251
4542.57,0.2723
4543.47,0.27299
4544.37,0.27029
4545.27,0.27064
4546.17,0.26815
4547.07,0.2666
4547.97,0.26544
4548.88,0.26291
4549.77,0.26241
4550.68,0.26173
4551.58,0.26024
4552.48,0.2606
4553.38,0.26149
4554.28,0.26152
4555.18,0.26312
4556.08,0.26527
4556.98,0.26862
4557.88,0.27301
4558.78,0.27568
4559.68,0.28049
4560.58,0.28285
4561.48,0.28361
4562.38,0.283
4563.28,0.28075
4564.18,0.28027
4565.08,0.27736
4565.98,0.27705
4566.88,0.27776
4567.78,0.27823
4568.68,0.27882
4569.58,0.28003
4570.48,0.28259
4571.38,0.28264
4572.28,0.28119
4573.18,0.28176
4574.08,0.28271
4574.98,0.28239
4575.88,0.28275
4576.78,0.28272
4577.68,0.28101
4578.58,0.27949
4579.48,0.27637
4580.38,0.27119
4581.28,0.27001
4582.18,0.26744
4583.08,0.26682
4583.98,0.2663
4584.88,0.26809
4585.78,0.26905
4586.69,0.27136
4587.58,0.27215
4588.49,0.27586
4589.39,0.27553
4590.29,0.27796
4591.19,0.27696
4592.09,0.27645
4592.99,0.27528
4593.89,0.27253
4594.79,0.27008
4595.69,0.26974
4596.59,0.27004
4597.49,0.26929
4598.39,0.26879
4599.29,0.27051
4600.19,0.27028
4601.09,0.27109
4601.99,0.27102
4602.89,0.27063
4603.79,0.27227
4604.69,0.27259
4605.59,0.27596
4606.49,0.27835
4607.39,0.28156
4608.29,0.28585
4609.19,0.2883
4610.09,0.28951
4610.99,0.29179
4611.89,0.29098
4612.79,0.28975
4613.69,0.29111
4614.59,0.29038
4615.49,0.28989
4616.39,0.29077
4617.29,0.28914
4618.19,0.29
4619.09,0.29074
4619.99,0.2915
4620.89,0.29106
4621.79,0.2907
4622.69,0.29222
4623.59,0.29098
4624.5,0.29101
4625.4,0.29198
4626.3,0.29165
4627.2,0.29155
4628.1,0.29001
4629.0,0.29049
4629.9,0.28797
4630.8,0.28921
4631.7,0.28981
4632.6,0.28818
4633.5,0.28605
4634.4,0.28549
4635.3,0.28355
4636.2,0.28136
4637.1,0.27804
4638.0,0.27739
4638.9,0.275
4639.8,0.27383
4640.7,0.27582
4641.6,0.27525
4642.5,0.27627
4643.4,0.27422
4644.3,0.27414
4645.2,0.27239
4646.1,0.26898
4647.0,0.26706
4647.9,0.2656
4648.8,0.26541
4649.7,0.26659
4650.6,0.26922
4651.5,0.27076
4652.4,0.273
4653.3,0.27465
4654.2,0.27569
4655.1,0.27666
4656.0,0.27732
4656.9,0.27829
4657.8,0.28058
4658.7,0.28407
4659.6,0.28718
4660.5,0.28913
4661.4,0.29022
4662.3,0.2881
4663.21,0.28484
4664.11,0.28099
4665.01,0.27621
4665.91,0.27092
4666.81,0.26459
4667.71,0.26148
4668.61,0.25908
4669.51,0.25896
4670.41,0.26055
4671.31,0.26514
4672.21,0.26779
4673.11,0.27261
4674.01,0.27622
4674.91,0.27782
4675.81,0.27959
4676.71,0.27932
4677.61,0.28016
4678.51,0.27926
4679.41,0.27822
4680.31,0.2763
4681.21,0.27522
4682.11,0.27398
4683.01,0.27411
4683.91,0.2756
4684.81,0.27608
4685.71,0.27777
4686.61,0.27902
4687.51,0.27874
4688.41,0.2796
4689.31,0.27878
4690.21,0.27833
4691.11,0.27756
4692.01,0.2783
4692.91,0.27894
4693.81,0.28036
4694.71,0.2813
4695.61,0.28314
4696.51,0.28313
4697.41,0.28158
4698.31,0.28036
4699.21,0.27614
4700.12,0.27315
4701.02,0.27149
4701.92,0.26966
4702.82,0.26804
4703.72,0.26718
4704.62,0.26781
4705.52,0.2668
4706.42,0.26861
4707.32,0.26774
4708.22,0.26905
4709.12,0.26903
4710.02,0.27037
4710.92,0.27229
4711.82,0.27257
4712.72,0.27515
4713.62,0.27668
4714.52,0.27789
4715.42,0.28008
4716.32,0.28117
4717.22,0.285
4718.12,0.28767
4719.02,0.29026
4719.92,0.29271
4720.82,0.29538
4721.72,0.29712
4722.62,0.29598
4723.52,0.29696
4724.42,0.29495
4725.32,0.29251
4726.22,0.28997
4727.12,0.28564
4728.02,0.28275
4728.92,0.27909
4729.82,0.27556
4730.72,0.27435
4731.62,0.2732
4732.52,0.27469
4733.42,0.27513
4734.32,0.27649
4735.22,0.27966
4736.12,0.28117
4737.02,0.28326
4737.92,0.284
4738.83,0.28508
4739.73,0.28587
4740.63,0.28666
4741.53,0.28699
4742.43,0.28842
4743.33,0.2908
4744.23,0.29082
4745.13,0.29143
4746.03,0.29276
4746.93,0.29322
4747.83,0.29407
4748.73,0.29494
4749.63,0.29539
4750.53,0.29487
4751.43,0.29346
4752.33,0.29242
4753.23,0.29069
4754.13,0.28877
4755.03,0.28783
4755.93,0.28535
4756.83,0.28499
4757.73,0.28464
4758.63,0.28394
4759.53,0.28353
4760.43,0.28322
4761.33,0.28144
4762.23,0.27879
4763.13,0.27695
4764.03,0.27436
4764.93,0.2733
4765.83,0.27137
4766.73,0.27037
4767.63,0.27147
4768.53,0.27307
4769.43,0.27628
4770.33,0.2788
4771.23,0.28083
4772.13,0.2832
4773.03,0.2858
4773.93,0.28863
4774.83,0.28968
4775.73,0.29146
4776.64,0.29243
4777.54,0.29396
4778.44,0.29366
4779.34,0.29309
4780.24,0.29167
4781.14,0.29038
4782.04,0.28976
4782.94,0.28734
4783.84,0.28568
4784.74,0.2824
4785.64,0.28149
4786.54,0.2808
4787.44,0.27896
4788.34,0.28034
4789.24,0.2798
4790.14,0.28167
4791.04,0.28288
4791.94,0.28626
4792.84,0.28821
4793.74,0.29297
4794.64,0.29409
4795.54,0.2967
4796.44,0.2978
4797.34,0.29708
4798.24,0.29588
4799.14,0.2951
4800.04,0.293
4800.94,0.29172
4801.84,0.2921
4802.74,0.29188
4803.64,0.29216
4804.54,0.29307
4805.44,0.29218
4806.34,0.29094
4807.24,0.28923
4808.14,0.2888
4809.04,0.28825
4809.94,0.28852
4810.84,0.28927
4811.74,0.28888
4812.64,0.29001
4813.54,0.29233
4814.45,0.2945
4815.35,0.29578
4816.25,0.29585
4817.15,0.29803
4818.05,0.29975
4818.95,0.29987
4819.85,0.30105
4820.75,0.29897
4821.65,0.29742
4822.55,0.29524
4823.45,0.29414
4824.35,0.29144
4825.25,0.2903
4826.15,0.28844
4827.05,0.28853
4827.95,0.29021
4828.85,0.28866
4829.75,0.2881
4830.65,0.28883
4831.55,0.28815
4832.45,0.28732
4833.35,0.28762
4834.25,0.28826
4835.15,0.28908
4836.05,0.28798
