wave,flux
3700.85,0.076873
3701.75,0.075378
3702.65,0.072374
3703.55,0.067605
3704.45,0.062619
3705.35,0.0577
3706.25,0.053886
3707.15,0.051637
3708.05,0.051255
3708.96,0.052735
3709.86,0.055601
3710.76,0.059861
3711.66,0.065069
3712.56,0.070351
3713.46,0.074614
3714.36,0.077381
3715.26,0.077538
3716.16,0.075858
3717.06,0.07169
3717.96,0.065765
3718.86,0.058991
3719.76,0.0526
3720.66,0.047457
3721.56,0.044575
3722.46,0.044397
3723.36,0.047541
3724.26,0.051666
3725.16,0.055877
3726.06,0.059252
3726.96,0.0611
3727.86,0.061366
3728.76,0.06113
3729.66,0.0602
3730.56,0.058588
3731.46,0.055679
3732.36,0.051753
3733.26,0.04687
3734.16,0.042045
3735.06,0.038024
3735.96,0.036394
3736.86,0.036682
3737.76,0.039087
3738.66,0.043508
3739.56,0.048595
3740.46,0.053046
3741.36,0.05582
3742.26,0.05643
3743.16,0.054525
3744.06,0.051424
3744.96,0.047244
3745.86,0.043457
3746.76,0.040539
3747.67,0.038532
3748.57,0.0374
3749.47,0.037823
3750.37,0.040509
3751.27,0.044763
3752.17,0.05029
3753.07,0.056303
3753.97,0.06129
3754.87,0.064844
3755.77,0.066203
3756.67,0.064541
3757.57,0.061354
3758.47,0.057657
3759.37,0.054539
3760.27,0.053229
3761.17,0.053485
3762.07,0.054035
3762.97,0.055023
3763.87,0.055587
3764.77,0.055731
3765.67,0.055884
3766.57,0.05631
3767.47,0.057248
3768.37,0.05858
3769.27,0.060453
3770.17,0.062882
3771.07,0.065639
3771.97,0.068173
3772.87,0.070377
3773.77,0.072501
3774.67,0.073342
3775.57,0.074082
3776.47,0.074306
3777.37,0.074851
3778.27,0.075325
3779.17,0.076202
3780.07,0.077808
3780.97,0.079068
3781.87,0.08043
3782.77,0.080962
3783.67,0.080731
3784.57,0.078878
3785.47,0.075876
3786.38,0.071806
3787.28,0.067621
3788.18,0.063485
3789.08,0.061147
3789.98,0.059889
3790.88,0.059197
3791.78,0.05978
3792.68,0.059604
3793.58,0.059201
3794.48,0.057886
3795.38,0.055968
3796.28,0.054593
3797.18,0.053236
3798.08,0.052321
3798.98,0.052639
3799.88,0.054062
3800.78,0.057025
3801.68,0.06082
3802.58,0.0649
3803.48,0.068259
3804.38,0.070877
3805.28,0.071907
3806.18,0.071687
3807.08,0.071173
3807.98,0.070563
3808.88,0.070644
3809.78,0.07082
3810.68,0.071138
3811.58,0.069899
3812.48,0.068058
3813.38,0.064639
3814.28,0.060508
3815.18,0.056995
3816.08,0.0541
3816.98,0.052294
3817.88,0.050913
3818.78,0.049887
3819.68,0.048781
3820.58,0.047462
3821.48,0.046077
3822.38,0.045462
3823.28,0.044353
3824.18,0.043309
3825.09,0.041791
3825.99,0.040255
3826.89,0.03876
3827.79,0.038031
3828.69,0.038032
3829.59,0.038366
3830.49,0.038681
3831.39,0.038697
3832.29,0.038183
3833.19,0.037596
3834.09,0.037141
3834.99,0.037088
3835.89,0.037434
3836.79,0.037772
3837.69,0.038057
3838.59,0.037948
3839.49,0.038327
3840.39,0.039528
3841.29,0.041621
3842.19,0.045309
3843.09,0.049512
3843.99,0.053274
3844.89,0.056331
3845.79,0.058569
3846.69,0.059904
3847.59,0.060701
3848.49,0.060148
3849.39,0.059384
3850.29,0.058755
3851.19,0.058184
3852.09,0.057927
3852.99,0.057764
3853.89,0.057178
3854.79,0.056058
3855.69,0.054357
3856.59,0.052126
3857.49,0.049758
3858.39,0.047564
3859.29,0.046246
3860.19,0.045625
3861.09,0.046963
3861.99,0.049786
3862.9,0.052769
3863.8,0.055796
3864.7,0.058324
3865.6,0.059002
3866.5,0.059216
3867.4,0.058279
3868.3,0.057132
3869.2,0.055596
3870.1,0.053895
3871.0,0.05205
3871.9,0.050952
3872.8,0.051158
3873.7,0.052272
3874.6,0.054148
3875.5,0.056053
3876.4,0.05758
3877.3,0.057489
3878.2,0.056469
3879.1,0.054843
3880.0,0.053938
3880.9,0.053379
3881.8,0.053678
3882.7,0.054223
3883.6,0.054719
3884.5,0.055011
3885.4,0.054812
3886.3,0.053693
3887.2,0.053223
3888.1,0.053183
3889.0,0.054088
3889.9,0.056702
3890.8,0.059998
3891.7,0.064051
3892.6,0.067311
3893.5,0.069678
3894.4,0.071106
3895.3,0.071498
3896.2,0.071423
3897.1,0.071586
3898.0,0.071554
3898.9,0.071361
3899.8,0.071043
3900.7,0.071041
3901.6,0.070672
3902.51,0.06996
3903.41,0.069084
3904.31,0.068104
3905.21,0.067651
3906.11,0.067584
3907.01,0.068337
3907.91,0.071137
3908.81,0.073908
3909.71,0.077636
3910.61,0.0798
3911.51,0.082454
3912.41,0.083669
3913.31,0.084155
3914.21,0.083991
3915.11,0.083416
3916.01,0.082134
3916.91,0.080398
3917.81,0.077802
3918.71,0.074546
3919.61,0.071668
3920.51,0.068493
3921.41,0.065632
3922.31,0.063812
3923.21,0.062533
3924.11,0.061439
3925.01,0.060451
3925.91,0.058567
3926.81,0.055604
3927.71,0.051312
3928.61,0.046192
3929.51,0.041075
3930.41,0.035893
3931.31,0.031198
3932.21,0.027422
3933.11,0.024598
3934.01,0.023076
3934.91,0.023135
3935.81,0.024635
3936.71,0.027562
3937.61,0.031582
3938.51,0.036549
3939.42,0.041507
3940.32,0.04589
3941.22,0.049444
3942.12,0.052281
3943.02,0.054374
3943.92,0.056291
3944.82,0.058641
3945.72,0.061704
3946.62,0.065019
3947.52,0.068717
3948.42,0.072169
3949.32,0.075129
3950.22,0.077499
3951.12,0.079584
3952.02,0.081126
3952.92,0.082098
3953.82,0.082199
3954.72,0.082076
3955.62,0.082087
3956.52,0.081613
3957.42,0.079915
3958.32,0.077988
3959.22,0.075847
3960.12,0.071975
3961.02,0.067513
3961.92,0.062055
3962.82,0.056581
3963.72,0.05154
3964.62,0.046475
3965.52,0.041754
3966.42,0.037466
3967.32,0.033216
3968.22,0.030087
3969.12,0.028144
3970.02,0.028099
3970.92,0.030069
3971.82,0.033671
3972.72,0.038688
3973.62,0.044499
3974.52,0.050869
3975.42,0.056962
3976.32,0.063137
3977.22,0.06922
3978.13,0.075027
3979.03,0.08005
3979.93,0.084298
3980.83,0.087002
3981.73,0.089232
3982.63,0.090648
3983.53,0.091433
3984.43,0.091774
3985.33,0.093214
3986.23,0.094051
3987.13,0.095496
3988.03,0.09658
3988.93,0.098511
3989.83,0.099392
3990.73,0.10045
3991.63,0.10159
3992.53,0.10185
3993.43,0.10261
3994.33,0.10259
3995.23,0.10157
3996.13,0.10101
3997.03,0.099862
3997.93,0.099985
3998.83,0.10039
3999.73,0.10239
4000.63,0.10451
4001.53,0.10622
4002.43,0.10738
4003.33,0.10749
4004.23,0.10524
4005.13,0.10317
4006.03,0.10094
4006.93,0.10014
4007.83,0.10043
4008.73,0.10204
4009.63,0.10427
4010.53,0.10648
4011.43,0.10905
4012.33,0.11048
4013.23,0.11141
4014.13,0.11204
4015.03,0.11244
4015.93,0.113
4016.84,0.11271
4017.74,0.11285
4018.64,0.11349
4019.54,0.11347
4020.44,0.11373
4021.34,0.11398
4022.24,0.11409
4023.14,0.11338
4024.04,0.11281
4024.94,0.11297
4025.84,0.11349
4026.74,0.11418
4027.64,0.11449
4028.54,0.11368
4029.44,0.11145
4030.34,0.1084
4031.24,0.10386
4032.14,0.10017
4033.04,0.096987
4033.94,0.096035
4034.84,0.097616
4035.74,0.10048
4036.64,0.10506
4037.54,0.10944
4038.44,0.114
4039.34,0.11654
4040.24,0.11667
4041.14,0.11646
4042.04,0.11407
4042.94,0.10994
4043.84,0.10516
4044.74,0.099795
4045.64,0.095344
4046.54,0.093218
4047.44,0.09434
4048.34,0.097338
4049.24,0.10192
4050.14,0.10715
4051.04,0.11127
4051.94,0.11318
4052.84,0.11347
4053.74,0.11268
4054.65,0.11038
4055.55,0.10871
4056.45,0.1062
4057.35,0.10473
4058.25,0.10381
4059.15,0.10328
4060.05,0.10312
4060.95,0.10284
4061.85,0.10128
4062.75,0.099326
4063.65,0.096856
4064.55,0.095813
4065.45,0.095312
4066.35,0.096801
4067.25,0.098989
4068.15,0.10178
4069.05,0.10442
4069.95,0.10553
4070.85,0.10588
4071.75,0.10505
4072.65,0.1043
4073.55,0.10396
4074.45,0.10374
4075.35,0.10307
4076.25,0.10232
4077.15,0.10112
4078.05,0.10096
4078.95,0.10256
4079.85,0.10467
4080.75,0.10833
4081.65,0.11136
4082.55,0.11367
4083.45,0.11503
4084.35,0.11583
4085.25,0.11668
4086.15,0.11796
4087.05,0.11983
4087.95,0.12208
4088.85,0.12515
4089.75,0.12617
4090.65,0.12686
4091.55,0.12571
4092.45,0.12471
4093.36,0.12277
4094.26,0.1207
4095.16,0.11799
4096.06,0.11416
4096.96,0.11136
4097.86,0.10835
4098.76,0.10493
4099.66,0.10194
4100.56,0.099016
4101.46,0.097091
4102.36,0.096393
4103.26,0.096546
4104.16,0.098467
4105.06,0.10169
4105.96,0.10601
4106.86,0.10945
4107.76,0.1122
4108.66,0.11319
4109.56,0.11409
4110.46,0.11427
4111.36,0.11414
4112.26,0.11394
4113.16,0.11536
4114.06,0.11666
4114.96,0.11776
4115.86,0.11894
4116.76,0.11925
4117.66,0.11898
4118.56,0.1178
4119.46,0.11664
4120.36,0.11545
4121.26,0.11448
4122.16,0.11482
4123.06,0.11498
4123.96,0.11616
4124.86,0.11667
4125.76,0.11665
4126.66,0.11621
4127.56,0.11576
4128.46,0.11406
4129.36,0.11253
4130.26,0.11022
4131.17,0.10762
4132.06,0.10573
4132.97,0.10461
4133.87,0.10412
4134.77,0.10512
4135.67,0.10772
4136.57,0.11051
4137.47,0.11382
4138.37,0.11599
4139.27,0.11692
4140.17,0.11684
4141.07,0.115
4141.97,0.11178
4142.87,0.10787
4143.77,0.10521
4144.67,0.10275
4145.57,0.10356
4146.47,0.10478
4147.37,0.10653
4148.27,0.10818
4149.17,0.10933
4150.07,0.10971
4150.97,0.10944
4151.87,0.10864
4152.77,0.10773
4153.67,0.10756
4154.57,0.1066
4155.47,0.10676
4156.37,0.10661
4157.27,0.1079
4158.17,0.10932
4159.07,0.11163
4159.97,0.11403
4160.87,0.1164
4161.77,0.11825
4162.67,0.1197
4163.57,0.12037
4164.47,0.12005
4165.37,0.11869
4166.27,0.11729
4167.17,0.11592
4168.07,0.11418
4168.98,0.11303
4169.88,0.11148
4170.78,0.11066
4171.68,0.10868
4172.58,0.10666
4173.48,0.10438
4174.38,0.10337
4175.28,0.1025
4176.18,0.10275
4177.08,0.10406
4177.98,0.10527
4178.88,0.10679
4179.78,0.10711
4180.68,0.10858
4181.58,0.1087
4182.48,0.1092
4183.38,0.11014
4184.28,0.10996
4185.18,0.11091
4186.08,0.11094
4186.98,0.11075
4187.88,0.10976
4188.78,0.11016
4189.68,0.11
4190.58,0.11131
4191.48,0.11277
4192.38,0.11372
4193.28,0.11487
4194.18,0.1147
4195.08,0.11343
4195.98,0.11135
4196.88,0.10833
4197.78,0.10587
4198.68,0.1034
4199.58,0.10191
4200.48,0.10135
4201.38,0.1011
4202.28,0.10241
4203.18,0.10377
4204.08,0.10621
4204.98,0.10899
4205.88,0.11184
4206.79,0.11512
4207.69,0.1177
4208.59,0.11939
4209.49,0.12019
4210.39,0.12057
4211.29,0.12024
4212.19,0.11976
4213.09,0.11864
4213.99,0.11683
4214.89,0.11589
4215.79,0.1147
4216.69,0.11506
4217.59,0.11569
4218.49,0.11772
4219.39,0.12025
4220.29,0.12177
4221.19,0.12244
4222.09,0.12034
4222.99,0.11601
4223.89,0.1099
4224.79,0.10277
4225.69,0.095685
4226.59,0.090637
4227.49,0.088085
4228.39,0.089708
4229.29,0.093843
4230.19,0.099653
4231.09,0.10555
4231.99,0.11092
4232.89,0.11372
4233.79,0.11469
4234.69,0.11391
4235.59,0.11285
4236.49,0.11173
4237.39,0.11092
4238.29,0.11178
4239.19,0.11252
4240.09,0.11449
4240.99,0.11661
4241.89,0.11973
4242.79,0.12224
4243.69,0.12481
4244.59,0.12618
4245.5,0.12695
4246.4,0.12577
4247.3,0.12364
4248.2,0.12049
4249.1,0.11665
4250.0,0.11308
4250.9,0.11109
4251.8,0.1099
4252.7,0.1093
4253.6,0.10968
4254.5,0.11016
4255.4,0.11152
4256.3,0.11238
4257.2,0.11331
4258.1,0.11327
4259.0,0.11256
4259.9,0.11138
4260.8,0.11132
4261.7,0.11246
4262.6,0.1148
4263.5,0.11827
4264.4,0.1219
4265.3,0.12491
4266.2,0.12641
4267.1,0.12666
4268.0,0.12413
4268.9,0.12014
4269.8,0.11425
4270.7,0.10882
4271.6,0.10343
4272.5,0.098987
4273.4,0.096802
4274.3,0.097087
4275.2,0.099344
4276.1,0.10314
4277.0,0.10794
4277.9,0.1124
4278.8,0.11557
4279.7,0.11812
4280.6,0.11924
4281.5,0.11892
4282.4,0.11819
4283.31,0.11799
4284.21,0.11677
4285.11,0.11586
4286.01,0.11443
4286.91,0.11225
4287.81,0.10975
4288.71,0.10744
4289.61,0.10509
4290.51,0.10383
4291.41,0.10366
4292.31,0.10462
4293.21,0.10594
4294.11,0.10764
4295.01,0.10775
4295.91,0.10747
4296.81,0.10518
4297.71,0.1018
4298.61,0.097164
4299.51,0.092688
4300.41,0.088653
4301.31,0.085701
4302.21,0.084002
4303.11,0.083326
4304.01,0.083053
4304.91,0.082634
4305.81,0.082236
4306.71,0.081052
4307.61,0.079497
4308.51,0.078667
4309.41,0.078557
4310.31,0.080572
4311.21,0.083538
4312.11,0.089119
4313.01,0.095546
4313.91,0.10343
4314.81,0.11205
4315.71,0.12006
4316.61,0.12916
4317.51,0.13588
4318.41,0.14035
4319.31,0.14309
4320.21,0.14224
4321.12,0.13998
4322.02,0.13479
4322.92,0.12906
4323.82,0.12168
4324.72,0.1153
4325.62,0.11147
4326.52,0.11036
4327.42,0.11237
4328.32,0.11668
4329.22,0.12355
4330.12,0.1298
4331.02,0.13511
4331.92,0.13843
4332.82,0.14087
4333.72,0.14279
4334.62,0.14277
4335.52,0.14021
4336.42,0.13665
4337.32,0.13111
4338.22,0.12563
4339.12,0.11973
4340.02,0.11491
4340.92,0.11227
4341.82,0.11241
4342.72,0.11499
4343.62,0.11828
4344.52,0.12384
4345.42,0.12803
4346.32,0.13235
4347.22,0.13588
4348.12,0.13795
4349.02,0.13849
4349.92,0.13687
4350.82,0.13561
4351.72,0.13273
4352.62,0.12975
4353.52,0.1285
4354.42,0.12787
4355.32,0.12903
4356.22,0.13055
4357.12,0.13335
4358.02,0.13603
4358.92,0.13669
4359.83,0.13798
4360.73,0.13937
4361.63,0.14102
4362.53,0.14298
4363.43,0.14536
4364.33,0.14626
4365.23,0.14701
4366.13,0.14658
4367.03,0.14577
4367.93,0.14388
4368.83,0.14188
4369.73,0.13968
4370.63,0.13793
4371.53,0.13653
4372.43,0.13464
4373.33,0.1324
4374.23,0.13088
4375.13,0.12897
4376.03,0.12866
4376.93,0.12919
4377.83,0.13036
4378.73,0.1313
4379.63,0.13089
4380.53,0.12927
4381.43,0.12516
4382.33,0.11901
4383.23,0.11379
4384.13,0.1088
4385.03,0.10628
4385.93,0.10689
4386.83,0.10889
4387.73,0.11262
4388.63,0.11672
4389.53,0.12067
4390.43,0.12361
4391.33,0.12562
4392.23,0.1273
4393.13,0.12874
4394.03,0.13043
4394.93,0.13224
4395.83,0.13457
4396.73,0.13596
4397.64,0.13767
4398.54,0.13819
4399.44,0.13822
4400.34,0.13747
4401.24,0.1354
4402.14,0.1318
4403.04,0.12878
4403.94,0.12523
4404.84,0.12221
4405.74,0.12031
4406.64,0.11983
4407.54,0.12086
4408.44,0.12351
4409.34,0.12784
4410.24,0.13265
4411.14,0.1365
4412.04,0.13983
4412.94,0.14184
4413.84,0.1422
4414.74,0.14069
4415.64,0.13911
4416.54,0.13863
4417.44,0.13882
4418.34,0.14093
4419.24,0.14278
4420.14,0.14429
4421.04,0.14565
4421.94,0.146
4422.84,0.14563
4423.74,0.14375
4424.64,0.14297
4425.54,0.14225
4426.44,0.14217
4427.34,0.14199
4428.24,0.14262
4429.14,0.14301
4430.04,0.14206
4430.94,0.14223
4431.84,0.14142
4432.74,0.14048
4433.64,0.13919
4434.54,0.13775
4435.45,0.13742
4436.35,0.13724
4437.25,0.13977
4438.15,0.14198
4439.05,0.14433
4439.95,0.14583
4440.85,0.14727
4441.75,0.14631
4442.65,0.1456
4443.55,0.14472
4444.45,0.14551
4445.35,0.14699
4446.25,0.1486
4447.15,0.15093
4448.05,0.15292
4448.95,0.15357
4449.85,0.15361
4450.75,0.15249
4451.65,0.15096
4452.55,0.14854
4453.45,0.14509
4454.35,0.14127
4455.25,0.13794
4456.15,0.13452
4457.05,0.13261
4457.95,0.13096
4458.85,0.13042
4459.75,0.12978
4460.65,0.13074
4461.55,0.13172
4462.45,0.13283
4463.35,0.13481
4464.25,0.13764
4465.15,0.1403
4466.05,0.14223
4466.95,0.14351
4467.85,0.14418
4468.75,0.14551
4469.65,0.14658
4470.55,0.14721
4471.45,0.14826
4472.35,0.15104
4473.25,0.15372
4474.16,0.15676
4475.06,0.15924
4475.96,0.16002
4476.86,0.16147
4477.76,0.16146
4478.66,0.16089
4479.56,0.15933
4480.46,0.15615
4481.36,0.15418
4482.26,0.15285
4483.16,0.15202
4484.06,0.15303
4484.96,0.15541
4485.86,0.15796
4486.76,0.15937
4487.66,0.15899
4488.56,0.15898
4489.46,0.15686
4490.36,0.15543
4491.26,0.15398
4492.16,0.15338
4493.06,0.15193
4493.96,0.15146
4494.86,0.15125
4495.76,0.15125
4496.66,0.15191
4497.56,0.15339
4498.46,0.15411
4499.36,0.15735
4500.26,0.16038
4501.16,0.16279
4502.06,0.16465
4502.96,0.16693
4503.86,0.16922
4504.76,0.17043
4505.66,0.17141
4506.56,0.17338
4507.46,0.17391
4508.36,0.1733
4509.26,0.17196
4510.17,0.17161
4511.06,0.17006
4511.97,0.16856
4512.87,0.16775
4513.77,0.1663
4514.67,0.16487
4515.57,0.1637
4516.47,0.16277
4517.37,0.16312
4518.27,0.16274
4519.17,0.16319
4520.07,0.16369
4520.97,0.16411
4521.87,0.16423
4522.77,0.16229
4523.67,0.16068
4524.57,0.15794
4525.47,0.15518
4526.37,0.1505
4527.27,0.14648
4528.17,0.1432
4529.07,0.14149
4529.97,0.14017
4530.87,0.13929
4531.77,0.13968
4532.67,0.14065
4533.57,0.14249
4534.47,0.14311
4535.37,0.14484
4536.27,0.14762
4537.17,0.15045
4538.07,0.15386
4538.97,0.15564
4539.87,0.1583
4540.77,0.15929
4541.67,0.15911
4542.57,0.15972
4543.47,0.15942
4544.37,0.15928
4545.27,0.15919
4546.17,0.15743
4547.07,0.15713
4547.97,0.15592
4548.88,0.15552
4549.77,0.15473
4550.68,0.15434
4551.58,0.15398
4552.48,0.15406
4553.38,0.15375
4554.28,0.15421
4555.18,0.15556
4556.08,0.15709
4556.98,0.15893
4557.88,0.16095
4558.78,0.16441
4559.68,0.16673
4560.58,0.16857
4561.48,0.16895
4562.38,0.16821
4563.28,0.16671
4564.18,0.1659
4565.08,0.16427
4565.98,0.16421
4566.88,0.16499
4567.78,0.16555
4568.68,0.16602
4569.58,0.16674
4570.48,0.16648
4571.38,0.16715
4572.28,0.16743
4573.18,0.16657
4574.08,0.16747
4574.98,0.16862
4575.88,0.16823
4576.78,0.16722
4577.68,0.16679
4578.58,0.16505
4579.48,0.16292
4580.38,0.16069
4581.28,0.15885
4582.18,0.15809
4583.08,0.15693
4583.98,0.15665
4584.88,0.15798
4585.78,0.15895
4586.69,0.16021
4587.58,0.16104
4588.49,0.16245
4589.39,0.16383
4590.29,0.165
4591.19,0.16466
4592.09,0.16382
4592.99,0.16306
4593.89,0.16091
4594.79,0.1602
4595.69,0.15896
4596.59,0.1588
4597.49,0.15871
4598.39,0.15871
4599.29,0.15915
4600.19,0.15926
4601.09,0.1596
4601.99,0.15988
4602.89,0.15991
4603.79,0.16071
4604.69,0.16198
4605.59,0.16281
4606.49,0.16494
4607.39,0.16699
4608.29,0.16899
4609.19,0.17174
4610.09,0.17291
4610.99,0.17429
4611.89,0.17397
4612.79,0.17378
4613.69,0.17281
4614.59,0.17304
4615.49,0.17297
4616.39,0.17329
4617.29,0.17396
4618.19,0.17343
4619.09,0.17426
4619.99,0.1743
4620.89,0.17397
4621.79,0.17419
4622.69,0.17482
4623.59,0.17423
4624.5,0.17392
4625.4,0.17328
4626.3,0.17455
4627.2,0.17343
4628.1,0.17324
4629.0,0.17283
4629.9,0.17233
4630.8,0.17251
4631.7,0.1718
4632.6,0.17251
4633.5,0.17031
4634.4,0.1703
4635.3,0.16772
4636.2,0.16701
4637.1,0.16487
4638.0,0.16357
4638.9,0.16235
4639.8,0.16154
4640.7,0.16156
4641.6,0.16171
4642.5,0.16202
4643.4,0.16144
4644.3,0.1606
4645.2,0.15896
4646.1,0.15731
4647.0,0.15617
4647.9,0.15506
4648.8,0.15463
4649.7,0.15616
4650.6,0.15741
4651.5,0.15871
4652.4,0.16076
4653.3,0.16254
4654.2,0.16322
4655.1,0.16398
4656.0,0.16468
4656.9,0.16557
4657.8,0.16679
4658.7,0.1687
4659.6,0.17087
4660.5,0.17156
4661.4,0.17219
4662.3,0.17162
4663.21,0.16972
4664.11,0.16672
4665.01,0.16275
4665.91,0.15902
4666.81,0.15546
4667.71,0.15293
4668.61,0.15174
4669.51,0.15204
4670.41,0.15322
4671.31,0.15524
4672.21,0.15856
4673.11,0.16075
4674.01,0.1628
4674.91,0.16411
4675.81,0.16534
4676.71,0.16532
4677.61,0.16521
4678.51,0.16485
4679.41,0.16347
4680.31,0.16276
4681.21,0.16174
4682.11,0.16127
4683.01,0.16187
4683.91,0.16163
4684.81,0.16233
4685.71,0.16311
4686.61,0.16385
4687.51,0.16391
4688.41,0.1641
4689.31,0.1641
4690.21,0.16413
4691.11,0.16497
4692.01,0.1644
4692.91,0.16475
4693.81,0.16589
4694.71,0.16609
4695.61,0.16662
4696.51,0.16684
4697.41,0.166
4698.31,0.16439
4699.21,0.16359
4700.12,0.16095
4701.02,0.16024
4701.92,0.15795
4702.82,0.15708
4703.72,0.15669
4704.62,0.15661
4705.52,0.15698
4706.42,0.15775
4707.32,0.15693
4708.22,0.15863
4709.12,0.15868
4710.02,0.15944
4710.92,0.16113
4711.82,0.16149
4712.72,0.16216
4713.62,0.16327
4714.52,0.16402
4715.42,0.16516
4716.32,0.16785
4717.22,0.16832
4718.12,0.17048
4719.02,0.17247
4719.92,0.17548
4720.82,0.17632
4721.72,0.17742
4722.62,0.178
4723.52,0.17718
4724.42,0.17671
4725.32,0.17462
4726.22,0.17332
4727.12,0.17018
4728.02,0.1678
4728.92,0.1653
4729.82,0.16308
4730.72,0.16155
4731.62,0.16113
4732.52,0.16204
4733.42,0.16291
4734.32,0.16401
4735.22,0.16656
4736.12,0.16736
4737.02,0.168
4737.92,0.16827
4738.83,0.16966
4739.73,0.17082
4740.63,0.17085
4741.53,0.17198
4742.43,0.17252
4743.33,0.17316
4744.23,0.17318
4745.13,0.17539
4746.03,0.17467
4746.93,0.17608
4747.83,0.17639
4748.73,0.17671
4749.63,0.17702
4750.53,0.17639
4751.43,0.1763
4752.33,0.17542
4753.23,0.17336
4754.13,0.17296
4755.03,0.17182
4755.93,0.17066
4756.83,0.16985
4757.73,0.16943
4758.63,0.16955
4759.53,0.16934
4760.43,0.16867
4761.33,0.16802
4762.23,0.16627
4763.13,0.16519
4764.03,0.16332
4764.93,0.16175
4765.83,0.16029
4766.73,0.16065
4767.63,0.16038
4768.53,0.16097
4769.43,0.16347
4770.33,0.16571
4771.23,0.16727
4772.13,0.16845
4773.03,0.1704
4773.93,0.17121
4774.83,0.17302
4775.73,0.17386
4776.64,0.17479
4777.54,0.17514
4778.44,0.17518
4779.34,0.17545
4780.24,0.17472
4781.14,0.17362
4782.04,0.17205
4782.94,0.17104
4783.84,0.16904
4784.74,0.16859
4785.64,0.16704
4786.54,0.16609
4787.44,0.16648
4788.34,0.1661
4789.24,0.16663
4790.14,0.16799
4791.04,0.16891
4791.94,0.1703
4792.84,0.17228
4793.74,0.17503
4794.64,0.17672
4795.54,0.17775
4796.44,0.17864
4797.34,0.17833
4798.24,0.17783
4799.14,0.17727
4800.04,0.17588
4800.94,0.17545
4801.84,0.17589
4802.74,0.17629
4803.64,0.17515
4804.54,0.17552
4805.44,0.1747
4806.34,0.17465
4807.24,0.17357
4808.14,0.17211
4809.04,0.17234
4809.94,0.17195
4810.84,0.17239
4811.74,0.17369
4812.64,0.17442
4813.54,0.17548
4814.45,0.17573
4815.35,0.17725
4816.25,0.17816
4817.15,0.17953
4818.05,0.1799
