wave,flux
3700.85,0.080239
3701.75,0.078697
3702.65,0.075485
3703.55,0.070324
3704.45,0.064492
3705.35,0.059401
3706.25,0.055191
3707.15,0.052491
3708.05,0.05214
3708.96,0.053612
3709.86,0.056807
3710.76,0.06175
3711.66,0.067797
3712.56,0.073662
3713.46,0.078104
3714.36,0.081035
3715.26,0.081346
3716.16,0.0788
3717.06,0.073931
3717.96,0.067728
3718.86,0.060396
3719.76,0.053542
3720.66,0.047885
3721.56,0.044842
3722.46,0.044924
3723.36,0.047852
3724.26,0.052132
3725.16,0.056489
3726.06,0.059814
3726.96,0.061666
3727.86,0.061932
3728.76,0.061416
3729.66,0.060639
3730.56,0.058705
3731.46,0.056116
3732.36,0.05187
3733.26,0.046654
3734.16,0.041832
3735.06,0.038015
3735.96,0.035912
3736.86,0.036309
3737.76,0.039106
3738.66,0.043681
3739.56,0.04891
3740.46,0.053824
3741.36,0.056511
3742.26,0.057203
3743.16,0.054825
3744.06,0.051158
3744.96,0.047105
3745.86,0.043281
3746.76,0.040032
3747.67,0.038158
3748.57,0.037211
3749.47,0.037947
3750.37,0.040486
3751.27,0.045178
3752.17,0.050947
3753.07,0.057091
3753.97,0.062751
3754.87,0.066018
3755.77,0.067207
3756.67,0.065665
3757.57,0.062383
3758.47,0.058191
3759.37,0.055144
3760.27,0.053423
3761.17,0.053354
3762.07,0.054132
3762.97,0.054922
3763.87,0.055047
3764.77,0.055395
3765.67,0.05573
3766.57,0.056028
3767.47,0.057234
3768.37,0.058684
3769.27,0.061311
3770.17,0.064052
3771.07,0.067163
3771.97,0.070249
3772.87,0.072487
3773.77,0.074414
3774.67,0.075483
3775.57,0.075842
3776.47,0.075736
3777.37,0.076314
3778.27,0.076779
3779.17,0.077959
3780.07,0.079016
3780.97,0.080518
3781.87,0.081906
3782.77,0.082388
3783.67,0.08184
3784.57,0.079568
3785.47,0.076472
3786.38,0.071885
3787.28,0.06737
3788.18,0.063345
3789.08,0.060135
3789.98,0.058727
3790.88,0.058173
3791.78,0.058624
3792.68,0.058793
3793.58,0.057945
3794.48,0.057206
3795.38,0.055493
3796.28,0.053549
3797.18,0.052312
3798.08,0.051638
3798.98,0.051873
3799.88,0.053429
3800.78,0.056134
3801.68,0.059978
3802.58,0.063989
3803.48,0.067481
3804.38,0.069666
3805.28,0.070574
3806.18,0.07008
3807.08,0.069612
3807.98,0.06907
3808.88,0.069053
3809.78,0.069671
3810.68,0.069679
3811.58,0.069192
3812.48,0.067116
3813.38,0.063383
3814.28,0.059368
3815.18,0.055433
3816.08,0.052153
3816.98,0.049809
3817.88,0.048475
3818.78,0.047333
3819.68,0.045925
3820.58,0.044708
3821.48,0.043617
3822.38,0.042698
3823.28,0.042024
3824.18,0.040997
3825.09,0.039473
3825.99,0.038105
3826.89,0.03687
3827.79,0.036333
3828.69,0.036417
3829.59,0.036831
3830.49,0.037133
3831.39,0.037366
3832.29,0.037165
3833.19,0.036621
3834.09,0.036425
3834.99,0.036392
3835.89,0.036822
3836.79,0.037322
3837.69,0.037444
3838.59,0.037248
3839.49,0.037368
3840.39,0.038497
3841.29,0.040347
3842.19,0.043489
3843.09,0.047306
3843.99,0.050743
3844.89,0.053673
3845.79,0.055802
3846.69,0.056893
3847.59,0.057267
3848.49,0.056854
3849.39,0.055885
3850.29,0.055091
3851.19,0.054562
3852.09,0.054373
3852.99,0.053854
3853.89,0.053379
3854.79,0.052321
3855.69,0.050714
3856.59,0.048998
3857.49,0.046419
3858.39,0.044635
3859.29,0.043182
3860.19,0.042876
3861.09,0.044023
3861.99,0.046651
3862.9,0.049769
3863.8,0.053016
3864.7,0.055126
3865.6,0.055972
3866.5,0.056031
3867.4,0.05502
3868.3,0.053349
3869.2,0.051689
3870.1,0.049937
3871.0,0.04819
3871.9,0.047627
3872.8,0.048255
3873.7,0.050082
3874.6,0.052675
3875.5,0.055002
3876.4,0.056698
3877.3,0.056407
3878.2,0.055078
3879.1,0.053468
3880.0,0.052532
3880.9,0.051791
3881.8,0.051807
3882.7,0.052191
3883.6,0.053376
3884.5,0.053843
3885.4,0.054033
3886.3,0.053698
3887.2,0.053191
3888.1,0.053865
3889.0,0.055069
3889.9,0.058142
3890.8,0.062079
3891.7,0.066471
3892.6,0.070245
3893.5,0.072618
3894.4,0.07398
3895.3,0.07454
3896.2,0.074199
3897.1,0.074082
3898.0,0.073695
3898.9,0.073467
3899.8,0.073299
3900.7,0.073056
3901.6,0.072477
3902.51,0.071835
3903.41,0.070663
3904.31,0.069192
3905.21,0.068603
3906.11,0.068482
3907.01,0.070076
3907.91,0.072545
3908.81,0.07624
3909.71,0.079972
3910.61,0.082967
3911.51,0.085208
3912.41,0.086901
3913.31,0.087735
3914.21,0.087961
3915.11,0.087099
3916.01,0.08524
3916.91,0.083532
3917.81,0.080896
3918.71,0.077472
3919.61,0.074327
3920.51,0.070363
3921.41,0.067373
3922.31,0.065067
3923.21,0.063863
3924.11,0.063011
3925.01,0.06208
3925.91,0.060372
3926.81,0.057298
3927.71,0.053137
3928.61,0.047942
3929.51,0.042509
3930.41,0.037359
3931.31,0.032547
3932.21,0.028421
3933.11,0.025603
3934.01,0.023941
3934.91,0.024039
3935.81,0.025515
3936.71,0.02866
3937.61,0.033058
3938.51,0.037963
3939.42,0.043147
3940.32,0.04773
3941.22,0.051336
3942.12,0.053675
3943.02,0.055742
3943.92,0.057579
3944.82,0.060033
3945.72,0.063149
3946.62,0.06693
3947.52,0.070666
3948.42,0.074494
3949.32,0.077721
3950.22,0.080756
3951.12,0.083245
3952.02,0.08451
3952.92,0.085996
3953.82,0.086374
3954.72,0.086498
3955.62,0.085667
3956.52,0.084638
3957.42,0.083844
3958.32,0.081751
3959.22,0.078881
3960.12,0.075399
3961.02,0.070288
3961.92,0.064711
3962.82,0.058979
3963.72,0.053474
3964.62,0.048546
3965.52,0.043399
3966.42,0.038964
3967.32,0.034694
3968.22,0.031344
3969.12,0.029563
3970.02,0.029431
3970.92,0.031558
3971.82,0.035474
3972.72,0.04052
3973.62,0.046875
3974.52,0.053156
3975.42,0.059714
3976.32,0.066064
3977.22,0.072782
3978.13,0.078832
3979.03,0.084087
3979.93,0.088732
3980.83,0.092423
3981.73,0.094317
3982.63,0.096217
3983.53,0.096781
3984.43,0.097221
3985.33,0.098554
3986.23,0.099408
3987.13,0.10089
3988.03,0.10243
3988.93,0.10384
3989.83,0.10513
3990.73,0.10654
3991.63,0.10744
3992.53,0.10773
3993.43,0.10848
3994.33,0.10844
3995.23,0.10761
3996.13,0.10728
3997.03,0.10586
3997.93,0.1065
3998.83,0.10787
3999.73,0.10956
4000.63,0.11244
4001.53,0.11422
4002.43,0.11534
4003.33,0.1152
4004.23,0.11332
4005.13,0.11021
4006.03,0.10854
4006.93,0.1067
4007.83,0.10686
4008.73,0.10844
4009.63,0.11135
4010.53,0.11384
4011.43,0.11624
4012.33,0.11786
4013.23,0.11922
4014.13,0.11974
4015.03,0.12084
4015.93,0.12145
4016.84,0.12163
4017.74,0.12212
4018.64,0.12183
4019.54,0.12311
4020.44,0.12356
4021.34,0.1231
4022.24,0.12245
4023.14,0.12211
4024.04,0.12137
4024.94,0.1212
4025.84,0.12161
4026.74,0.122
4027.64,0.12205
4028.54,0.12097
4029.44,0.11841
4030.34,0.11434
4031.24,0.10952
4032.14,0.1041
4033.04,0.1005
4033.94,0.099505
4034.84,0.10016
4035.74,0.10407
4036.64,0.10946
4037.54,0.11527
4038.44,0.12
4039.34,0.12314
4040.24,0.12413
4041.14,0.12331
4042.04,0.12121
4042.94,0.1171
4043.84,0.11154
4044.74,0.10498
4045.64,0.10024
4046.54,0.096987
4047.44,0.097856
4048.34,0.10141
4049.24,0.107
4050.14,0.11265
4051.04,0.11774
4051.94,0.12005
4052.84,0.12051
4053.74,0.11907
4054.65,0.11674
4055.55,0.11403
4056.45,0.11106
4057.35,0.10869
4058.25,0.10797
4059.15,0.10711
4060.05,0.10678
4060.95,0.1061
4061.85,0.10494
4062.75,0.10261
4063.65,0.1001
4064.55,0.09876
4065.45,0.09824
4066.35,0.099656
4067.25,0.10308
4068.15,0.10592
4069.05,0.10834
4069.95,0.11007
4070.85,0.11023
4071.75,0.10911
4072.65,0.10892
4073.55,0.10861
4074.45,0.10819
4075.35,0.10792
4076.25,0.10704
4077.15,0.10619
4078.05,0.1058
4078.95,0.10716
4079.85,0.11
4080.75,0.11348
4081.65,0.11789
4082.55,0.12089
4083.45,0.1227
4084.35,0.12374
4085.25,0.12484
4086.15,0.12539
4087.05,0.12758
4087.95,0.13002
4088.85,0.13303
4089.75,0.13446
4090.65,0.13498
4091.55,0.13423
4092.45,0.13208
4093.36,0.13012
4094.26,0.12751
4095.16,0.12411
4096.06,0.12017
4096.96,0.11696
4097.86,0.113
4098.76,0.10942
4099.66,0.10598
4100.56,0.10356
4101.46,0.10159
4102.36,0.10051
4103.26,0.10116
4104.16,0.10387
4105.06,0.10774
4105.96,0.11185
4106.86,0.11562
4107.76,0.1182
4108.66,0.11984
4109.56,0.12082
4110.46,0.12012
4111.36,0.11955
4112.26,0.12
4113.16,0.121
4114.06,0.12206
4114.96,0.12421
4115.86,0.12511
4116.76,0.12589
4117.66,0.12549
4118.56,0.12396
4119.46,0.12251
4120.36,0.12139
4121.26,0.12015
4122.16,0.12026
4123.06,0.12032
4123.96,0.12143
4124.86,0.12197
4125.76,0.12177
4126.66,0.12159
4127.56,0.12114
4128.46,0.11976
4129.36,0.11743
4130.26,0.11513
4131.17,0.11177
4132.06,0.10979
4132.97,0.10869
4133.87,0.10812
4134.77,0.1088
4135.67,0.11128
4136.57,0.11451
4137.47,0.11816
4138.37,0.12102
4139.27,0.12245
4140.17,0.122
4141.07,0.12048
4141.97,0.11669
4142.87,0.11277
4143.77,0.10892
4144.67,0.1067
4145.57,0.10668
4146.47,0.10775
4147.37,0.10988
4148.27,0.11131
4149.17,0.11299
4150.07,0.1129
4150.97,0.11217
4151.87,0.11122
4152.77,0.1106
4153.67,0.10935
4154.57,0.10907
4155.47,0.1085
4156.37,0.10936
4157.27,0.11003
4158.17,0.1118
4159.07,0.11434
4159.97,0.11698
4160.87,0.11973
4161.77,0.12185
4162.67,0.12363
4163.57,0.12446
4164.47,0.12455
4165.37,0.12388
4166.27,0.12159
4167.17,0.11991
4168.07,0.11836
4168.98,0.11665
4169.88,0.1158
4170.78,0.11393
4171.68,0.11223
4172.58,0.11035
4173.48,0.10794
4174.38,0.10658
4175.28,0.10522
4176.18,0.10567
4177.08,0.10648
4177.98,0.10742
4178.88,0.10869
4179.78,0.10952
4180.68,0.10997
4181.58,0.11132
4182.48,0.11208
4183.38,0.11335
4184.28,0.1141
4185.18,0.11463
4186.08,0.11494
4186.98,0.11527
4187.88,0.11461
4188.78,0.11449
4189.68,0.11489
4190.58,0.11589
4191.48,0.11752
4192.38,0.11891
4193.28,0.12001
4194.18,0.11911
4195.08,0.11815
4195.98,0.11493
4196.88,0.11209
4197.78,0.10885
4198.68,0.10624
4199.58,0.10378
4200.48,0.10413
4201.38,0.10447
4202.28,0.10547
4203.18,0.10778
4204.08,0.11068
4204.98,0.11415
4205.88,0.11803
4206.79,0.12176
4207.69,0.12408
4208.59,0.12574
4209.49,0.12629
4210.39,0.1264
4211.29,0.12552
4212.19,0.12506
4213.09,0.12317
4213.99,0.12088
4214.89,0.1202
4215.79,0.11847
4216.69,0.11927
4217.59,0.12085
4218.49,0.1238
4219.39,0.12695
4220.29,0.12881
4221.19,0.12922
4222.09,0.12765
4222.99,0.12296
4223.89,0.11662
4224.79,0.108
4225.69,0.10062
4226.59,0.094337
4227.49,0.091853
4228.39,0.0928
4229.29,0.097484
4230.19,0.10392
4231.09,0.11112
4231.99,0.11625
4232.89,0.11982
4233.79,0.12097
4234.69,0.12044
4235.59,0.11942
4236.49,0.11857
4237.39,0.11741
4238.29,0.11779
4239.19,0.11901
4240.09,0.12191
4240.99,0.12483
4241.89,0.12833
4242.79,0.13152
4243.69,0.13422
4244.59,0.13718
4245.5,0.13745
4246.4,0.13652
4247.3,0.13383
4248.2,0.13006
4249.1,0.12608
4250.0,0.12106
4250.9,0.11834
4251.8,0.11637
4252.7,0.11538
4253.6,0.1158
4254.5,0.11641
4255.4,0.11779
4256.3,0.11925
4257.2,0.12025
4258.1,0.12041
4259.0,0.1198
4259.9,0.11923
4260.8,0.11858
4261.7,0.11974
4262.6,0.12223
4263.5,0.12658
4264.4,0.1306
4265.3,0.13557
4266.2,0.13708
4267.1,0.13744
4268.0,0.13461
4268.9,0.12908
4269.8,0.12244
4270.7,0.11479
4271.6,0.10838
4272.5,0.10349
4273.4,0.10124
4274.3,0.10118
4275.2,0.10385
4276.1,0.10845
4277.0,0.11357
4277.9,0.11964
4278.8,0.12356
4279.7,0.1271
4280.6,0.12777
4281.5,0.12839
4282.4,0.12748
4283.31,0.12654
4284.21,0.12536
4285.11,0.12459
4286.01,0.12291
4286.91,0.12074
4287.81,0.1182
4288.71,0.11497
4289.61,0.11246
4290.51,0.11081
4291.41,0.11022
4292.31,0.11124
4293.21,0.11266
4294.11,0.11449
4295.01,0.115
4295.91,0.11451
4296.81,0.11224
4297.71,0.10885
4298.61,0.10463
4299.51,0.099466
4300.41,0.094805
4301.31,0.09147
4302.21,0.088809
4303.11,0.088349
4304.01,0.08813
4304.91,0.087581
4305.81,0.086762
4306.71,0.085006
4307.61,0.083693
4308.51,0.082642
4309.41,0.082643
4310.31,0.084949
4311.21,0.088863
4312.11,0.094583
4313.01,0.10185
4313.91,0.11127
4314.81,0.12129
4315.71,0.1309
4316.61,0.14042
4317.51,0.14706
4318.41,0.15354
4319.31,0.1553
4320.21,0.15522
4321.12,0.15211
4322.02,0.14573
4322.92,0.13865
4323.82,0.13167
4324.72,0.12371
4325.62,0.11871
4326.52,0.11687
4327.42,0.11913
4328.32,0.12474
4329.22,0.13181
4330.12,0.13961
4331.02,0.14579
4331.92,0.151
4332.82,0.15413
4333.72,0.15588
4334.62,0.15472
4335.52,0.15293
4336.42,0.14904
4337.32,0.14334
4338.22,0.13668
4339.12,0.12949
4340.02,0.12428
4340.92,0.12109
4341.82,0.12122
4342.72,0.12352
4343.62,0.12813
4344.52,0.13301
4345.42,0.13875
4346.32,0.14357
4347.22,0.14783
4348.12,0.14994
4349.02,0.15116
4349.92,0.14971
4350.82,0.14795
4351.72,0.14424
4352.62,0.1409
4353.52,0.13898
4354.42,0.13842
4355.32,0.13924
4356.22,0.14108
4357.12,0.14354
4358.02,0.14568
4358.92,0.14839
4359.83,0.14996
4360.73,0.15124
4361.63,0.15335
4362.53,0.15625
4363.43,0.15896
4364.33,0.16018
4365.23,0.16128
4366.13,0.16162
4367.03,0.16076
4367.93,0.1586
4368.83,0.15608
4369.73,0.15269
4370.63,0.15114
4371.53,0.1487
4372.43,0.14729
4373.33,0.14442
4374.23,0.14197
4375.13,0.14039
4376.03,0.13978
4376.93,0.13954
4377.83,0.14063
4378.73,0.14152
4379.63,0.1414
4380.53,0.13829
4381.43,0.13354
4382.33,0.12665
4383.23,0.11996
4384.13,0.1142
4385.03,0.11152
4385.93,0.11128
4386.83,0.11427
4387.73,0.11883
4388.63,0.12385
4389.53,0.12766
4390.43,0.13131
4391.33,0.13315
4392.23,0.13514
4393.13,0.13754
4394.03,0.13929
4394.93,0.14146
4395.83,0.14409
4396.73,0.14688
4397.64,0.14948
4398.54,0.15067
4399.44,0.15023
4400.34,0.14893
4401.24,0.14631
4402.14,0.14291
4403.04,0.13829
4403.94,0.1336
4404.84,0.12951
4405.74,0.12654
4406.64,0.12604
4407.54,0.12701
4408.44,0.13056
4409.34,0.13618
4410.24,0.14122
4411.14,0.1466
4412.04,0.15067
4412.94,0.1525
4413.84,0.15327
4414.74,0.15172
4415.64,0.15023
4416.54,0.14997
4417.44,0.14969
4418.34,0.15078
4419.24,0.15307
4420.14,0.15604
4421.04,0.15723
4421.94,0.15773
4422.84,0.15617
4423.74,0.15461
4424.64,0.15389
4425.54,0.15307
4426.44,0.15278
4427.34,0.15341
4428.24,0.15393
4429.14,0.15398
4430.04,0.15439
4430.94,0.15342
4431.84,0.15202
4432.74,0.15124
4433.64,0.14923
4434.54,0.14799
4435.45,0.14681
4436.35,0.14751
4437.25,0.14945
4438.15,0.15251
4439.05,0.15501
4439.95,0.15772
4440.85,0.1585
4441.75,0.15841
4442.65,0.15762
4443.55,0.15699
4444.45,0.15705
4445.35,0.15943
4446.25,0.16249
4447.15,0.16537
4448.05,0.16731
4448.95,0.1677
4449.85,0.16843
4450.75,0.1668
4451.65,0.16461
4452.55,0.16144
4453.45,0.1578
4454.35,0.15401
4455.25,0.14875
4456.15,0.14449
4457.05,0.14214
4457.95,0.13947
4458.85,0.13819
4459.75,0.13769
4460.65,0.13786
4461.55,0.13895
4462.45,0.14102
4463.35,0.14415
4464.25,0.1467
4465.15,0.14999
4466.05,0.15253
4466.95,0.15466
4467.85,0.15611
4468.75,0.15696
4469.65,0.15827
4470.55,0.15966
4471.45,0.16068
4472.35,0.16374
4473.25,0.16675
4474.16,0.16904
4475.06,0.17228
4475.96,0.17471
4476.86,0.17624
4477.76,0.17582
4478.66,0.17478
4479.56,0.17256
4480.46,0.16953
4481.36,0.16708
4482.26,0.16504
4483.16,0.16503
4484.06,0.16642
4484.96,0.16878
4485.86,0.17151
4486.76,0.17308
4487.66,0.17289
4488.56,0.17249
4489.46,0.17019
4490.36,0.16799
4491.26,0.16617
4492.16,0.16456
4493.06,0.16391
4493.96,0.16345
4494.86,0.1628
4495.76,0.16229
4496.66,0.16282
4497.56,0.16478
4498.46,0.16681
4499.36,0.1698
4500.26,0.17306
4501.16,0.17593
4502.06,0.17935
4502.96,0.18263
4503.86,0.18408
4504.76,0.18715
4505.66,0.18949
4506.56,0.18973
4507.46,0.18994
4508.36,0.19028
4509.26,0.18916
4510.17,0.18736
4511.06,0.18644
4511.97,0.18502
4512.87,0.18283
4513.77,0.18117
4514.67,0.17872
4515.57,0.17764
4516.47,0.17618
4517.37,0.17564
4518.27,0.17667
4519.17,0.17795
4520.07,0.17929
4520.97,0.18006
4521.87,0.17922
4522.77,0.17748
4523.67,0.17621
4524.57,0.17241
4525.47,0.16812
4526.37,0.16267
4527.27,0.1578
4528.17,0.15329
4529.07,0.15021
4529.97,0.14871
4530.87,0.14909
4531.77,0.1486
4532.67,0.1497
4533.57,0.15201
4534.47,0.15403
4535.37,0.15602
4536.27,0.15884
4537.17,0.16173
4538.07,0.16551
4538.97,0.16792
4539.87,0.17102
4540.77,0.17273
4541.67,0.17258
4542.57,0.17286
4543.47,0.17264
4544.37,0.17115
4545.27,0.17079
4546.17,0.17055
4547.07,0.16903
4547.97,0.16913
4548.88,0.16739
4549.77,0.16768
4550.68,0.16685
4551.58,0.16666
4552.48,0.16649
4553.38,0.16665
4554.28,0.1665
4555.18,0.16842
4556.08,0.16964
4556.98,0.17325
4557.88,0.17643
4558.78,0.18061
4559.68,0.18254
4560.58,0.18448
4561.48,0.18543
4562.38,0.18415
4563.28,0.18252
4564.18,0.18124
4565.08,0.17894
4565.98,0.17937
4566.88,0.17925
4567.78,0.17942
4568.68,0.18088
4569.58,0.18171
4570.48,0.18195
4571.38,0.18185
4572.28,0.18193
4573.18,0.18256
4574.08,0.18235
4574.98,0.18385
4575.88,0.18301
4576.78,0.18351
4577.68,0.18114
4578.58,0.17904
4579.48,0.17708
4580.38,0.17297
4581.28,0.17092
4582.18,0.17019
4583.08,0.16936
4583.98,0.16924
4584.88,0.1689
4585.78,0.17094
4586.69,0.172
4587.58,0.17441
4588.49,0.17527
4589.39,0.17743
4590.29,0.17874
4591.19,0.17943
4592.09,0.17787
4592.99,0.176
4593.89,0.17308
4594.79,0.17205
4595.69,0.17116
4596.59,0.16981
4597.49,0.16943
4598.39,0.16938
4599.29,0.16944
4600.19,0.16945
4601.09,0.17044
4601.99,0.17076
4602.89,0.17191
4603.79,0.17211
4604.69,0.17349
4605.59,0.17507
4606.49,0.17757
4607.39,0.17943
4608.29,0.18229
4609.19,0.18596
4610.09,0.18703
4610.99,0.18844
4611.89,0.18948
4612.79,0.18948
4613.69,0.18792
4614.59,0.18844
4615.49,0.18867
4616.39,0.18846
4617.29,0.18889
4618.19,0.18986
4619.09,0.1909
4619.99,0.19062
4620.89,0.19061
4621.79,0.18955
4622.69,0.1902
4623.59,0.19042
4624.5,0.18952
4625.4,0.18875
4626.3,0.18959
4627.2,0.18816
4628.1,0.18888
4629.0,0.18835
4629.9,0.18831
4630.8,0.18749
4631.7,0.1881
4632.6,0.18688
4633.5,0.18644
4634.4,0.1848
4635.3,0.18225
4636.2,0.17997
4637.1,0.17849
4638.0,0.1764
4638.9,0.17471
4639.8,0.1741
4640.7,0.17297
4641.6,0.17346
4642.5,0.1722
4643.4,0.17232
4644.3,0.17065
4645.2,0.16874
4646.1,0.16683
4647.0,0.16497
4647.9,0.16327
4648.8,0.16291
4649.7,0.16478
4650.6,0.16681
4651.5,0.16965
4652.4,0.17213
4653.3,0.17413
4654.2,0.17501
4655.1,0.17638
4656.0,0.17721
4656.9,0.17933
4657.8,0.18013
4658.7,0.18236
4659.6,0.18459
4660.5,0.18617
4661.4,0.18702
4662.3,0.18422
4663.21,0.18206
4664.11,0.17747
4665.01,0.17282
4665.91,0.16786
4666.81,0.16384
4667.71,0.16073
4668.61,0.15979
4669.51,0.15953
4670.41,0.16167
4671.31,0.16472
4672.21,0.16844
4673.11,0.17207
4674.01,0.17401
4674.91,0.17547
4675.81,0.17624
4676.71,0.17707
4677.61,0.17661
4678.51,0.17584
4679.41,0.17419
4680.31,0.17361
4681.21,0.17217
4682.11,0.17147
4683.01,0.17156
4683.91,0.17271
4684.81,0.17298
4685.71,0.17394
4686.61,0.17489
4687.51,0.17577
4688.41,0.17529
4689.31,0.17497
4690.21,0.17466
4691.11,0.1742
4692.01,0.17469
4692.91,0.17437
4693.81,0.17453
4694.71,0.17566
4695.61,0.17638
4696.51,0.17605
4697.41,0.17545
4698.31,0.17414
4699.21,0.17226
4700.12,0.16983
4701.02,0.16771
4701.92,0.16616
4702.82,0.16571
4703.72,0.1649
4704.62,0.16545
4705.52,0.16669
4706.42,0.16707
4707.32,0.16762
4708.22,0.16827
4709.12,0.16971
4710.02,0.1697
4710.92,0.17057
4711.82,0.172
4712.72,0.17225
4713.62,0.17336
4714.52,0.1746
4715.42,0.17627
4716.32,0.17779
4717.22,0.18006
4718.12,0.18331
4719.02,0.18661
4719.92,0.18963
4720.82,0.19109
4721.72,0.19236
4722.62,0.19226
4723.52,0.19241
4724.42,0.19171
4725.32,0.19012
4726.22,0.18718
4727.12,0.18422
4728.02,0.17989
4728.92,0.17665
4729.82,0.17365
4730.72,0.17185
4731.62,0.17082
4732.52,0.17167
4733.42,0.17383
4734.32,0.17435
4735.22,0.17663
4736.12,0.17844
4737.02,0.18017
4737.92,0.18174
4738.83,0.18211
4739.73,0.18372
4740.63,0.1847
4741.53,0.18612
4742.43,0.1858
4743.33,0.18776
4744.23,0.18867
4745.13,0.18878
4746.03,0.19069
4746.93,0.18972
4747.83,0.191
4748.73,0.19109
4749.63,0.1918
4750.53,0.191
4751.43,0.19056
4752.33,0.18869
4753.23,0.18748
4754.13,0.18531
4755.03,0.18381
4755.93,0.18284
4756.83,0.18299
4757.73,0.18373
4758.63,0.1834
4759.53,0.1835
4760.43,0.18289
4761.33,0.18154
4762.23,0.18062
4763.13,0.1777
4764.03,0.17636
4764.93,0.1744
4765.83,0.17321
4766.73,0.17189
4767.63,0.17256
4768.53,0.17409
4769.43,0.17597
4770.33,0.17813
4771.23,0.18051
4772.13,0.18172
4773.03,0.18446
4773.93,0.18587
4774.83,0.18801
4775.73,0.18975
4776.64,0.19112
4777.54,0.1911
4778.44,0.19204
4779.34,0.19208
4780.24,0.19174
4781.14,0.19101
4782.04,0.18845
4782.94,0.18673
4783.84,0.18462
4784.74,0.18384
4785.64,0.18188
4786.54,0.18079
4787.44,0.18063
4788.34,0.18059
4789.24,0.18071
4790.14,0.18179
4791.04,0.18366
4791.94,0.18593
4792.84,0.18703
4793.74,0.19056
4794.64,0.19337
4795.54,0.19554
4796.44,0.19636
4797.34,0.19595
4798.24,0.19487
4799.14,0.19316
4800.04,0.19249
4800.94,0.19207
4801.84,0.19163
4802.74,0.19132
4803.64,0.19166
4804.54,0.19176
4805.44,0.1915
4806.34,0.18895
4807.24,0.18837
4808.14,0.18762
4809.04,0.18777
4809.94,0.18785
4810.84,0.18781
4811.74,0.18817
4812.64,0.18881
4813.54,0.19117
4814.45,0.19126
4815.35,0.19305
4816.25,0.19439
4817.15,0.19521
4818.05,0.19647
4818.95,0.19753
4819.85,0.19861
