wave,flux
3700.85,0.079129
3701.75,0.077258
3702.65,0.074071
3703.55,0.069307
3704.45,0.063956
3705.35,0.058676
3706.25,0.054293
3707.15,0.052094
3708.05,0.051721
3708.96,0.053069
3709.86,0.056229
3710.76,0.060994
3711.66,0.066475
3712.56,0.072133
3713.46,0.07632
3714.36,0.079372
3715.26,0.079561
3716.16,0.077245
3717.06,0.072333
3717.96,0.066876
3718.86,0.059744
3719.76,0.052849
3720.66,0.047501
3721.56,0.044511
3722.46,0.044763
3723.36,0.047487
3724.26,0.051574
3725.16,0.05625
3726.06,0.059398
3726.96,0.061027
3727.86,0.061261
3728.76,0.061011
3729.66,0.060069
3730.56,0.058509
3731.46,0.055818
3732.36,0.051673
3733.26,0.046825
3734.16,0.041818
3735.06,0.037721
3735.96,0.035933
3736.86,0.036193
3737.76,0.038808
3738.66,0.043393
3739.56,0.048361
3740.46,0.053122
3741.36,0.056094
3742.26,0.05647
3743.16,0.054558
3744.06,0.051144
3744.96,0.047085
3745.86,0.043225
3746.76,0.040102
3747.67,0.037944
3748.57,0.037102
3749.47,0.03769
3750.37,0.040327
3751.27,0.044668
3752.17,0.050654
3753.07,0.056474
3753.97,0.061881
3754.87,0.065492
3755.77,0.066467
3756.67,0.064913
3757.57,0.061701
3758.47,0.057722
3759.37,0.054814
3760.27,0.053083
3761.17,0.053328
3762.07,0.054074
3762.97,0.054758
3763.87,0.055081
3764.77,0.055502
3765.67,0.055511
3766.57,0.055961
3767.47,0.056961
3768.37,0.058416
3769.27,0.060842
3770.17,0.063571
3771.07,0.06634
3771.97,0.069078
3772.87,0.071619
3773.77,0.073272
3774.67,0.074279
3775.57,0.074759
3776.47,0.075187
3777.37,0.075282
3778.27,0.076202
3779.17,0.07684
3780.07,0.078518
3780.97,0.080048
3781.87,0.080774
3782.77,0.081324
3783.67,0.081086
3784.57,0.079169
3785.47,0.07563
3786.38,0.071553
3787.28,0.067052
3788.18,0.063179
3789.08,0.060295
3789.98,0.058824
3790.88,0.058672
3791.78,0.058763
3792.68,0.058792
3793.58,0.058269
3794.48,0.056958
3795.38,0.055455
3796.28,0.053725
3797.18,0.052287
3798.08,0.051239
3798.98,0.051749
3799.88,0.053452
3800.78,0.056238
3801.68,0.060025
3802.58,0.064
3803.48,0.067407
3804.38,0.069736
3805.28,0.070916
3806.18,0.070558
3807.08,0.069948
3807.98,0.069448
3808.88,0.069504
3809.78,0.0696
3810.68,0.070089
3811.58,0.069414
3812.48,0.067161
3813.38,0.063815
3814.28,0.059728
3815.18,0.055875
3816.08,0.05263
3816.98,0.050621
3817.88,0.049279
3818.78,0.048178
3819.68,0.046683
3820.58,0.045554
3821.48,0.044409
3822.38,0.04359
3823.28,0.042816
3824.18,0.041772
3825.09,0.040212
3825.99,0.03855
3826.89,0.037347
3827.79,0.036688
3828.69,0.036692
3829.59,0.037366
3830.49,0.037578
3831.39,0.037685
3832.29,0.037252
3833.19,0.036725
3834.09,0.036388
3834.99,0.036643
3835.89,0.036912
3836.79,0.037408
3837.69,0.037548
3838.59,0.037469
3839.49,0.037714
3840.39,0.038726
3841.29,0.040728
3842.19,0.044031
3843.09,0.047776
3843.99,0.05152
3844.89,0.054493
3845.79,0.056835
3846.69,0.05763
3847.59,0.058339
3848.49,0.057626
3849.39,0.057386
3850.29,0.056356
3851.19,0.055874
3852.09,0.05558
3852.99,0.05538
3853.89,0.054644
3854.79,0.053697
3855.69,0.052136
3856.59,0.04994
3857.49,0.047867
3858.39,0.045565
3859.29,0.044229
3860.19,0.043946
3861.09,0.04513
3861.99,0.047744
3862.9,0.050869
3863.8,0.053887
3864.7,0.056135
3865.6,0.057215
3866.5,0.057206
3867.4,0.055955
3868.3,0.054731
3869.2,0.052948
3870.1,0.051072
3871.0,0.049343
3871.9,0.048887
3872.8,0.049249
3873.7,0.050597
3874.6,0.052929
3875.5,0.055448
3876.4,0.056692
3877.3,0.056431
3878.2,0.055494
3879.1,0.053711
3880.0,0.052559
3880.9,0.052246
3881.8,0.052486
3882.7,0.05283
3883.6,0.053452
3884.5,0.054075
3885.4,0.053789
3886.3,0.053345
3887.2,0.052979
3888.1,0.053127
3889.0,0.054581
3889.9,0.057328
3890.8,0.061195
3891.7,0.065199
3892.6,0.069074
3893.5,0.071453
3894.4,0.072731
3895.3,0.073106
3896.2,0.072924
3897.1,0.072798
3898.0,0.072576
3898.9,0.072461
3899.8,0.072299
3900.7,0.072077
3901.6,0.071529
3902.51,0.070838
3903.41,0.069967
3904.31,0.068598
3905.21,0.067769
3906.11,0.068024
3907.01,0.069393
3907.91,0.07191
3908.81,0.075142
3909.71,0.078213
3910.61,0.0814
3911.51,0.083701
3912.41,0.085636
3913.31,0.086099
3914.21,0.086149
3915.11,0.085438
3916.01,0.083621
3916.91,0.081842
3917.81,0.079386
3918.71,0.076375
3919.61,0.072535
3920.51,0.069713
3921.41,0.066551
3922.31,0.064546
3923.21,0.06304
3924.11,0.062316
3925.01,0.060993
3925.91,0.059455
3926.81,0.056309
3927.71,0.052196
3928.61,0.047058
3929.51,0.041688
3930.41,0.036441
3931.31,0.031823
3932.21,0.027861
3933.11,0.025083
3934.01,0.023615
3934.91,0.023577
3935.81,0.025124
3936.71,0.028177
3937.61,0.032423
3938.51,0.037216
3939.42,0.042406
3940.32,0.04667
3941.22,0.050271
3942.12,0.053068
3943.02,0.055242
3943.92,0.056805
3944.82,0.059067
3945.72,0.06221
3946.62,0.065555
3947.52,0.06945
3948.42,0.073554
3949.32,0.076376
3950.22,0.07917
3951.12,0.081246
3952.02,0.083062
3952.92,0.083964
3953.82,0.084575
3954.72,0.084386
3955.62,0.083989
3956.52,0.083219
3957.42,0.081899
3958.32,0.07993
3959.22,0.07744
3960.12,0.073617
3961.02,0.069087
3961.92,0.06355
3962.82,0.057925
3963.72,0.052459
3964.62,0.047597
3965.52,0.042734
3966.42,0.038109
3967.32,0.033994
3968.22,0.030742
3969.12,0.028875
3970.02,0.028911
3970.92,0.030835
3971.82,0.034613
3972.72,0.039589
3973.62,0.045903
3974.52,0.052068
3975.42,0.058384
3976.32,0.064858
3977.22,0.071059
3978.13,0.076787
3979.03,0.082406
3979.93,0.086562
3980.83,0.08992
3981.73,0.092349
3982.63,0.093522
3983.53,0.094058
3984.43,0.094719
3985.33,0.095651
3986.23,0.097032
3987.13,0.09884
3988.03,0.1001
3988.93,0.10177
3989.83,0.10281
3990.73,0.10414
3991.63,0.10485
3992.53,0.1055
3993.43,0.10561
3994.33,0.1058
3995.23,0.10526
3996.13,0.10462
3997.03,0.10417
3997.93,0.10349
3998.83,0.10468
3999.73,0.10651
4000.63,0.10878
4001.53,0.11092
4002.43,0.11233
4003.33,0.1114
4004.23,0.10988
4005.13,0.10742
4006.03,0.10546
4006.93,0.10371
4007.83,0.10411
4008.73,0.10584
4009.63,0.10852
4010.53,0.11082
4011.43,0.113
4012.33,0.11451
4013.23,0.11621
4014.13,0.11689
4015.03,0.11761
4015.93,0.11736
4016.84,0.11812
4017.74,0.1185
4018.64,0.11837
4019.54,0.11895
4020.44,0.11938
4021.34,0.11933
4022.24,0.11917
4023.14,0.11855
4024.04,0.1182
4024.94,0.11817
4025.84,0.11821
4026.74,0.119
4027.64,0.11843
4028.54,0.11817
4029.44,0.11554
4030.34,0.11198
4031.24,0.10677
4032.14,0.10243
4033.04,0.098962
4033.94,0.097635
4034.84,0.098803
4035.74,0.10274
4036.64,0.10767
4037.54,0.11289
4038.44,0.11765
4039.34,0.12063
4040.24,0.12112
4041.14,0.12075
4042.04,0.11798
4042.94,0.11393
4043.84,0.10842
4044.74,0.10289
4045.64,0.097958
4046.54,0.095466
4047.44,0.095544
4048.34,0.099673
4049.24,0.10516
4050.14,0.11089
4051.04,0.11492
4051.94,0.11712
4052.84,0.11757
4053.74,0.11675
4054.65,0.11416
4055.55,0.1112
4056.45,0.10889
4057.35,0.10711
4058.25,0.10579
4059.15,0.10541
4060.05,0.10526
4060.95,0.10487
4061.85,0.1029
4062.75,0.10089
4063.65,0.098561
4064.55,0.096712
4065.45,0.097112
4066.35,0.098535
4067.25,0.10116
4068.15,0.10421
4069.05,0.10675
4069.95,0.10826
4070.85,0.10847
4071.75,0.10784
4072.65,0.10684
4073.55,0.10652
4074.45,0.10633
4075.35,0.10561
4076.25,0.10508
4077.15,0.10426
4078.05,0.10362
4078.95,0.10526
4079.85,0.10783
4080.75,0.11171
4081.65,0.11524
4082.55,0.11771
4083.45,0.11994
4084.35,0.1201
4085.25,0.12112
4086.15,0.12221
4087.05,0.1247
4087.95,0.12728
4088.85,0.12966
4089.75,0.13076
4090.65,0.13145
4091.55,0.13076
4092.45,0.12889
4093.36,0.12718
4094.26,0.12417
4095.16,0.12167
4096.06,0.11812
4096.96,0.11443
4097.86,0.11089
4098.76,0.10746
4099.66,0.10451
4100.56,0.10224
4101.46,0.099369
4102.36,0.098489
4103.26,0.099669
4104.16,0.10177
4105.06,0.10534
4105.96,0.1095
4106.86,0.11293
4107.76,0.11607
4108.66,0.11751
4109.56,0.11731
4110.46,0.11695
4111.36,0.11756
4112.26,0.1178
4113.16,0.11846
4114.06,0.11983
4114.96,0.12149
4115.86,0.12264
4116.76,0.12293
4117.66,0.12249
4118.56,0.12107
4119.46,0.12005
4120.36,0.11888
4121.26,0.11791
4122.16,0.11776
4123.06,0.11899
4123.96,0.11884
4124.86,0.1196
4125.76,0.11992
4126.66,0.11972
4127.56,0.11928
4128.46,0.11684
4129.36,0.11483
4130.26,0.11301
4131.17,0.11001
4132.06,0.10789
4132.97,0.10652
4133.87,0.10605
4134.77,0.10728
4135.67,0.1097
4136.57,0.11309
4137.47,0.11638
4138.37,0.11884
4139.27,0.12014
4140.17,0.12
4141.07,0.11816
4141.97,0.11486
4142.87,0.11085
4143.77,0.10739
4144.67,0.10552
4145.57,0.10517
4146.47,0.1064
4147.37,0.1082
4148.27,0.11015
4149.17,0.11134
4150.07,0.11105
4150.97,0.11085
4151.87,0.10986
4152.77,0.10887
4153.67,0.10891
4154.57,0.10787
4155.47,0.10765
4156.37,0.10764
4157.27,0.1091
4158.17,0.11081
4159.07,0.1129
4159.97,0.11604
4160.87,0.11815
4161.77,0.12057
4162.67,0.12167
4163.57,0.12294
4164.47,0.12247
4165.37,0.12156
4166.27,0.11989
4167.17,0.11808
4168.07,0.11643
4168.98,0.11516
4169.88,0.11381
4170.78,0.11263
4171.68,0.11054
4172.58,0.10837
4173.48,0.10655
4174.38,0.10469
4175.28,0.10424
4176.18,0.10428
4177.08,0.10535
4177.98,0.10633
4178.88,0.10733
4179.78,0.10855
4180.68,0.10929
4181.58,0.11067
4182.48,0.111
4183.38,0.11182
4184.28,0.1128
4185.18,0.11313
4186.08,0.11293
4186.98,0.11268
4187.88,0.11263
4188.78,0.11245
4189.68,0.11285
4190.58,0.11433
4191.48,0.11531
4192.38,0.11691
4193.28,0.11771
4194.18,0.11782
4195.08,0.11599
4195.98,0.11357
4196.88,0.11028
4197.78,0.10745
4198.68,0.10519
4199.58,0.10296
4200.48,0.10283
4201.38,0.10257
4202.28,0.1042
4203.18,0.10653
4204.08,0.10891
4204.98,0.11239
4205.88,0.11584
4206.79,0.119
4207.69,0.12186
4208.59,0.12355
4209.49,0.12383
4210.39,0.12439
4211.29,0.12378
4212.19,0.12262
4213.09,0.1217
4213.99,0.11987
4214.89,0.11824
4215.79,0.11695
4216.69,0.1176
4217.59,0.11926
4218.49,0.1214
4219.39,0.12444
4220.29,0.12689
4221.19,0.12711
4222.09,0.12473
4222.99,0.12019
4223.89,0.1145
4224.79,0.10611
4225.69,0.098286
4226.59,0.09233
4227.49,0.089825
4228.39,0.09147
4229.29,0.095609
4230.19,0.10204
4231.09,0.10825
4231.99,0.11393
4232.89,0.11716
4233.79,0.1181
4234.69,0.11763
4235.59,0.11716
4236.49,0.11533
4237.39,0.11509
4238.29,0.11572
4239.19,0.11666
4240.09,0.11891
4240.99,0.12165
4241.89,0.12533
4242.79,0.12825
4243.69,0.13025
4244.59,0.13289
4245.5,0.13369
4246.4,0.13214
4247.3,0.12988
4248.2,0.1263
4249.1,0.12215
4250.0,0.11835
4250.9,0.11507
4251.8,0.11352
4252.7,0.11325
4253.6,0.11323
4254.5,0.114
4255.4,0.11519
4256.3,0.11627
4257.2,0.11733
4258.1,0.11732
4259.0,0.1169
4259.9,0.1163
4260.8,0.11612
4261.7,0.11668
4262.6,0.11934
4263.5,0.12331
4264.4,0.12731
4265.3,0.13153
4266.2,0.13309
4267.1,0.13286
4268.0,0.13107
4268.9,0.12595
4269.8,0.11956
4270.7,0.11316
4271.6,0.1068
4272.5,0.10167
4273.4,0.098679
4274.3,0.099242
4275.2,0.10189
4276.1,0.10607
4277.0,0.11173
4277.9,0.1165
4278.8,0.12053
4279.7,0.1231
4280.6,0.12478
4281.5,0.1249
4282.4,0.12388
4283.31,0.12307
4284.21,0.12241
4285.11,0.12122
4286.01,0.11991
4286.91,0.11676
4287.81,0.11475
4288.71,0.11254
4289.61,0.10944
4290.51,0.10799
4291.41,0.10761
4292.31,0.10847
4293.21,0.10993
4294.11,0.1119
4295.01,0.11214
4295.91,0.11157
4296.81,0.10962
4297.71,0.10633
4298.61,0.10191
4299.51,0.096504
4300.41,0.092466
4301.31,0.089089
4302.21,0.087477
4303.11,0.086082
4304.01,0.086169
4304.91,0.085641
4305.81,0.084607
4306.71,0.08361
4307.61,0.082017
4308.51,0.081061
4309.41,0.081245
4310.31,0.083342
4311.21,0.086728
4312.11,0.092395
4313.01,0.099962
4313.91,0.10848
4314.81,0.11799
4315.71,0.12671
4316.61,0.13585
4317.51,0.1432
4318.41,0.14869
4319.31,0.1503
4320.21,0.15077
4321.12,0.14734
4322.02,0.14152
4322.92,0.13517
4323.82,0.12742
4324.72,0.12113
4325.62,0.11567
4326.52,0.11415
4327.42,0.11656
4328.32,0.12171
4329.22,0.12897
4330.12,0.13551
4331.02,0.14256
4331.92,0.14682
4332.82,0.14863
4333.72,0.15047
4334.62,0.15079
4335.52,0.14874
4336.42,0.1449
4337.32,0.1387
4338.22,0.13271
4339.12,0.12582
4340.02,0.12057
4340.92,0.1181
4341.82,0.11804
4342.72,0.12024
4343.62,0.12451
4344.52,0.12946
4345.42,0.1353
4346.32,0.13921
4347.22,0.14309
4348.12,0.14508
4349.02,0.14596
4349.92,0.14588
4350.82,0.1437
4351.72,0.14001
4352.62,0.13723
4353.52,0.13503
4354.42,0.13376
4355.32,0.13479
4356.22,0.13737
4357.12,0.14025
4358.02,0.14243
4358.92,0.14397
4359.83,0.14575
4360.73,0.14667
4361.63,0.14935
4362.53,0.15129
4363.43,0.15434
4364.33,0.15576
4365.23,0.15685
4366.13,0.15629
4367.03,0.15512
4367.93,0.15317
4368.83,0.15031
4369.73,0.14889
4370.63,0.14709
4371.53,0.14385
4372.43,0.14215
4373.33,0.14008
4374.23,0.13775
4375.13,0.13566
4376.03,0.13545
4376.93,0.1359
4377.83,0.13693
4378.73,0.13734
4379.63,0.13724
4380.53,0.13521
4381.43,0.13066
4382.33,0.12443
4383.23,0.11763
4384.13,0.11195
4385.03,0.10964
4385.93,0.10932
4386.83,0.11248
4387.73,0.11663
4388.63,0.12119
4389.53,0.125
4390.43,0.12814
4391.33,0.13068
4392.23,0.13198
4393.13,0.13424
4394.03,0.1361
4394.93,0.13799
4395.83,0.1407
4396.73,0.1427
4397.64,0.14529
4398.54,0.14601
4399.44,0.14606
4400.34,0.14524
4401.24,0.14225
4402.14,0.13897
4403.04,0.13485
4403.94,0.13059
4404.84,0.12715
4405.74,0.12379
4406.64,0.1231
4407.54,0.12493
4408.44,0.1282
4409.34,0.13317
4410.24,0.13784
4411.14,0.14309
4412.04,0.147
4412.94,0.14885
4413.84,0.14897
4414.74,0.14827
4415.64,0.14613
4416.54,0.14496
4417.44,0.14618
4418.34,0.14726
4419.24,0.1498
4420.14,0.15173
4421.04,0.15295
4421.94,0.15286
4422.84,0.15213
4423.74,0.15146
4424.64,0.14936
4425.54,0.14931
4426.44,0.14911
4427.34,0.1489
4428.24,0.14999
4429.14,0.1501
4430.04,0.14941
4430.94,0.14966
4431.84,0.14767
4432.74,0.14712
4433.64,0.14556
4434.54,0.14442
4435.45,0.14376
4436.35,0.1439
4437.25,0.14577
4438.15,0.14873
4439.05,0.15131
4439.95,0.15342
4440.85,0.15462
4441.75,0.15417
4442.65,0.15318
4443.55,0.15204
4444.45,0.15355
4445.35,0.1547
4446.25,0.15727
4447.15,0.15973
4448.05,0.16187
4448.95,0.1631
4449.85,0.16246
4450.75,0.16233
4451.65,0.15979
4452.55,0.15671
4453.45,0.15338
4454.35,0.14871
4455.25,0.14476
4456.15,0.14128
4457.05,0.13869
4457.95,0.13655
4458.85,0.13599
4459.75,0.13489
4460.65,0.13528
4461.55,0.13613
4462.45,0.13825
4463.35,0.14058
4464.25,0.14361
4465.15,0.14607
4466.05,0.14868
4466.95,0.15063
4467.85,0.15205
4468.75,0.15266
4469.65,0.15417
4470.55,0.15502
4471.45,0.15735
4472.35,0.15898
4473.25,0.16199
4474.16,0.16413
4475.06,0.16771
4475.96,0.1694
4476.86,0.1709
4477.76,0.17092
4478.66,0.17007
4479.56,0.16785
4480.46,0.16482
4481.36,0.16191
4482.26,0.16052
4483.16,0.16071
4484.06,0.16114
4484.96,0.16387
4485.86,0.16676
4486.76,0.16812
4487.66,0.16849
4488.56,0.16759
4489.46,0.16545
4490.36,0.16402
4491.26,0.16089
4492.16,0.16063
4493.06,0.15994
4493.96,0.15941
4494.86,0.15852
4495.76,0.15854
4496.66,0.15892
4497.56,0.16022
4498.46,0.16273
4499.36,0.1659
4500.26,0.16867
4501.16,0.17167
4502.06,0.17328
4502.96,0.17685
4503.86,0.17903
4504.76,0.18056
4505.66,0.18261
4506.56,0.18382
4507.46,0.18407
4508.36,0.18364
4509.26,0.18285
4510.17,0.18241
4511.06,0.18117
4511.97,0.17936
4512.87,0.17768
4513.77,0.17628
4514.67,0.17411
4515.57,0.17246
4516.47,0.17119
4517.37,0.17152
4518.27,0.17103
4519.17,0.1729
4520.07,0.1734
4520.97,0.17397
4521.87,0.17407
4522.77,0.17221
4523.67,0.17044
4524.57,0.16759
4525.47,0.16293
4526.37,0.159
4527.27,0.15414
4528.17,0.1506
4529.07,0.14745
4529.97,0.14569
4530.87,0.14539
4531.77,0.14572
4532.67,0.14739
4533.57,0.1486
4534.47,0.15013
4535.37,0.15188
4536.27,0.1552
4537.17,0.15868
4538.07,0.16175
4538.97,0.16443
4539.87,0.16682
4540.77,0.16843
4541.67,0.16876
4542.57,0.1679
4543.47,0.1679
4544.37,0.16721
4545.27,0.16692
4546.17,0.16622
4547.07,0.16525
4547.97,0.16458
4548.88,0.16367
4549.77,0.1628
4550.68,0.16295
4551.58,0.16232
4552.48,0.16181
4553.38,0.16202
4554.28,0.16282
4555.18,0.164
4556.08,0.16539
4556.98,0.16817
4557.88,0.17174
4558.78,0.17411
4559.68,0.17708
4560.58,0.17919
4561.48,0.17916
4562.38,0.17934
4563.28,0.17697
4564.18,0.17582
4565.08,0.17501
4565.98,0.17324
4566.88,0.17372
4567.78,0.17472
4568.68,0.17573
4569.58,0.17632
4570.48,0.17696
4571.38,0.17702
4572.28,0.17683
4573.18,0.17778
4574.08,0.17652
4574.98,0.17714
4575.88,0.1778
4576.78,0.17697
4577.68,0.17716
4578.58,0.17439
4579.48,0.1725
4580.38,0.16866
4581.28,0.16737
4582.18,0.16576
4583.08,0.16517
4583.98,0.16457
4584.88,0.16538
4585.78,0.16663
4586.69,0.16736
4587.58,0.1692
4588.49,0.17146
4589.39,0.17319
4590.29,0.17437
4591.19,0.17373
4592.09,0.17258
4592.99,0.17177
4593.89,0.1686
4594.79,0.16833
4595.69,0.16735
4596.59,0.16586
4597.49,0.16526
4598.39,0.1666
4599.29,0.16603
4600.19,0.16635
4601.09,0.16696
4601.99,0.16792
4602.89,0.1676
4603.79,0.16814
4604.69,0.16926
4605.59,0.1716
4606.49,0.17285
4607.39,0.17548
4608.29,0.17869
4609.19,0.18108
4610.09,0.18299
4610.99,0.18382
4611.89,0.18435
4612.79,0.18363
4613.69,0.18374
4614.59,0.18366
4615.49,0.1826
4616.39,0.18385
4617.29,0.18378
4618.19,0.18544
4619.09,0.1847
4619.99,0.18579
4620.89,0.18575
4621.79,0.18493
4622.69,0.185
4623.59,0.18463
4624.5,0.18457
4625.4,0.1844
4626.3,0.18388
4627.2,0.18286
4628.1,0.18325
4629.0,0.18288
4629.9,0.18336
4630.8,0.18289
4631.7,0.18222
4632.6,0.18266
4633.5,0.18023
4634.4,0.17957
4635.3,0.17794
4636.2,0.17554
4637.1,0.17392
4638.0,0.17231
4638.9,0.17104
4639.8,0.16989
4640.7,0.1699
4641.6,0.16917
4642.5,0.16936
4643.4,0.16881
4644.3,0.16758
4645.2,0.1655
4646.1,0.16314
4647.0,0.16172
4647.9,0.16087
4648.8,0.16048
4649.7,0.16223
4650.6,0.16377
4651.5,0.16496
4652.4,0.16835
4653.3,0.17034
4654.2,0.17096
4655.1,0.17206
4656.0,0.17273
4656.9,0.17426
4657.8,0.17609
4658.7,0.17798
4659.6,0.17992
4660.5,0.18175
4661.4,0.18157
4662.3,0.17997
4663.21,0.17723
4664.11,0.17388
4665.01,0.16994
4665.91,0.16566
4666.81,0.16145
4667.71,0.1586
4668.61,0.15727
4669.51,0.15821
4670.41,0.1591
4671.31,0.1616
4672.21,0.16484
4673.11,0.16836
4674.01,0.17025
4674.91,0.17164
4675.81,0.17281
4676.71,0.17343
4677.61,0.17315
4678.51,0.17208
4679.41,0.17109
4680.31,0.16934
4681.21,0.16868
4682.11,0.16846
4683.01,0.1682
4683.91,0.16872
4684.81,0.1696
4685.71,0.17086
4686.61,0.17205
4687.51,0.17207
4688.41,0.17224
4689.31,0.17114
4690.21,0.17168
4691.11,0.17145
4692.01,0.17103
4692.91,0.17156
4693.81,0.17183
4694.71,0.17239
4695.61,0.17407
4696.51,0.17373
4697.41,0.1722
4698.31,0.17118
4699.21,0.1691
4700.12,0.16674
4701.02,0.16512
4701.92,0.16376
4702.82,0.16362
4703.72,0.16276
4704.62,0.16244
4705.52,0.16292
4706.42,0.1638
4707.32,0.16424
4708.22,0.16465
4709.12,0.16565
4710.02,0.16632
4710.92,0.16762
4711.82,0.16832
4712.72,0.1694
4713.62,0.17058
4714.52,0.17151
4715.42,0.17261
4716.32,0.17373
4717.22,0.17698
4718.12,0.17896
4719.02,0.18126
4719.92,0.18502
4720.82,0.18607
4721.72,0.18772
4722.62,0.18781
4723.52,0.18758
4724.42,0.18687
4725.32,0.18436
4726.22,0.18255
4727.12,0.17994
4728.02,0.17579
4728.92,0.17311
4729.82,0.16976
4730.72,0.16872
4731.62,0.16845
4732.52,0.16891
4733.42,0.16997
4734.32,0.17118
4735.22,0.17373
4736.12,0.17453
4737.02,0.17564
4737.92,0.17805
4738.83,0.17917
4739.73,0.17978
4740.63,0.18034
4741.53,0.18094
4742.43,0.18145
4743.33,0.18296
4744.23,0.183
4745.13,0.18362
4746.03,0.18489
4746.93,0.18541
4747.83,0.18659
4748.73,0.18721
4749.63,0.18695
4750.53,0.18599
4751.43,0.18576
4752.33,0.18432
4753.23,0.18253
4754.13,0.18118
4755.03,0.18008
4755.93,0.17928
4756.83,0.17858
4757.73,0.17848
4758.63,0.17805
4759.53,0.17813
4760.43,0.1776
4761.33,0.17795
4762.23,0.17581
4763.13,0.17309
4764.03,0.17151
4764.93,0.16937
4765.83,0.16775
4766.73,0.16783
4767.63,0.16831
4768.53,0.16991
4769.43,0.17148
4770.33,0.17372
4771.23,0.17601
4772.13,0.17703
4773.03,0.17915
4773.93,0.18096
4774.83,0.18224
4775.73,0.18481
4776.64,0.1855
4777.54,0.18657
4778.44,0.18687
4779.34,0.18695
4780.24,0.18578
4781.14,0.18467
4782.04,0.18284
4782.94,0.18125
4783.84,0.17996
4784.74,0.17765
4785.64,0.17639
4786.54,0.17582
4787.44,0.17519
4788.34,0.17506
4789.24,0.17606
4790.14,0.17732
4791.04,0.17829
4791.94,0.18095
4792.84,0.18337
4793.74,0.18565
4794.64,0.18762
4795.54,0.19026
4796.44,0.19063
4797.34,0.19038
4798.24,0.18909
4799.14,0.18783
4800.04,0.18719
4800.94,0.18634
4801.84,0.18584
4802.74,0.18575
4803.64,0.18633
4804.54,0.18613
4805.44,0.18605
4806.34,0.18434
4807.24,0.18361
4808.14,0.18213
4809.04,0.18208
4809.94,0.1824
4810.84,0.18218
4811.74,0.18288
4812.64,0.18436
4813.54,0.18505
4814.45,0.18671
4815.35,0.18691
4816.25,0.18914
4817.15,0.19
4818.05,0.19116
4818.95,0.19237
4819.85,0.19175
