wave,flux
3700.85,0.14774
3701.75,0.14595
3702.65,0.14118
3703.55,0.13466
3704.45,0.12742
3705.35,0.12111
3706.25,0.116
3707.15,0.11395
3708.05,0.11438
3708.96,0.11643
3709.86,0.11997
3710.76,0.12394
3711.66,0.12899
3712.56,0.13636
3713.46,0.14166
3714.36,0.14755
3715.26,0.15029
3716.16,0.15022
3717.06,0.14729
3717.96,0.14164
3718.86,0.1322
3719.76,0.12239
3720.66,0.1132
3721.56,0.10773
3722.46,0.10636
3723.36,0.10986
3724.26,0.11654
3725.16,0.12409
3726.06,0.13013
3726.96,0.13372
3727.86,0.13534
3728.76,0.13601
3729.66,0.13537
3730.56,0.13257
3731.46,0.12719
3732.36,0.12064
3733.26,0.11245
3734.16,0.10337
3735.06,0.096987
3735.96,0.093079
3736.86,0.094666
3737.76,0.0994
3738.66,0.1074
3739.56,0.11741
3740.46,0.12488
3741.36,0.1303
3742.26,0.13288
3743.16,0.13072
3744.06,0.12629
3744.96,0.1201
3745.86,0.11348
3746.76,0.10747
3747.67,0.10171
3748.57,0.097794
3749.47,0.096494
3750.37,0.098055
3751.27,0.1033
3752.17,0.11208
3753.07,0.12304
3753.97,0.13339
3754.87,0.13973
3755.77,0.14382
3756.67,0.14327
3757.57,0.13955
3758.47,0.13394
3759.37,0.12975
3760.27,0.12762
3761.17,0.12842
3762.07,0.13012
3762.97,0.13278
3763.87,0.13452
3764.77,0.13559
3765.67,0.13553
3766.57,0.13493
3767.47,0.13316
3768.37,0.13259
3769.27,0.13112
3770.17,0.13165
3771.07,0.13258
3771.97,0.13589
3772.87,0.13972
3773.77,0.14476
3774.67,0.14822
3775.57,0.15228
3776.47,0.15526
3777.37,0.15725
3778.27,0.15982
3779.17,0.16274
3780.07,0.1666
3780.97,0.16915
3781.87,0.17132
3782.77,0.17226
3783.67,0.17223
3784.57,0.17009
3785.47,0.16605
3786.38,0.16012
3787.28,0.15459
3788.18,0.14932
3789.08,0.14555
3789.98,0.14313
3790.88,0.14242
3791.78,0.14127
3792.68,0.14048
3793.58,0.13769
3794.48,0.13442
3795.38,0.12981
3796.28,0.12448
3797.18,0.12032
3798.08,0.11808
3798.98,0.11785
3799.88,0.12135
3800.78,0.12729
3801.68,0.13613
3802.58,0.14529
3803.48,0.15381
3804.38,0.15878
3805.28,0.16268
3806.18,0.16271
3807.08,0.16278
3807.98,0.1629
3808.88,0.16323
3809.78,0.16491
3810.68,0.16511
3811.58,0.16493
3812.48,0.16143
3813.38,0.15606
3814.28,0.15044
3815.18,0.14424
3816.08,0.14085
3816.98,0.13886
3817.88,0.13802
3818.78,0.13711
3819.68,0.13571
3820.58,0.13386
3821.48,0.13127
3822.38,0.13033
3823.28,0.12846
3824.18,0.12648
3825.09,0.12234
3825.99,0.11897
3826.89,0.11532
3827.79,0.11303
3828.69,0.11202
3829.59,0.11115
3830.49,0.10977
3831.39,0.10752
3832.29,0.10369
3833.19,0.10002
3834.09,0.096542
3834.99,0.094614
3835.89,0.093256
3836.79,0.093534
3837.69,0.09498
3838.59,0.097167
3839.49,0.10009
3840.39,0.10497
3841.29,0.11156
3842.19,0.11924
3843.09,0.12858
3843.99,0.13672
3844.89,0.14299
3845.79,0.14838
3846.69,0.15163
3847.59,0.15306
3848.49,0.15412
3849.39,0.15378
3850.29,0.15319
3851.19,0.15395
3852.09,0.15368
3852.99,0.15405
3853.89,0.1545
3854.79,0.15231
3855.69,0.14982
3856.59,0.14574
3857.49,0.14219
3858.39,0.13837
3859.29,0.13461
3860.19,0.13392
3861.09,0.13617
3861.99,0.14028
3862.9,0.14616
3863.8,0.15129
3864.7,0.15571
3865.6,0.15699
3866.5,0.15756
3867.4,0.15721
3868.3,0.15505
3869.2,0.15386
3870.1,0.15031
3871.0,0.14668
3871.9,0.14331
3872.8,0.1404
3873.7,0.13983
3874.6,0.14116
3875.5,0.14335
3876.4,0.14386
3877.3,0.14394
3878.2,0.143
3879.1,0.14139
3880.0,0.14054
3880.9,0.13989
3881.8,0.14059
3882.7,0.13989
3883.6,0.13878
3884.5,0.1364
3885.4,0.13275
3886.3,0.12852
3887.2,0.12403
3888.1,0.1201
3889.0,0.11862
3889.9,0.12017
3890.8,0.12416
3891.7,0.12987
3892.6,0.1361
3893.5,0.14124
3894.4,0.14531
3895.3,0.14842
3896.2,0.15055
3897.1,0.15277
3898.0,0.15373
3898.9,0.15453
3899.8,0.1559
3900.7,0.15667
3901.6,0.15594
3902.51,0.15558
3903.41,0.15525
3904.31,0.15394
3905.21,0.15239
3906.11,0.15213
3907.01,0.15298
3907.91,0.15654
3908.81,0.16055
3909.71,0.1652
3910.61,0.17013
3911.51,0.1731
3912.41,0.17511
3913.31,0.17549
3914.21,0.17465
3915.11,0.17347
3916.01,0.17088
3916.91,0.16774
3917.81,0.16524
3918.71,0.16079
3919.61,0.15772
3920.51,0.15313
3921.41,0.14993
3922.31,0.14771
3923.21,0.14562
3924.11,0.14368
3925.01,0.14146
3925.91,0.13669
3926.81,0.12978
3927.71,0.12026
3928.61,0.10992
3929.51,0.097864
3930.41,0.085634
3931.31,0.073888
3932.21,0.063914
3933.11,0.055876
3934.01,0.051452
3934.91,0.05082
3935.81,0.054146
3936.71,0.061217
3937.61,0.07138
3938.51,0.083047
3939.42,0.09522
3940.32,0.10609
3941.22,0.11506
3942.12,0.12264
3943.02,0.12812
3943.92,0.13305
3944.82,0.13809
3945.72,0.14361
3946.62,0.14767
3947.52,0.15309
3948.42,0.15678
3949.32,0.16038
3950.22,0.16293
3951.12,0.16521
3952.02,0.16706
3952.92,0.16811
3953.82,0.16872
3954.72,0.16909
3955.62,0.16976
3956.52,0.16861
3957.42,0.16703
3958.32,0.16376
3959.22,0.16032
3960.12,0.15631
3961.02,0.14944
3961.92,0.14034
3962.82,0.13122
3963.72,0.12069
3964.62,0.10921
3965.52,0.097468
3966.42,0.086564
3967.32,0.075491
3968.22,0.066989
3969.12,0.061444
3970.02,0.060372
3970.92,0.0638
3971.82,0.071637
3972.72,0.082551
3973.62,0.09465
3974.52,0.10808
3975.42,0.12082
3976.32,0.13296
3977.22,0.14322
3978.13,0.1532
3979.03,0.16164
3979.93,0.16838
3980.83,0.17342
3981.73,0.17673
3982.63,0.17861
3983.53,0.18007
3984.43,0.18214
3985.33,0.18254
3986.23,0.18504
3987.13,0.18685
3988.03,0.18929
3988.93,0.19128
3989.83,0.19409
3990.73,0.19563
3991.63,0.19672
3992.53,0.19886
3993.43,0.19915
3994.33,0.19872
3995.23,0.19732
3996.13,0.19479
3997.03,0.19375
3997.93,0.19259
3998.83,0.19328
3999.73,0.19523
4000.63,0.19805
4001.53,0.20014
4002.43,0.20303
4003.33,0.20202
4004.23,0.1999
4005.13,0.19783
4006.03,0.19497
4006.93,0.19296
4007.83,0.19521
4008.73,0.19667
4009.63,0.20006
4010.53,0.2028
4011.43,0.20535
4012.33,0.2079
4013.23,0.20845
4014.13,0.20888
4015.03,0.20911
4015.93,0.20915
4016.84,0.21003
4017.74,0.21025
4018.64,0.21067
4019.54,0.21027
4020.44,0.21059
4021.34,0.21107
4022.24,0.21155
4023.14,0.21145
4024.04,0.21081
4024.94,0.21106
4025.84,0.21235
4026.74,0.21322
4027.64,0.21423
4028.54,0.21302
4029.44,0.21143
4030.34,0.20705
4031.24,0.20226
4032.14,0.19764
4033.04,0.19504
4033.94,0.19334
4034.84,0.19601
4035.74,0.20106
4036.64,0.20596
4037.54,0.21156
4038.44,0.21602
4039.34,0.21897
4040.24,0.21886
4041.14,0.21859
4042.04,0.21413
4042.94,0.20999
4043.84,0.20512
4044.74,0.19877
4045.64,0.19394
4046.54,0.1914
4047.44,0.19232
4048.34,0.19639
4049.24,0.20238
4050.14,0.20797
4051.04,0.21162
4051.94,0.21394
4052.84,0.21458
4053.74,0.21239
4054.65,0.20993
4055.55,0.2086
4056.45,0.20599
4057.35,0.20508
4058.25,0.20406
4059.15,0.20485
4060.05,0.20556
4060.95,0.20489
4061.85,0.2031
4062.75,0.20089
4063.65,0.1979
4064.55,0.19549
4065.45,0.1938
4066.35,0.19618
4067.25,0.19899
4068.15,0.20145
4069.05,0.20504
4069.95,0.20611
4070.85,0.20675
4071.75,0.20619
4072.65,0.2054
4073.55,0.20374
4074.45,0.20133
4075.35,0.2
4076.25,0.19789
4077.15,0.19472
4078.05,0.19331
4078.95,0.19348
4079.85,0.19665
4080.75,0.20041
4081.65,0.20435
4082.55,0.20905
4083.45,0.21101
4084.35,0.21144
4085.25,0.21423
4086.15,0.21396
4087.05,0.21787
4087.95,0.22168
4088.85,0.22489
4089.75,0.22778
4090.65,0.22797
4091.55,0.22788
4092.45,0.22611
4093.36,0.22332
4094.26,0.22023
4095.16,0.21649
4096.06,0.21117
4096.96,0.20649
4097.86,0.20127
4098.76,0.19484
4099.66,0.18685
4100.56,0.17981
4101.46,0.17412
4102.36,0.17129
4103.26,0.17059
4104.16,0.17445
4105.06,0.18121
4105.96,0.18815
4106.86,0.19547
4107.76,0.20185
4108.66,0.20535
4109.56,0.20661
4110.46,0.20855
4111.36,0.21045
4112.26,0.21258
4113.16,0.21392
4114.06,0.2168
4114.96,0.21875
4115.86,0.22034
4116.76,0.22043
4117.66,0.22052
4118.56,0.21884
4119.46,0.2176
4120.36,0.21567
4121.26,0.21501
4122.16,0.21458
4123.06,0.21533
4123.96,0.21622
4124.86,0.21731
4125.76,0.21788
4126.66,0.21685
4127.56,0.21716
4128.46,0.21577
4129.36,0.21364
4130.26,0.21208
4131.17,0.20816
4132.06,0.2073
4132.97,0.20542
4133.87,0.2039
4134.77,0.20579
4135.67,0.20824
4136.57,0.21241
4137.47,0.21692
4138.37,0.22045
4139.27,0.22287
4140.17,0.2226
4141.07,0.22048
4141.97,0.217
4142.87,0.21222
4143.77,0.20689
4144.67,0.20567
4145.57,0.20639
4146.47,0.208
4147.37,0.21095
4148.27,0.21329
4149.17,0.21548
4150.07,0.21583
4150.97,0.21535
4151.87,0.2144
4152.77,0.21417
4153.67,0.21146
4154.57,0.21164
4155.47,0.21136
4156.37,0.21151
4157.27,0.2122
4158.17,0.21354
4159.07,0.21625
4159.97,0.21922
4160.87,0.22094
4161.77,0.224
4162.67,0.22553
4163.57,0.22688
4164.47,0.22638
4165.37,0.22499
4166.27,0.22386
4167.17,0.22241
4168.07,0.22011
4168.98,0.21807
4169.88,0.21509
4170.78,0.21322
4171.68,0.2098
4172.58,0.20621
4173.48,0.20264
4174.38,0.20125
4175.28,0.20039
4176.18,0.20196
4177.08,0.20422
4177.98,0.20658
4178.88,0.20772
4179.78,0.21047
4180.68,0.21213
4181.58,0.21344
4182.48,0.21338
4183.38,0.21355
4184.28,0.21383
4185.18,0.21359
4186.08,0.21322
4186.98,0.21213
4187.88,0.21142
4188.78,0.21163
4189.68,0.2117
4190.58,0.21332
4191.48,0.21496
4192.38,0.21714
4193.28,0.21851
4194.18,0.21882
4195.08,0.21773
4195.98,0.21583
4196.88,0.21079
4197.78,0.20786
4198.68,0.20508
4199.58,0.20208
4200.48,0.20053
4201.38,0.19995
4202.28,0.20076
4203.18,0.20315
4204.08,0.20458
4204.98,0.20741
4205.88,0.21039
4206.79,0.21464
4207.69,0.2179
4208.59,0.21928
4209.49,0.22131
4210.39,0.22236
4211.29,0.2225
4212.19,0.22256
4213.09,0.22084
4213.99,0.21888
4214.89,0.21666
4215.79,0.21456
4216.69,0.21344
4217.59,0.215
4218.49,0.21593
4219.39,0.21818
4220.29,0.21968
4221.19,0.22045
4222.09,0.21869
4222.99,0.21457
4223.89,0.20758
4224.79,0.19938
4225.69,0.19096
4226.59,0.18494
4227.49,0.18175
4228.39,0.18353
4229.29,0.18875
4230.19,0.19688
4231.09,0.20409
4231.99,0.20895
4232.89,0.21261
4233.79,0.21255
4234.69,0.21223
4235.59,0.21066
4236.49,0.20943
4237.39,0.20814
4238.29,0.20753
4239.19,0.21014
4240.09,0.21077
4240.99,0.21374
4241.89,0.21557
4242.79,0.21784
4243.69,0.21985
4244.59,0.22122
4245.5,0.22088
4246.4,0.21883
4247.3,0.21693
4248.2,0.21411
4249.1,0.20998
4250.0,0.20822
4250.9,0.20793
4251.8,0.20703
4252.7,0.20843
4253.6,0.20902
4254.5,0.21044
4255.4,0.21085
4256.3,0.21197
4257.2,0.21178
4258.1,0.21188
4259.0,0.211
4259.9,0.20958
4260.8,0.20749
4261.7,0.2086
4262.6,0.21086
4263.5,0.21509
4264.4,0.21929
4265.3,0.22315
4266.2,0.2245
4267.1,0.22314
4268.0,0.22124
4268.9,0.21765
4269.8,0.2115
4270.7,0.2048
4271.6,0.19969
4272.5,0.19514
4273.4,0.19276
4274.3,0.19179
4275.2,0.19494
4276.1,0.19941
4277.0,0.20457
4277.9,0.20879
4278.8,0.21277
4279.7,0.21469
4280.6,0.21516
4281.5,0.2131
4282.4,0.21262
4283.31,0.21061
4284.21,0.2097
4285.11,0.20803
4286.01,0.20535
4286.91,0.20264
4287.81,0.19933
4288.71,0.19603
4289.61,0.19237
4290.51,0.19204
4291.41,0.19137
4292.31,0.19403
4293.21,0.19516
4294.11,0.1967
4295.01,0.1983
4295.91,0.19608
4296.81,0.19314
4297.71,0.18778
4298.61,0.18162
4299.51,0.17472
4300.41,0.16921
4301.31,0.16481
4302.21,0.16294
4303.11,0.16126
4304.01,0.16166
4304.91,0.16109
4305.81,0.1613
4306.71,0.16104
4307.61,0.1593
4308.51,0.15789
4309.41,0.15827
4310.31,0.15995
4311.21,0.16356
4312.11,0.16947
4313.01,0.17703
4313.91,0.18632
4314.81,0.19625
4315.71,0.20851
4316.61,0.21835
4317.51,0.22774
4318.41,0.23449
4319.31,0.23862
4320.21,0.23929
4321.12,0.23467
4322.02,0.23083
4322.92,0.22312
4323.82,0.21476
4324.72,0.20786
4325.62,0.20368
4326.52,0.20193
4327.42,0.2043
4328.32,0.20999
4329.22,0.21637
4330.12,0.22299
4331.02,0.229
4331.92,0.23169
4332.82,0.23431
4333.72,0.23442
4334.62,0.23261
4335.52,0.22933
4336.42,0.22381
4337.32,0.21433
4338.22,0.20525
4339.12,0.19696
4340.02,0.18762
4340.92,0.18367
4341.82,0.18358
4342.72,0.18684
4343.62,0.19265
4344.52,0.20106
4345.42,0.2101
4346.32,0.21687
4347.22,0.22214
4348.12,0.22573
4349.02,0.22854
4349.92,0.22737
4350.82,0.22463
4351.72,0.22277
4352.62,0.22008
4353.52,0.21956
4354.42,0.21979
4355.32,0.22129
4356.22,0.22384
4357.12,0.22658
4358.02,0.22995
4358.92,0.231
4359.83,0.23303
4360.73,0.2346
4361.63,0.23731
4362.53,0.23877
4363.43,0.24132
4364.33,0.24259
4365.23,0.24322
4366.13,0.24357
4367.03,0.24154
4367.93,0.23957
4368.83,0.23718
4369.73,0.23526
4370.63,0.23346
4371.53,0.2317
4372.43,0.22884
4373.33,0.22651
4374.23,0.22362
4375.13,0.22288
4376.03,0.22248
4376.93,0.22474
4377.83,0.22569
4378.73,0.22871
4379.63,0.22734
4380.53,0.22644
4381.43,0.22244
4382.33,0.21732
4383.23,0.21096
4384.13,0.20521
4385.03,0.2023
4385.93,0.2021
4386.83,0.20368
4387.73,0.20879
4388.63,0.21318
4389.53,0.21732
4390.43,0.22076
4391.33,0.22307
4392.23,0.225
4393.13,0.22682
4394.03,0.22788
4394.93,0.22915
4395.83,0.23067
4396.73,0.23044
4397.64,0.2336
4398.54,0.23384
4399.44,0.23364
4400.34,0.23272
4401.24,0.23126
4402.14,0.22895
4403.04,0.22594
4403.94,0.22323
4404.84,0.22275
4405.74,0.22045
4406.64,0.22124
4407.54,0.2209
4408.44,0.22412
4409.34,0.2277
4410.24,0.23195
4411.14,0.23685
4412.04,0.23966
4412.94,0.24129
4413.84,0.24082
4414.74,0.23928
4415.64,0.23836
4416.54,0.2378
4417.44,0.23647
4418.34,0.2376
4419.24,0.24135
4420.14,0.2429
4421.04,0.2441
4421.94,0.24482
4422.84,0.24551
4423.74,0.24465
4424.64,0.24354
4425.54,0.24324
4426.44,0.2421
4427.34,0.24141
4428.24,0.24221
4429.14,0.24248
4430.04,0.24112
4430.94,0.24239
4431.84,0.23925
4432.74,0.24016
4433.64,0.23791
4434.54,0.23637
4435.45,0.23653
4436.35,0.23757
4437.25,0.23945
4438.15,0.24202
4439.05,0.2441
4439.95,0.24595
4440.85,0.24753
4441.75,0.24575
4442.65,0.2439
4443.55,0.24245
4444.45,0.24205
4445.35,0.24285
4446.25,0.2447
4447.15,0.24687
4448.05,0.24846
4448.95,0.24981
4449.85,0.24934
4450.75,0.24903
4451.65,0.24777
4452.55,0.24442
4453.45,0.24144
4454.35,0.23813
4455.25,0.23461
4456.15,0.23258
4457.05,0.23
4457.95,0.22897
4458.85,0.22832
4459.75,0.22803
4460.65,0.22878
4461.55,0.23027
4462.45,0.23187
4463.35,0.2336
4464.25,0.23577
4465.15,0.23883
4466.05,0.24206
4466.95,0.24235
4467.85,0.24383
4468.75,0.24363
4469.65,0.24384
4470.55,0.24499
4471.45,0.24675
4472.35,0.24954
4473.25,0.25201
4474.16,0.25618
4475.06,0.25922
4475.96,0.26124
4476.86,0.26305
4477.76,0.26283
4478.66,0.26063
4479.56,0.25898
4480.46,0.25569
4481.36,0.25292
4482.26,0.25107
4483.16,0.25159
4484.06,0.2525
4484.96,0.25347
4485.86,0.25675
4486.76,0.25758
4487.66,0.25755
4488.56,0.25737
4489.46,0.25612
4490.36,0.25506
4491.26,0.25318
4492.16,0.25227
4493.06,0.25222
4493.96,0.2538
4494.86,0.25331
4495.76,0.2523
4496.66,0.25399
4497.56,0.2543
4498.46,0.25562
4499.36,0.25782
4500.26,0.26041
4501.16,0.26312
4502.06,0.26646
4502.96,0.26649
4503.86,0.26926
4504.76,0.27087
4505.66,0.27346
4506.56,0.27419
4507.46,0.27399
4508.36,0.27478
4509.26,0.27322
4510.17,0.27403
4511.06,0.27315
4511.97,0.27015
4512.87,0.26892
4513.77,0.26797
4514.67,0.26707
4515.57,0.2644
4516.47,0.26385
4517.37,0.26265
4518.27,0.2622
4519.17,0.26207
4520.07,0.26243
4520.97,0.26276
4521.87,0.26221
4522.77,0.25934
4523.67,0.25788
4524.57,0.25516
4525.47,0.25271
4526.37,0.24823
4527.27,0.24449
4528.17,0.24229
4529.07,0.23895
4529.97,0.23892
4530.87,0.23822
4531.77,0.23865
4532.67,0.23771
4533.57,0.2386
4534.47,0.24023
4535.37,0.24026
4536.27,0.24258
4537.17,0.24676
4538.07,0.25039
4538.97,0.25493
4539.87,0.25737
4540.77,0.25964
4541.67,0.25939
4542.57,0.26139
4543.47,0.25967
4544.37,0.25901
4545.27,0.25723
4546.17,0.25683
4547.07,0.25483
4547.97,0.25369
4548.88,0.25185
4549.77,0.25155
4550.68,0.25038
4551.58,0.25018
4552.48,0.24896
4553.38,0.24916
4554.28,0.25023
4555.18,0.24935
4556.08,0.25273
4556.98,0.25478
4557.88,0.25787
4558.78,0.26056
4559.68,0.26495
4560.58,0.26569
4561.48,0.26713
4562.38,0.2659
4563.28,0.26616
4564.18,0.2644
4565.08,0.26418
4565.98,0.26413
4566.88,0.26392
4567.78,0.26506
4568.68,0.26556
4569.58,0.26563
4570.48,0.26642
4571.38,0.2655
4572.28,0.2658
4573.18,0.26607
4574.08,0.26561
4574.98,0.26718
4575.88,0.26793
4576.78,0.26809
4577.68,0.26636
4578.58,0.26415
4579.48,0.26271
4580.38,0.2612
4581.28,0.25884
4582.18,0.25705
4583.08,0.25605
4583.98,0.2564
4584.88,0.2563
4585.78,0.25802
4586.69,0.25985
4587.58,0.26122
4588.49,0.26278
4589.39,0.26427
4590.29,0.26546
4591.19,0.26458
4592.09,0.26461
4592.99,0.2635
4593.89,0.26229
4594.79,0.26227
4595.69,0.2607
4596.59,0.26143
4597.49,0.26166
4598.39,0.26165
4599.29,0.26184
4600.19,0.26192
4601.09,0.26173
4601.99,0.2614
4602.89,0.26152
4603.79,0.26226
4604.69,0.26319
4605.59,0.26331
4606.49,0.26634
4607.39,0.26836
4608.29,0.27064
4609.19,0.27244
4610.09,0.27373
4610.99,0.27386
4611.89,0.27339
4612.79,0.27477
4613.69,0.27451
4614.59,0.27348
4615.49,0.27244
4616.39,0.27283
4617.29,0.2719
4618.19,0.27208
4619.09,0.27315
4619.99,0.27154
4620.89,0.27347
4621.79,0.27363
4622.69,0.27436
4623.59,0.2747
4624.5,0.27453
4625.4,0.27452
4626.3,0.27563
4627.2,0.27335
4628.1,0.27469
4629.0,0.2731
4629.9,0.27408
4630.8,0.27239
4631.7,0.27341
4632.6,0.2723
4633.5,0.27251
4634.4,0.27158
4635.3,0.2706
4636.2,0.26845
4637.1,0.26754
4638.0,0.26721
4638.9,0.26655
4639.8,0.26784
4640.7,0.26642
4641.6,0.26691
4642.5,0.26804
4643.4,0.26834
4644.3,0.26802
4645.2,0.26659
4646.1,0.26549
4647.0,0.2626
4647.9,0.26159
4648.8,0.26096
4649.7,0.26124
4650.6,0.26364
4651.5,0.26391
4652.4,0.2639
4653.3,0.26586
4654.2,0.26467
4655.1,0.26523
4656.0,0.2653
4656.9,0.26635
4657.8,0.26833
4658.7,0.27055
4659.6,0.27318
4660.5,0.27458
4661.4,0.27685
4662.3,0.27617
4663.21,0.27318
4664.11,0.27048
4665.01,0.26734
4665.91,0.26366
4666.81,0.25963
4667.71,0.25702
4668.61,0.25567
4669.51,0.25364
4670.41,0.25659
4671.31,0.25898
4672.21,0.26136
4673.11,0.26363
4674.01,0.26571
4674.91,0.26811
4675.81,0.26926
4676.71,0.27064
4677.61,0.27033
4678.51,0.26895
4679.41,0.268
4680.31,0.26677
4681.21,0.26574
4682.11,0.26554
4683.01,0.26599
4683.91,0.26509
4684.81,0.26706
4685.71,0.26761
4686.61,0.26892
4687.51,0.26925
4688.41,0.26982
4689.31,0.2698
4690.21,0.27012
4691.11,0.27014
4692.01,0.27039
4692.91,0.27138
4693.81,0.27259
4694.71,0.27408
4695.61,0.27424
4696.51,0.2743
4697.41,0.27424
4698.31,0.2727
4699.21,0.27057
4700.12,0.26762
4701.02,0.26635
4701.92,0.26438
4702.82,0.26256
4703.72,0.26238
4704.62,0.2608
4705.52,0.26136
4706.42,0.26115
4707.32,0.26161
4708.22,0.26024
4709.12,0.26122
4710.02,0.26167
4710.92,0.26358
4711.82,0.26546
4712.72,0.2663
4713.62,0.26737
4714.52,0.26901
4715.42,0.26985
4716.32,0.27186
4717.22,0.27258
4718.12,0.27447
4719.02,0.27667
4719.92,0.27837
4720.82,0.27883
4721.72,0.27926
4722.62,0.27968
4723.52,0.27956
4724.42,0.27909
4725.32,0.2781
4726.22,0.27578
4727.12,0.27471
4728.02,0.27271
4728.92,0.26863
4729.82,0.26668
4730.72,0.26693
4731.62,0.26589
4732.52,0.26605
4733.42,0.26619
4734.32,0.26896
4735.22,0.26976
4736.12,0.2696
4737.02,0.27048
4737.92,0.27086
4738.83,0.27264
4739.73,0.27121
4740.63,0.27237
4741.53,0.27266
4742.43,0.27268
4743.33,0.27488
4744.23,0.2753
4745.13,0.27712
4746.03,0.27727
4746.93,0.27784
4747.83,0.27925
4748.73,0.28005
4749.63,0.27812
4750.53,0.27985
4751.43,0.2785
4752.33,0.27739
4753.23,0.27553
4754.13,0.27564
4755.03,0.27417
4755.93,0.27267
4756.83,0.27177
4757.73,0.27137
4758.63,0.27149
4759.53,0.27103
4760.43,0.26865
4761.33,0.26864
4762.23,0.26721
4763.13,0.26629
4764.03,0.26423
4764.93,0.26334
4765.83,0.26197
4766.73,0.26217
4767.63,0.26415
4768.53,0.26476
4769.43,0.26545
4770.33,0.2679
4771.23,0.26974
4772.13,0.27154
4773.03,0.27272
4773.93,0.27348
4774.83,0.27448
4775.73,0.27599
4776.64,0.27701
4777.54,0.27656
4778.44,0.27748
4779.34,0.27612
4780.24,0.27566
4781.14,0.27455
4782.04,0.27334
4782.94,0.27127
4783.84,0.27043
4784.74,0.27024
4785.64,0.26832
4786.54,0.26808
4787.44,0.26811
4788.34,0.26672
4789.24,0.2673
4790.14,0.26727
4791.04,0.2692
4791.94,0.27057
4792.84,0.27264
4793.74,0.2764
4794.64,0.27687
4795.54,0.278
4796.44,0.27866
4797.34,0.27873
4798.24,0.27834
4799.14,0.27728
4800.04,0.27679
4800.94,0.27555
4801.84,0.27614
4802.74,0.27504
4803.64,0.27663
4804.54,0.27658
4805.44,0.27549
4806.34,0.27496
4807.24,0.27435
4808.14,0.27465
4809.04,0.27364
4809.94,0.27453
4810.84,0.27497
4811.74,0.27552
4812.64,0.27652
4813.54,0.27768
4814.45,0.2794
4815.35,0.28021
4816.25,0.2815
4817.15,0.28134
4818.05,0.28297
4818.95,0.28127
4819.85,0.28292
4820.75,0.28079
4821.65,0.27885
4822.55,0.28013
4823.45,0.27528
4824.35,0.27544
4825.25,0.27574
4826.15,0.27484
4827.05,0.27511
4827.95,0.27484
4828.85,0.27486
4829.75,0.27538
4830.65,0.27405
4831.55,0.2733
4832.45,0.27267
4833.35,0.2733
4834.25,0.27371
4835.15,0.27465
4836.05,0.27351
4836.95,0.27382
4837.85,0.27387
