wave,flux
3700.85,0.15785
3701.75,0.15505
3702.65,0.14959
3703.55,0.14143
3704.45,0.13165
3705.35,0.123
3706.25,0.11634
3707.15,0.11235
3708.05,0.11147
3708.96,0.11404
3709.86,0.11935
3710.76,0.12661
3711.66,0.13578
3712.56,0.14475
3713.46,0.15228
3714.36,0.15913
3715.26,0.16024
3716.16,0.15744
3717.06,0.15219
3717.96,0.14203
3718.86,0.13012
3719.76,0.11806
3720.66,0.10835
3721.56,0.10215
3722.46,0.10175
3723.36,0.10616
3724.26,0.11433
3725.16,0.12183
3726.06,0.12883
3726.96,0.13147
3727.86,0.13317
3728.76,0.13226
3729.66,0.13017
3730.56,0.12689
3731.46,0.12119
3732.36,0.11403
3733.26,0.10489
3734.16,0.095297
3735.06,0.08844
3735.96,0.085258
3736.86,0.086451
3737.76,0.091721
3738.66,0.10093
3739.56,0.11123
3740.46,0.12012
3741.36,0.1253
3742.26,0.12643
3743.16,0.12336
3744.06,0.11715
3744.96,0.1098
3745.86,0.1022
3746.76,0.096212
3747.67,0.090947
3748.57,0.087938
3749.47,0.087846
3750.37,0.091636
3751.27,0.099282
3752.17,0.10978
3753.07,0.12166
3753.97,0.13226
3754.87,0.13994
3755.77,0.1431
3756.67,0.14132
3757.57,0.13545
3758.47,0.1282
3759.37,0.12241
3760.27,0.11888
3761.17,0.11985
3762.07,0.12083
3762.97,0.12281
3763.87,0.12439
3764.77,0.12498
3765.67,0.12514
3766.57,0.12472
3767.47,0.12491
3768.37,0.12592
3769.27,0.12765
3770.17,0.13005
3771.07,0.13398
3771.97,0.13886
3772.87,0.14342
3773.77,0.14821
3774.67,0.15189
3775.57,0.1542
3776.47,0.1559
3777.37,0.15726
3778.27,0.15906
3779.17,0.16205
3780.07,0.1651
3780.97,0.16862
3781.87,0.17072
3782.77,0.17205
3783.67,0.1725
3784.57,0.16851
3785.47,0.16235
3786.38,0.15546
3787.28,0.14684
3788.18,0.13957
3789.08,0.13425
3789.98,0.13157
3790.88,0.13011
3791.78,0.12997
3792.68,0.12938
3793.58,0.12752
3794.48,0.12466
3795.38,0.12009
3796.28,0.11621
3797.18,0.11242
3798.08,0.11029
3798.98,0.11111
3799.88,0.11412
3800.78,0.12077
3801.68,0.12866
3802.58,0.13732
3803.48,0.14559
3804.38,0.1503
3805.28,0.15336
3806.18,0.15339
3807.08,0.15237
3807.98,0.15246
3808.88,0.15311
3809.78,0.15442
3810.68,0.15524
3811.58,0.1542
3812.48,0.14976
3813.38,0.14355
3814.28,0.1362
3815.18,0.12913
3816.08,0.12329
3816.98,0.11997
3817.88,0.11897
3818.78,0.1174
3819.68,0.11497
3820.58,0.11221
3821.48,0.11054
3822.38,0.10922
3823.28,0.10751
3824.18,0.10494
3825.09,0.10156
3825.99,0.098113
3826.89,0.094893
3827.79,0.092713
3828.69,0.092223
3829.59,0.092768
3830.49,0.092449
3831.39,0.091585
3832.29,0.089517
3833.19,0.087296
3834.09,0.085338
3834.99,0.084136
3835.89,0.084372
3836.79,0.08479
3837.69,0.086042
3838.59,0.086723
3839.49,0.088867
3840.39,0.092267
3841.29,0.097044
3842.19,0.10474
3843.09,0.11225
3843.99,0.11954
3844.89,0.12542
3845.79,0.13006
3846.69,0.13311
3847.59,0.13445
3848.49,0.13486
3849.39,0.13381
3850.29,0.13303
3851.19,0.13245
3852.09,0.13271
3852.99,0.13251
3853.89,0.13152
3854.79,0.12964
3855.69,0.12687
3856.59,0.12286
3857.49,0.11858
3858.39,0.11462
3859.29,0.11204
3860.19,0.1116
3861.09,0.11376
3861.99,0.11876
3862.9,0.12472
3863.8,0.13087
3864.7,0.1352
3865.6,0.13686
3866.5,0.13606
3867.4,0.13494
3868.3,0.13206
3869.2,0.12863
3870.1,0.12484
3871.0,0.12135
3871.9,0.11887
3872.8,0.11862
3873.7,0.12051
3874.6,0.1249
3875.5,0.12877
3876.4,0.13079
3877.3,0.13078
3878.2,0.12959
3879.1,0.12708
3880.0,0.12511
3880.9,0.12409
3881.8,0.1235
3882.7,0.12387
3883.6,0.12331
3884.5,0.12342
3885.4,0.12134
3886.3,0.11858
3887.2,0.11539
3888.1,0.11415
3889.0,0.11527
3889.9,0.11909
3890.8,0.12527
3891.7,0.13268
3892.6,0.1395
3893.5,0.14653
3894.4,0.1499
3895.3,0.15236
3896.2,0.15358
3897.1,0.15402
3898.0,0.15498
3898.9,0.15633
3899.8,0.15607
3900.7,0.15626
3901.6,0.15641
3902.51,0.15535
3903.41,0.15339
3904.31,0.15101
3905.21,0.14947
3906.11,0.14876
3907.01,0.15158
3907.91,0.15576
3908.81,0.1616
3909.71,0.16726
3910.61,0.1731
3911.51,0.17722
3912.41,0.18043
3913.31,0.18087
3914.21,0.18025
3915.11,0.17894
3916.01,0.17607
3916.91,0.17234
3917.81,0.16821
3918.71,0.16358
3919.61,0.15706
3920.51,0.15214
3921.41,0.14693
3922.31,0.14439
3923.21,0.14178
3924.11,0.14016
3925.01,0.13712
3925.91,0.13289
3926.81,0.1259
3927.71,0.11643
3928.61,0.10534
3929.51,0.093089
3930.41,0.081694
3931.31,0.070338
3932.21,0.060997
3933.11,0.053951
3934.01,0.050242
3934.91,0.049991
3935.81,0.053432
3936.71,0.060137
3937.61,0.069871
3938.51,0.081102
3939.42,0.092484
3940.32,0.10263
3941.22,0.11154
3942.12,0.11803
3943.02,0.1226
3943.92,0.12689
3944.82,0.13159
3945.72,0.13762
3946.62,0.14419
3947.52,0.15023
3948.42,0.15707
3949.32,0.16315
3950.22,0.16698
3951.12,0.17064
3952.02,0.17238
3952.92,0.17462
3953.82,0.17567
3954.72,0.17511
3955.62,0.17492
3956.52,0.17398
3957.42,0.17161
3958.32,0.16837
3959.22,0.16452
3960.12,0.15903
3961.02,0.15019
3961.92,0.13983
3962.82,0.12834
3963.72,0.11681
3964.62,0.10593
3965.52,0.094921
3966.42,0.084222
3967.32,0.074249
3968.22,0.066177
3969.12,0.061602
3970.02,0.061379
3970.92,0.065433
3971.82,0.073296
3972.72,0.083732
3973.62,0.096664
3974.52,0.11029
3975.42,0.12223
3976.32,0.13537
3977.22,0.14715
3978.13,0.15906
3979.03,0.16903
3979.93,0.17822
3980.83,0.18474
3981.73,0.18732
3982.63,0.19083
3983.53,0.19201
3984.43,0.19292
3985.33,0.19453
3986.23,0.19644
3987.13,0.19883
3988.03,0.20212
3988.93,0.20498
3989.83,0.20757
3990.73,0.20902
3991.63,0.21131
3992.53,0.21349
3993.43,0.21412
3994.33,0.21361
3995.23,0.21301
3996.13,0.21023
3997.03,0.20959
3997.93,0.2096
3998.83,0.2113
3999.73,0.21497
4000.63,0.21843
4001.53,0.2222
4002.43,0.2247
4003.33,0.22345
4004.23,0.2212
4005.13,0.21678
4006.03,0.21256
4006.93,0.20962
4007.83,0.21071
4008.73,0.21327
4009.63,0.21831
4010.53,0.22233
4011.43,0.22603
4012.33,0.22804
4013.23,0.23057
4014.13,0.23183
4015.03,0.23298
4015.93,0.234
4016.84,0.23453
4017.74,0.23571
4018.64,0.236
4019.54,0.23731
4020.44,0.23789
4021.34,0.23822
4022.24,0.2365
4023.14,0.2357
4024.04,0.23501
4024.94,0.23482
4025.84,0.23481
4026.74,0.23717
4027.64,0.23747
4028.54,0.23561
4029.44,0.23175
4030.34,0.22566
4031.24,0.21669
4032.14,0.20772
4033.04,0.20267
4033.94,0.20058
4034.84,0.20367
4035.74,0.20976
4036.64,0.21958
4037.54,0.22747
4038.44,0.2349
4039.34,0.24062
4040.24,0.24162
4041.14,0.23985
4042.04,0.23656
4042.94,0.22873
4043.84,0.21997
4044.74,0.21181
4045.64,0.20291
4046.54,0.19865
4047.44,0.20023
4048.34,0.20616
4049.24,0.21528
4050.14,0.22417
4051.04,0.22953
4051.94,0.23468
4052.84,0.2329
4053.74,0.23099
4054.65,0.22692
4055.55,0.22254
4056.45,0.2176
4057.35,0.21404
4058.25,0.21239
4059.15,0.21227
4060.05,0.21261
4060.95,0.2118
4061.85,0.20989
4062.75,0.20644
4063.65,0.20299
4064.55,0.19941
4065.45,0.19964
4066.35,0.20182
4067.25,0.20638
4068.15,0.2115
4069.05,0.21626
4069.95,0.21885
4070.85,0.21937
4071.75,0.21829
4072.65,0.21761
4073.55,0.21615
4074.45,0.21416
4075.35,0.21243
4076.25,0.21038
4077.15,0.20755
4078.05,0.20619
4078.95,0.2076
4079.85,0.21253
4080.75,0.21878
4081.65,0.22646
4082.55,0.23169
4083.45,0.23404
4084.35,0.23519
4085.25,0.23721
4086.15,0.23861
4087.05,0.24131
4087.95,0.24523
4088.85,0.24993
4089.75,0.25273
4090.65,0.25212
4091.55,0.25295
4092.45,0.24969
4093.36,0.24549
4094.26,0.24045
4095.16,0.23624
4096.06,0.22859
4096.96,0.22289
4097.86,0.21493
4098.76,0.20801
4099.66,0.20044
4100.56,0.1942
4101.46,0.18846
4102.36,0.18653
4103.26,0.18737
4104.16,0.19185
4105.06,0.19867
4105.96,0.20859
4106.86,0.21683
4107.76,0.22168
4108.66,0.22534
4109.56,0.22844
4110.46,0.22839
4111.36,0.22821
4112.26,0.2304
4113.16,0.23242
4114.06,0.23561
4114.96,0.2394
4115.86,0.24025
4116.76,0.24153
4117.66,0.24131
4118.56,0.23892
4119.46,0.23652
4120.36,0.2345
4121.26,0.23322
4122.16,0.23257
4123.06,0.23232
4123.96,0.23389
4124.86,0.23509
4125.76,0.2354
4126.66,0.23465
4127.56,0.23342
4128.46,0.2305
4129.36,0.22737
4130.26,0.22408
4131.17,0.21979
4132.06,0.21612
4132.97,0.21402
4133.87,0.21415
4134.77,0.21637
4135.67,0.22131
4136.57,0.2261
4137.47,0.23287
4138.37,0.2364
4139.27,0.24063
4140.17,0.23955
4141.07,0.23739
4141.97,0.23038
4142.87,0.22457
4143.77,0.21825
4144.67,0.21558
4145.57,0.21496
4146.47,0.21694
4147.37,0.22085
4148.27,0.22329
4149.17,0.22516
4150.07,0.22555
4150.97,0.22357
4151.87,0.22208
4152.77,0.22071
4153.67,0.21895
4154.57,0.21692
4155.47,0.21706
4156.37,0.21763
4157.27,0.21865
4158.17,0.22049
4159.07,0.2253
4159.97,0.22944
4160.87,0.23317
4161.77,0.23799
4162.67,0.24092
4163.57,0.24226
4164.47,0.24328
4165.37,0.24114
4166.27,0.23901
4167.17,0.235
4168.07,0.23343
4168.98,0.23057
4169.88,0.22804
4170.78,0.22467
4171.68,0.22106
4172.58,0.21679
4173.48,0.21218
4174.38,0.2093
4175.28,0.20856
4176.18,0.20916
4177.08,0.21079
4177.98,0.21258
4178.88,0.21581
4179.78,0.217
4180.68,0.21826
4181.58,0.22055
4182.48,0.22212
4183.38,0.22297
4184.28,0.2251
4185.18,0.22564
4186.08,0.22626
4186.98,0.22602
4187.88,0.22587
4188.78,0.22488
4189.68,0.22688
4190.58,0.22939
4191.48,0.23184
4192.38,0.23327
4193.28,0.23525
4194.18,0.23516
4195.08,0.23219
4195.98,0.22852
4196.88,0.22289
4197.78,0.21787
4198.68,0.21292
4199.58,0.2093
4200.48,0.20869
4201.38,0.20906
4202.28,0.21102
4203.18,0.21327
4204.08,0.21798
4204.98,0.22354
4205.88,0.22984
4206.79,0.23482
4207.69,0.23854
4208.59,0.24124
4209.49,0.24523
4210.39,0.24483
4211.29,0.24365
4212.19,0.24347
4213.09,0.24082
4213.99,0.23838
4214.89,0.23483
4215.79,0.23308
4216.69,0.23428
4217.59,0.23594
4218.49,0.24094
4219.39,0.24547
4220.29,0.24926
4221.19,0.25035
4222.09,0.24665
4222.99,0.23987
4223.89,0.22811
4224.79,0.21624
4225.69,0.20263
4226.59,0.19334
4227.49,0.18943
4228.39,0.19206
4229.29,0.19883
4230.19,0.21029
4231.09,0.22091
4231.99,0.22964
4232.89,0.23537
4233.79,0.23725
4234.69,0.23507
4235.59,0.23304
4236.49,0.2304
4237.39,0.22832
4238.29,0.22969
4239.19,0.23186
4240.09,0.2347
4240.99,0.24004
4241.89,0.24442
4242.79,0.24987
4243.69,0.25362
4244.59,0.25636
4245.5,0.25745
4246.4,0.25641
4247.3,0.25141
4248.2,0.2467
4249.1,0.24043
4250.0,0.23461
4250.9,0.23097
4251.8,0.22772
4252.7,0.22828
4253.6,0.22831
4254.5,0.23097
4255.4,0.2321
4256.3,0.23407
4257.2,0.23425
4258.1,0.2346
4259.0,0.23374
4259.9,0.23135
4260.8,0.22979
4261.7,0.23212
4262.6,0.23536
4263.5,0.24389
4264.4,0.2504
4265.3,0.25662
4266.2,0.25985
4267.1,0.25936
4268.0,0.25479
4268.9,0.24738
4269.8,0.2365
4270.7,0.22646
4271.6,0.21587
4272.5,0.20847
4273.4,0.2039
4274.3,0.20461
4275.2,0.20845
4276.1,0.21635
4277.0,0.22482
4277.9,0.23392
4278.8,0.24006
4279.7,0.24378
4280.6,0.24558
4281.5,0.24585
4282.4,0.24347
4283.31,0.24387
4284.21,0.24025
4285.11,0.23902
4286.01,0.23503
4286.91,0.23066
4287.81,0.22684
4288.71,0.22161
4289.61,0.21665
4290.51,0.21449
4291.41,0.21381
4292.31,0.21564
4293.21,0.21808
4294.11,0.22165
4295.01,0.22188
4295.91,0.22126
4296.81,0.21753
4297.71,0.21067
4298.61,0.2032
4299.51,0.19344
4300.41,0.18747
4301.31,0.18142
4302.21,0.17717
4303.11,0.17532
4304.01,0.17583
4304.91,0.17511
4305.81,0.17451
4306.71,0.17234
4307.61,0.17064
4308.51,0.1688
4309.41,0.1692
4310.31,0.17255
4311.21,0.17956
4312.11,0.18795
4313.01,0.20027
4313.91,0.21447
4314.81,0.2291
4315.71,0.24393
4316.61,0.25957
4317.51,0.27126
4318.41,0.28015
4319.31,0.28427
4320.21,0.28271
4321.12,0.27889
4322.02,0.26936
4322.92,0.25909
4323.82,0.24631
4324.72,0.23545
4325.62,0.22747
4326.52,0.22472
4327.42,0.22789
4328.32,0.23609
4329.22,0.24826
4330.12,0.25901
4331.02,0.26796
4331.92,0.2747
4332.82,0.27931
4333.72,0.28004
4334.62,0.28053
4335.52,0.27551
4336.42,0.26721
4337.32,0.25655
4338.22,0.24395
4339.12,0.23011
4340.02,0.22047
4340.92,0.21369
4341.82,0.21325
4342.72,0.21806
4343.62,0.22586
4344.52,0.23642
4345.42,0.2471
4346.32,0.25607
4347.22,0.26334
4348.12,0.26935
4349.02,0.27115
4349.92,0.27069
4350.82,0.26701
4351.72,0.26203
4352.62,0.2574
4353.52,0.25493
4354.42,0.25512
4355.32,0.25808
4356.22,0.26193
4357.12,0.2651
4358.02,0.26997
4358.92,0.27299
4359.83,0.27647
4360.73,0.27782
4361.63,0.28272
4362.53,0.28729
4363.43,0.29005
4364.33,0.29322
4365.23,0.29576
4366.13,0.29516
4367.03,0.29207
4367.93,0.28885
4368.83,0.28403
4369.73,0.28044
4370.63,0.27639
4371.53,0.27308
4372.43,0.27057
4373.33,0.26636
4374.23,0.26269
4375.13,0.26115
4376.03,0.25977
4376.93,0.26099
4377.83,0.2636
4378.73,0.2642
4379.63,0.2638
4380.53,0.26091
4381.43,0.25303
4382.33,0.24362
4383.23,0.23212
4384.13,0.22264
4385.03,0.21752
4385.93,0.21768
4386.83,0.22142
4387.73,0.22901
4388.63,0.23488
4389.53,0.2423
4390.43,0.24765
4391.33,0.25091
4392.23,0.25503
4393.13,0.25709
4394.03,0.2601
4394.93,0.26419
4395.83,0.26769
4396.73,0.27137
4397.64,0.27356
4398.54,0.2759
4399.44,0.27657
4400.34,0.27322
4401.24,0.27055
4402.14,0.26456
4403.04,0.25839
4403.94,0.252
4404.84,0.24652
4405.74,0.24461
4406.64,0.2421
4407.54,0.24247
4408.44,0.24908
4409.34,0.25613
4410.24,0.26499
4411.14,0.27216
4412.04,0.27801
4412.94,0.2824
4413.84,0.28217
4414.74,0.27917
4415.64,0.2771
4416.54,0.27496
4417.44,0.27544
4418.34,0.27788
4419.24,0.28111
4420.14,0.28449
4421.04,0.28655
4421.94,0.2882
4422.84,0.28653
4423.74,0.28394
4424.64,0.28218
4425.54,0.28215
4426.44,0.28266
4427.34,0.28231
4428.24,0.28386
4429.14,0.28316
4430.04,0.28252
4430.94,0.28173
4431.84,0.27925
4432.74,0.27696
4433.64,0.27465
4434.54,0.27278
4435.45,0.2721
4436.35,0.27314
4437.25,0.27629
4438.15,0.28031
4439.05,0.28459
4439.95,0.2869
4440.85,0.28868
4441.75,0.28751
4442.65,0.28597
4443.55,0.28457
4444.45,0.28583
4445.35,0.28838
4446.25,0.29244
4447.15,0.29678
4448.05,0.30004
4448.95,0.30163
4449.85,0.30103
4450.75,0.30022
4451.65,0.29693
4452.55,0.29207
4453.45,0.28647
4454.35,0.27901
4455.25,0.27241
4456.15,0.26599
4457.05,0.26218
4457.95,0.25997
4458.85,0.25601
4459.75,0.25618
4460.65,0.25653
4461.55,0.25734
4462.45,0.26089
4463.35,0.26451
4464.25,0.27048
4465.15,0.27348
4466.05,0.27753
4466.95,0.28016
4467.85,0.28238
4468.75,0.28374
4469.65,0.285
4470.55,0.28718
4471.45,0.29
4472.35,0.29451
4473.25,0.29937
4474.16,0.3055
4475.06,0.30905
4475.96,0.31226
4476.86,0.31472
4477.76,0.31387
4478.66,0.31235
4479.56,0.30854
4480.46,0.30191
4481.36,0.2975
4482.26,0.29497
4483.16,0.29477
4484.06,0.29859
4484.96,0.3023
4485.86,0.30609
4486.76,0.30881
4487.66,0.30902
4488.56,0.30725
4489.46,0.30437
4490.36,0.30116
4491.26,0.29938
4492.16,0.29677
4493.06,0.29486
4493.96,0.29416
4494.86,0.29445
4495.76,0.29395
4496.66,0.29482
4497.56,0.29737
4498.46,0.30171
4499.36,0.3063
4500.26,0.30951
4501.16,0.31461
4502.06,0.31911
4502.96,0.32348
4503.86,0.32731
4504.76,0.33171
4505.66,0.33399
4506.56,0.33515
4507.46,0.33555
4508.36,0.33538
4509.26,0.33391
4510.17,0.33311
4511.06,0.33111
4511.97,0.32828
4512.87,0.32555
4513.77,0.32244
4514.67,0.31849
4515.57,0.31635
4516.47,0.31512
4517.37,0.31477
4518.27,0.3148
4519.17,0.31658
4520.07,0.31765
4520.97,0.31758
4521.87,0.31725
4522.77,0.31566
4523.67,0.31188
4524.57,0.30634
4525.47,0.30012
4526.37,0.29159
4527.27,0.28494
4528.17,0.2785
4529.07,0.27389
4529.97,0.27168
4530.87,0.27062
4531.77,0.27191
4532.67,0.27412
4533.57,0.2757
4534.47,0.27886
4535.37,0.28231
4536.27,0.28716
4537.17,0.294
4538.07,0.29762
4538.97,0.30249
4539.87,0.30751
4540.77,0.30733
4541.67,0.30773
4542.57,0.30878
4543.47,0.30902
4544.37,0.30686
4545.27,0.30641
4546.17,0.30479
4547.07,0.30314
4547.97,0.30082
4548.88,0.29911
4549.77,0.29715
4550.68,0.29683
4551.58,0.29561
4552.48,0.29591
4553.38,0.29577
4554.28,0.29679
4555.18,0.29898
4556.08,0.30343
4556.98,0.30642
4557.88,0.3101
4558.78,0.31887
4559.68,0.32178
4560.58,0.32337
4561.48,0.32482
4562.38,0.32435
4563.28,0.32323
4564.18,0.31946
4565.08,0.31666
4565.98,0.31576
4566.88,0.31584
4567.78,0.31617
4568.68,0.32002
4569.58,0.32212
4570.48,0.32147
4571.38,0.3217
4572.28,0.32123
4573.18,0.32093
4574.08,0.32409
4574.98,0.32258
4575.88,0.32503
4576.78,0.32412
4577.68,0.32218
4578.58,0.31839
4579.48,0.31312
4580.38,0.30956
4581.28,0.30577
4582.18,0.30227
4583.08,0.30047
4583.98,0.30163
4584.88,0.30185
4585.78,0.3031
4586.69,0.30424
4587.58,0.30779
4588.49,0.31203
4589.39,0.31446
4590.29,0.31652
4591.19,0.316
4592.09,0.31349
4592.99,0.312
4593.89,0.31079
4594.79,0.30677
4595.69,0.30446
4596.59,0.30379
4597.49,0.3035
4598.39,0.30326
4599.29,0.30391
4600.19,0.30412
4601.09,0.30621
4601.99,0.30546
4602.89,0.30813
4603.79,0.30888
4604.69,0.3095
4605.59,0.31167
4606.49,0.31486
4607.39,0.31932
4608.29,0.32435
4609.19,0.32836
4610.09,0.33255
4610.99,0.33247
4611.89,0.3343
4612.79,0.33264
4613.69,0.33179
4614.59,0.3308
4615.49,0.3323
4616.39,0.33108
4617.29,0.33278
4618.19,0.33287
4619.09,0.33336
4619.99,0.33325
4620.89,0.33291
4621.79,0.33647
4622.69,0.33443
4623.59,0.33406
4624.5,0.33252
4625.4,0.33352
4626.3,0.33271
4627.2,0.33346
4628.1,0.33153
4629.0,0.33116
4629.9,0.33118
4630.8,0.33212
4631.7,0.32974
4632.6,0.32927
4633.5,0.3276
4634.4,0.32484
4635.3,0.3224
4636.2,0.31968
4637.1,0.31533
4638.0,0.31402
4638.9,0.31062
4639.8,0.31053
4640.7,0.31052
4641.6,0.30989
4642.5,0.30955
4643.4,0.30801
4644.3,0.30654
4645.2,0.30265
4646.1,0.30067
4647.0,0.29695
4647.9,0.29391
4648.8,0.2959
4649.7,0.29647
4650.6,0.30038
4651.5,0.30338
4652.4,0.30818
4653.3,0.31091
4654.2,0.3132
4655.1,0.3139
4656.0,0.31401
4656.9,0.31533
4657.8,0.32002
4658.7,0.32233
4659.6,0.32708
4660.5,0.32748
4661.4,0.32893
4662.3,0.32738
4663.21,0.32263
4664.11,0.31768
4665.01,0.30943
4665.91,0.30058
4666.81,0.29377
4667.71,0.28948
4668.61,0.28723
4669.51,0.28844
4670.41,0.29074
4671.31,0.29582
4672.21,0.30124
4673.11,0.30664
4674.01,0.31092
4674.91,0.31229
4675.81,0.31514
4676.71,0.31532
4677.61,0.316
4678.51,0.31367
4679.41,0.31141
4680.31,0.31054
4681.21,0.30955
4682.11,0.30873
4683.01,0.30882
4683.91,0.30882
4684.81,0.31083
4685.71,0.31202
4686.61,0.31405
4687.51,0.31386
4688.41,0.31357
4689.31,0.31387
4690.21,0.31345
4691.11,0.31278
4692.01,0.31295
4692.91,0.31267
4693.81,0.31483
4694.71,0.31509
4695.61,0.31528
4696.51,0.31564
4697.41,0.31446
4698.31,0.31224
4699.21,0.30859
4700.12,0.30636
4701.02,0.30365
4701.92,0.29945
4702.82,0.29706
4703.72,0.29812
4704.62,0.29729
4705.52,0.29891
4706.42,0.29977
4707.32,0.29995
4708.22,0.30098
4709.12,0.30205
4710.02,0.30263
4710.92,0.30518
4711.82,0.30806
4712.72,0.30924
4713.62,0.31049
4714.52,0.31169
4715.42,0.31519
4716.32,0.31618
4717.22,0.32041
4718.12,0.32601
4719.02,0.33041
4719.92,0.33288
4720.82,0.33546
4721.72,0.3392
4722.62,0.34022
4723.52,0.3388
4724.42,0.33788
4725.32,0.33488
4726.22,0.33129
4727.12,0.32526
4728.02,0.31902
4728.92,0.31393
4729.82,0.30907
4730.72,0.30688
4731.62,0.30578
4732.52,0.30595
4733.42,0.30855
4734.32,0.31172
4735.22,0.3152
4736.12,0.31692
4737.02,0.31972
4737.92,0.32225
4738.83,0.32292
4739.73,0.32409
4740.63,0.32492
4741.53,0.3287
4742.43,0.32802
4743.33,0.33005
4744.23,0.3314
4745.13,0.33282
4746.03,0.33395
4746.93,0.33496
4747.83,0.33608
4748.73,0.33679
4749.63,0.33704
4750.53,0.33574
4751.43,0.33506
4752.33,0.33239
4753.23,0.33021
4754.13,0.32747
4755.03,0.32636
4755.93,0.32316
4756.83,0.32342
4757.73,0.32237
4758.63,0.32289
4759.53,0.32332
4760.43,0.32257
4761.33,0.31937
4762.23,0.31835
4763.13,0.31614
4764.03,0.31063
4764.93,0.30927
4765.83,0.30558
4766.73,0.30538
4767.63,0.30646
4768.53,0.30956
4769.43,0.312
4770.33,0.31709
4771.23,0.31949
4772.13,0.32287
4773.03,0.32452
4773.93,0.32905
4774.83,0.33134
4775.73,0.33337
4776.64,0.33672
4777.54,0.33764
4778.44,0.33949
4779.34,0.33817
4780.24,0.33689
4781.14,0.33455
4782.04,0.33157
4782.94,0.3296
4783.84,0.32727
4784.74,0.32335
4785.64,0.32193
4786.54,0.32141
4787.44,0.3182
4788.34,0.31998
4789.24,0.31961
4790.14,0.3213
4791.04,0.32411
4791.94,0.32643
4792.84,0.33034
4793.74,0.33486
4794.64,0.33902
4795.54,0.34345
4796.44,0.34289
4797.34,0.34249
4798.24,0.33942
4799.14,0.33844
4800.04,0.33588
4800.94,0.33543
4801.84,0.33457
4802.74,0.33647
4803.64,0.3362
4804.54,0.33578
4805.44,0.33414
4806.34,0.3328
4807.24,0.33088
4808.14,0.32977
4809.04,0.32974
4809.94,0.32859
4810.84,0.32958
4811.74,0.33144
4812.64,0.33065
4813.54,0.33248
4814.45,0.33553
4815.35,0.33704
4816.25,0.34003
4817.15,0.34119
4818.05,0.34364
4818.95,0.34402
4819.85,0.34725
4820.75,0.34556
4821.65,0.34238
4822.55,0.34065
4823.45,0.33648
4824.35,0.3336
4825.25,0.33192
4826.15,0.32994
4827.05,0.33048
4827.95,0.33086
4828.85,0.32943
4829.75,0.32944
4830.65,0.3291
4831.55,0.3287
4832.45,0.32875
4833.35,0.32945
4834.25,0.3294
4835.15,0.32948
4836.05,0.33003
4836.95,0.3316
