wave,flux
3700.85,0.29081
3701.75,0.28763
3702.65,0.28007
3703.55,0.26911
3704.45,0.25837
3705.35,0.24934
3706.25,0.24282
3707.15,0.24322
3708.05,0.24448
3708.96,0.24741
3709.86,0.25129
3710.76,0.25664
3711.66,0.26183
3712.56,0.26901
3713.46,0.2775
3714.36,0.28764
3715.26,0.29534
3716.16,0.30086
3717.06,0.2995
3717.96,0.29449
3718.86,0.28227
3719.76,0.26594
3720.66,0.25006
3721.56,0.23784
3722.46,0.23324
3723.36,0.23717
3724.26,0.24793
3725.16,0.26161
3726.06,0.27427
3726.96,0.28413
3727.86,0.28737
3728.76,0.29031
3729.66,0.28767
3730.56,0.28318
3731.46,0.27401
3732.36,0.26041
3733.26,0.24357
3734.16,0.22782
3735.06,0.21565
3735.96,0.21171
3736.86,0.21604
3737.76,0.22832
3738.66,0.24551
3739.56,0.26327
3740.46,0.27974
3741.36,0.2902
3742.26,0.29393
3743.16,0.29174
3744.06,0.28553
3744.96,0.27608
3745.86,0.2645
3746.76,0.25177
3747.67,0.23865
3748.57,0.22645
3749.47,0.21788
3750.37,0.2165
3751.27,0.2235
3752.17,0.23772
3753.07,0.25664
3753.97,0.27587
3754.87,0.29333
3755.77,0.30346
3756.67,0.30906
3757.57,0.30509
3758.47,0.29874
3759.37,0.29401
3760.27,0.29023
3761.17,0.29323
3762.07,0.29737
3762.97,0.30169
3763.87,0.30341
3764.77,0.30525
3765.67,0.30442
3766.57,0.2993
3767.47,0.29012
3768.37,0.28153
3769.27,0.27296
3770.17,0.26755
3771.07,0.26512
3771.97,0.26757
3772.87,0.2753
3773.77,0.28742
3774.67,0.29842
3775.57,0.31047
3776.47,0.32017
3777.37,0.32971
3778.27,0.33841
3779.17,0.34589
3780.07,0.35601
3780.97,0.36188
3781.87,0.36666
3782.77,0.36981
3783.67,0.37001
3784.57,0.36498
3785.47,0.36196
3786.38,0.35425
3787.28,0.34334
3788.18,0.33602
3789.08,0.32832
3789.98,0.32388
3790.88,0.31955
3791.78,0.31675
3792.68,0.30946
3793.58,0.30122
3794.48,0.28938
3795.38,0.27794
3796.28,0.26367
3797.18,0.2516
3798.08,0.24537
3798.98,0.24324
3799.88,0.25133
3800.78,0.26463
3801.68,0.28514
3802.58,0.30474
3803.48,0.32303
3804.38,0.33652
3805.28,0.34603
3806.18,0.35013
3807.08,0.35308
3807.98,0.35722
3808.88,0.36148
3809.78,0.36583
3810.68,0.36905
3811.58,0.36882
3812.48,0.36428
3813.38,0.35753
3814.28,0.34871
3815.18,0.34253
3816.08,0.33901
3816.98,0.33874
3817.88,0.33906
3818.78,0.33783
3819.68,0.3365
3820.58,0.33368
3821.48,0.33164
3822.38,0.32907
3823.28,0.32394
3824.18,0.31897
3825.09,0.31223
3825.99,0.30557
3826.89,0.29764
3827.79,0.28959
3828.69,0.2866
3829.59,0.28
3830.49,0.27227
3831.39,0.26344
3832.29,0.25092
3833.19,0.2375
3834.09,0.22549
3834.99,0.2164
3835.89,0.20996
3836.79,0.21097
3837.69,0.21578
3838.59,0.22408
3839.49,0.236
3840.39,0.2503
3841.29,0.26622
3842.19,0.28455
3843.09,0.30174
3843.99,0.31788
3844.89,0.33026
3845.79,0.34017
3846.69,0.348
3847.59,0.35399
3848.49,0.35665
3849.39,0.36042
3850.29,0.36254
3851.19,0.3641
3852.09,0.36639
3852.99,0.36848
3853.89,0.3704
3854.79,0.36947
3855.69,0.36533
3856.59,0.36203
3857.49,0.35665
3858.39,0.3518
3859.29,0.34844
3860.19,0.34703
3861.09,0.35009
3861.99,0.35765
3862.9,0.36486
3863.8,0.37148
3864.7,0.37751
3865.6,0.37883
3866.5,0.3799
3867.4,0.37806
3868.3,0.38004
3869.2,0.37594
3870.1,0.37142
3871.0,0.36385
3871.9,0.35595
3872.8,0.35146
3873.7,0.34851
3874.6,0.34722
3875.5,0.34579
3876.4,0.34616
3877.3,0.34449
3878.2,0.34271
3879.1,0.33772
3880.0,0.3351
3880.9,0.3332
3881.8,0.33185
3882.7,0.32881
3883.6,0.32242
3884.5,0.31375
3885.4,0.30161
3886.3,0.2869
3887.2,0.27118
3888.1,0.25906
3889.0,0.25146
3889.9,0.24908
3890.8,0.25465
3891.7,0.26576
3892.6,0.28015
3893.5,0.29461
3894.4,0.3058
3895.3,0.3154
3896.2,0.32526
3897.1,0.33159
3898.0,0.33847
3898.9,0.34256
3899.8,0.34659
3900.7,0.35027
3901.6,0.35281
3902.51,0.35418
3903.41,0.35392
3904.31,0.35478
3905.21,0.35389
3906.11,0.35351
3907.01,0.35668
3907.91,0.36061
3908.81,0.36872
3909.71,0.37726
3910.61,0.38328
3911.51,0.38939
3912.41,0.39038
3913.31,0.39275
3914.21,0.38965
3915.11,0.38823
3916.01,0.38255
3916.91,0.38027
3917.81,0.37581
3918.71,0.3693
3919.61,0.3653
3920.51,0.36113
3921.41,0.35803
3922.31,0.35526
3923.21,0.35124
3924.11,0.3494
3925.01,0.34595
3925.91,0.33748
3926.81,0.32328
3927.71,0.30582
3928.61,0.28308
3929.51,0.25797
3930.41,0.23094
3931.31,0.20214
3932.21,0.17615
3933.11,0.15492
3934.01,0.14238
3934.91,0.14003
3935.81,0.14864
3936.71,0.16682
3937.61,0.1922
3938.51,0.22104
3939.42,0.25003
3940.32,0.27473
3941.22,0.29534
3942.12,0.31013
3943.02,0.32204
3943.92,0.3313
3944.82,0.33888
3945.72,0.34528
3946.62,0.35285
3947.52,0.35869
3948.42,0.36426
3949.32,0.36826
3950.22,0.37026
3951.12,0.37386
3952.02,0.37351
3952.92,0.37535
3953.82,0.37616
3954.72,0.37622
3955.62,0.37429
3956.52,0.37396
3957.42,0.36921
3958.32,0.36574
3959.22,0.36003
3960.12,0.35107
3961.02,0.34121
3961.92,0.3267
3962.82,0.30776
3963.72,0.28752
3964.62,0.26408
3965.52,0.23907
3966.42,0.21166
3967.32,0.18488
3968.22,0.16342
3969.12,0.1491
3970.02,0.1434
3970.92,0.14999
3971.82,0.16517
3972.72,0.18936
3973.62,0.21464
3974.52,0.24264
3975.42,0.26857
3976.32,0.29344
3977.22,0.31402
3978.13,0.33354
3979.03,0.34925
3979.93,0.36123
3980.83,0.37037
3981.73,0.37904
3982.63,0.38187
3983.53,0.3856
3984.43,0.38943
3985.33,0.39165
3986.23,0.3962
3987.13,0.40028
3988.03,0.40509
3988.93,0.40947
3989.83,0.41155
3990.73,0.41711
3991.63,0.41893
3992.53,0.42274
3993.43,0.42458
3994.33,0.42384
3995.23,0.4229
3996.13,0.41892
3997.03,0.41514
3997.93,0.41269
3998.83,0.41459
3999.73,0.41949
4000.63,0.42262
4001.53,0.42601
4002.43,0.43045
4003.33,0.43184
4004.23,0.42939
4005.13,0.42504
4006.03,0.42036
4006.93,0.41884
4007.83,0.42235
4008.73,0.42525
4009.63,0.43044
4010.53,0.4345
4011.43,0.43859
4012.33,0.44136
4013.23,0.4421
4014.13,0.44173
4015.03,0.44194
4015.93,0.44382
4016.84,0.44267
4017.74,0.44442
4018.64,0.44522
4019.54,0.44589
4020.44,0.44663
4021.34,0.44958
4022.24,0.44734
4023.14,0.44759
4024.04,0.44759
4024.94,0.44803
4025.84,0.4483
4026.74,0.44973
4027.64,0.45249
4028.54,0.45055
4029.44,0.44761
4030.34,0.44049
4031.24,0.43401
4032.14,0.42798
4033.04,0.42332
4033.94,0.42251
4034.84,0.42647
4035.74,0.43349
4036.64,0.44263
4037.54,0.45153
4038.44,0.45793
4039.34,0.46101
4040.24,0.46157
4041.14,0.45978
4042.04,0.45577
4042.94,0.44906
4043.84,0.4413
4044.74,0.43016
4045.64,0.42543
4046.54,0.42252
4047.44,0.42538
4048.34,0.42897
4049.24,0.43951
4050.14,0.4438
4051.04,0.45088
4051.94,0.45321
4052.84,0.45199
4053.74,0.44763
4054.65,0.44727
4055.55,0.44069
4056.45,0.44039
4057.35,0.43782
4058.25,0.43811
4059.15,0.43758
4060.05,0.43915
4060.95,0.44058
4061.85,0.43584
4062.75,0.43397
4063.65,0.42957
4064.55,0.42569
4065.45,0.4233
4066.35,0.42369
4067.25,0.4291
4068.15,0.43235
4069.05,0.43781
4069.95,0.43764
4070.85,0.43934
4071.75,0.44006
4072.65,0.43884
4073.55,0.43384
4074.45,0.42908
4075.35,0.42397
4076.25,0.4214
4077.15,0.41342
4078.05,0.40941
4078.95,0.40932
4079.85,0.41351
4080.75,0.41901
4081.65,0.42599
4082.55,0.43205
4083.45,0.43354
4084.35,0.43567
4085.25,0.43584
4086.15,0.43896
4087.05,0.43994
4087.95,0.44635
4088.85,0.4498
4089.75,0.45203
4090.65,0.45327
4091.55,0.45232
4092.45,0.44726
4093.36,0.44238
4094.26,0.43635
4095.16,0.42779
4096.06,0.4148
4096.96,0.40429
4097.86,0.39115
4098.76,0.37655
4099.66,0.35974
4100.56,0.34222
4101.46,0.32844
4102.36,0.31935
4103.26,0.32048
4104.16,0.3274
4105.06,0.34123
4105.96,0.35831
4106.86,0.37409
4107.76,0.38728
4108.66,0.39792
4109.56,0.40621
4110.46,0.41306
4111.36,0.41562
4112.26,0.42415
4113.16,0.4283
4114.06,0.43406
4114.96,0.43976
4115.86,0.44385
4116.76,0.44551
4117.66,0.44602
4118.56,0.44542
4119.46,0.44215
4120.36,0.43981
4121.26,0.43744
4122.16,0.43869
4123.06,0.44154
4123.96,0.44103
4124.86,0.4439
4125.76,0.44634
4126.66,0.44654
4127.56,0.44485
4128.46,0.44413
4129.36,0.44104
4130.26,0.44049
4131.17,0.43456
4132.06,0.43408
4132.97,0.43211
4133.87,0.43245
4134.77,0.43286
4135.67,0.43661
4136.57,0.44474
4137.47,0.44996
4138.37,0.45743
4139.27,0.4597
4140.17,0.46003
4141.07,0.45771
4141.97,0.45394
4142.87,0.4453
4143.77,0.44121
4144.67,0.44001
4145.57,0.43814
4146.47,0.44352
4147.37,0.44553
4148.27,0.44811
4149.17,0.45221
4150.07,0.45258
4150.97,0.45392
4151.87,0.4507
4152.77,0.44795
4153.67,0.44742
4154.57,0.44382
4155.47,0.44259
4156.37,0.44431
4157.27,0.44467
4158.17,0.44782
4159.07,0.45155
4159.97,0.45301
4160.87,0.45991
4161.77,0.46328
4162.67,0.46282
4163.57,0.46381
4164.47,0.46599
4165.37,0.46345
4166.27,0.4647
4167.17,0.46149
4168.07,0.46068
4168.98,0.45585
4169.88,0.45195
4170.78,0.44589
4171.68,0.43783
4172.58,0.43314
4173.48,0.42814
4174.38,0.42358
4175.28,0.42489
4176.18,0.42645
4177.08,0.42952
4177.98,0.43203
4178.88,0.43685
4179.78,0.43988
4180.68,0.44343
4181.58,0.44427
4182.48,0.44533
4183.38,0.44813
4184.28,0.44694
4185.18,0.44675
4186.08,0.44597
4186.98,0.44485
4187.88,0.44512
4188.78,0.44409
4189.68,0.44714
4190.58,0.44757
4191.48,0.45087
4192.38,0.45469
4193.28,0.45567
4194.18,0.45578
4195.08,0.45289
4195.98,0.45136
4196.88,0.44625
4197.78,0.44225
4198.68,0.43471
4199.58,0.4321
4200.48,0.42926
4201.38,0.42739
4202.28,0.42965
4203.18,0.42966
4204.08,0.43438
4204.98,0.43763
4205.88,0.44021
4206.79,0.44435
4207.69,0.4499
4208.59,0.4529
4209.49,0.45671
4210.39,0.45709
4211.29,0.45915
4212.19,0.45844
4213.09,0.45707
4213.99,0.45331
4214.89,0.44931
4215.79,0.44564
4216.69,0.44447
4217.59,0.44466
4218.49,0.44502
4219.39,0.44922
4220.29,0.45257
4221.19,0.45417
4222.09,0.45313
4222.99,0.44647
4223.89,0.43638
4224.79,0.42581
4225.69,0.41356
4226.59,0.40489
4227.49,0.40076
4228.39,0.4037
4229.29,0.41183
4230.19,0.42119
4231.09,0.43273
4231.99,0.43927
4232.89,0.44354
4233.79,0.44354
4234.69,0.44316
4235.59,0.44047
4236.49,0.43702
4237.39,0.43503
4238.29,0.43491
4239.19,0.43777
4240.09,0.44138
4240.99,0.44167
4241.89,0.44813
4242.79,0.44903
4243.69,0.45268
4244.59,0.45299
4245.5,0.4508
4246.4,0.4481
4247.3,0.44693
4248.2,0.43907
4249.1,0.43746
4250.0,0.43451
4250.9,0.43437
4251.8,0.43624
4252.7,0.4381
4253.6,0.43965
4254.5,0.44328
4255.4,0.44449
4256.3,0.44677
4257.2,0.44718
4258.1,0.44439
4259.0,0.44228
4259.9,0.44006
4260.8,0.43849
4261.7,0.43909
4262.6,0.44378
4263.5,0.44932
4264.4,0.45404
4265.3,0.45769
4266.2,0.46071
4267.1,0.45951
4268.0,0.4548
4268.9,0.4493
4269.8,0.44192
4270.7,0.43387
4271.6,0.42602
4272.5,0.4196
4273.4,0.41699
4274.3,0.41818
4275.2,0.41913
4276.1,0.42535
4277.0,0.43225
4277.9,0.43803
4278.8,0.44295
4279.7,0.44451
4280.6,0.44511
4281.5,0.44153
4282.4,0.44
4283.31,0.43638
4284.21,0.43533
4285.11,0.43058
4286.01,0.42746
4286.91,0.42415
4287.81,0.41806
4288.71,0.4126
4289.61,0.40736
4290.51,0.40407
4291.41,0.40484
4292.31,0.40725
4293.21,0.40927
4294.11,0.41329
4295.01,0.41401
4295.91,0.41275
4296.81,0.40673
4297.71,0.39801
4298.61,0.39051
4299.51,0.37865
4300.41,0.37133
4301.31,0.36509
4302.21,0.36033
4303.11,0.36007
4304.01,0.35919
4304.91,0.35985
4305.81,0.36178
4306.71,0.36054
4307.61,0.35861
4308.51,0.35699
4309.41,0.36044
4310.31,0.3603
4311.21,0.36612
4312.11,0.37229
4313.01,0.38221
4313.91,0.39379
4314.81,0.4075
4315.71,0.42185
4316.61,0.4345
4317.51,0.44543
4318.41,0.45719
4319.31,0.4621
4320.21,0.46402
4321.12,0.46028
4322.02,0.4491
4322.92,0.4422
4323.82,0.42995
4324.72,0.42109
4325.62,0.41603
4326.52,0.41292
4327.42,0.41429
4328.32,0.42039
4329.22,0.42902
4330.12,0.43395
4331.02,0.44055
4331.92,0.4431
4332.82,0.44144
4333.72,0.43897
4334.62,0.43494
4335.52,0.42645
4336.42,0.41121
4337.32,0.39546
4338.22,0.37721
4339.12,0.35843
4340.02,0.34381
4340.92,0.3325
4341.82,0.33081
4342.72,0.33748
4343.62,0.34946
4344.52,0.36577
4345.42,0.38453
4346.32,0.39955
4347.22,0.41224
4348.12,0.42276
4349.02,0.42762
4349.92,0.43027
4350.82,0.42971
4351.72,0.42773
4352.62,0.42656
4353.52,0.42545
4354.42,0.42801
4355.32,0.43259
4356.22,0.43886
4357.12,0.44556
4358.02,0.4499
4358.92,0.45152
4359.83,0.45444
4360.73,0.45858
4361.63,0.45989
4362.53,0.46701
4363.43,0.47038
4364.33,0.4709
4365.23,0.47312
4366.13,0.47186
4367.03,0.47153
4367.93,0.46977
4368.83,0.46405
4369.73,0.46007
4370.63,0.45742
4371.53,0.45653
4372.43,0.45399
4373.33,0.45106
4374.23,0.44611
4375.13,0.44561
4376.03,0.44757
4376.93,0.45007
4377.83,0.45224
4378.73,0.45584
4379.63,0.45806
4380.53,0.4574
4381.43,0.45262
4382.33,0.44481
4383.23,0.43584
4384.13,0.42914
4385.03,0.42428
4385.93,0.42277
4386.83,0.42595
4387.73,0.43112
4388.63,0.43851
4389.53,0.4415
4390.43,0.44843
4391.33,0.45169
4392.23,0.4551
4393.13,0.45556
4394.03,0.45665
4394.93,0.45574
4395.83,0.45808
4396.73,0.45896
4397.64,0.45939
4398.54,0.46076
4399.44,0.46041
4400.34,0.45901
4401.24,0.45677
4402.14,0.45911
4403.04,0.45289
4403.94,0.45501
4404.84,0.44927
4405.74,0.45133
4406.64,0.45171
4407.54,0.44901
4408.44,0.45385
4409.34,0.45959
4410.24,0.46329
4411.14,0.46884
4412.04,0.47195
4412.94,0.47395
4413.84,0.47214
4414.74,0.47144
4415.64,0.46728
4416.54,0.4662
4417.44,0.4658
4418.34,0.46656
4419.24,0.46951
4420.14,0.47183
4421.04,0.47553
4421.94,0.47853
4422.84,0.47669
4423.74,0.47799
4424.64,0.47612
4425.54,0.47666
4426.44,0.47585
4427.34,0.47536
4428.24,0.47448
4429.14,0.47385
4430.04,0.47389
4430.94,0.47239
4431.84,0.4731
4432.74,0.46931
4433.64,0.46805
4434.54,0.46416
4435.45,0.465
4436.35,0.46691
4437.25,0.46959
4438.15,0.47235
4439.05,0.47625
4439.95,0.47813
4440.85,0.4781
4441.75,0.47634
4442.65,0.47107
4443.55,0.47056
4444.45,0.46838
4445.35,0.46853
4446.25,0.47185
4447.15,0.47678
4448.05,0.47678
4448.95,0.47935
4449.85,0.47991
4450.75,0.48014
4451.65,0.47647
4452.55,0.47572
4453.45,0.46976
4454.35,0.46432
4455.25,0.46022
4456.15,0.45887
4457.05,0.45566
4457.95,0.4537
4458.85,0.45252
4459.75,0.45155
4460.65,0.45421
4461.55,0.45549
4462.45,0.45726
4463.35,0.45796
4464.25,0.46284
4465.15,0.46579
4466.05,0.46865
4466.95,0.46941
4467.85,0.46931
4468.75,0.46993
4469.65,0.47005
4470.55,0.47004
4471.45,0.47534
4472.35,0.48036
4473.25,0.4851
4474.16,0.49041
4475.06,0.49508
4475.96,0.49593
4476.86,0.4989
4477.76,0.4962
4478.66,0.49585
4479.56,0.49265
4480.46,0.4896
4481.36,0.4818
4482.26,0.47994
4483.16,0.48002
4484.06,0.48124
4484.96,0.48366
4485.86,0.48958
4486.76,0.48897
4487.66,0.49015
4488.56,0.48859
4489.46,0.48892
4490.36,0.48555
4491.26,0.48315
4492.16,0.48469
4493.06,0.48459
4493.96,0.48605
4494.86,0.48377
4495.76,0.4856
4496.66,0.48574
4497.56,0.48937
4498.46,0.48954
4499.36,0.49383
4500.26,0.49725
4501.16,0.49836
4502.06,0.50165
4502.96,0.50488
4503.86,0.5061
4504.76,0.51035
4505.66,0.51157
4506.56,0.51445
4507.46,0.51532
4508.36,0.5137
4509.26,0.51354
4510.17,0.51431
4511.06,0.51251
4511.97,0.51064
4512.87,0.50833
4513.77,0.50602
4514.67,0.50393
4515.57,0.50079
4516.47,0.49849
4517.37,0.49616
4518.27,0.49601
4519.17,0.49608
4520.07,0.49391
4520.97,0.49384
4521.87,0.49127
4522.77,0.48991
4523.67,0.48778
4524.57,0.4856
4525.47,0.48036
4526.37,0.47615
4527.27,0.47221
4528.17,0.46701
4529.07,0.46509
4529.97,0.46214
4530.87,0.46086
4531.77,0.45937
4532.67,0.46115
4533.57,0.46115
4534.47,0.46093
4535.37,0.46371
4536.27,0.46611
4537.17,0.47088
4538.07,0.47941
4538.97,0.48424
4539.87,0.48979
4540.77,0.49052
4541.67,0.49546
4542.57,0.49412
4543.47,0.4926
4544.37,0.49229
4545.27,0.48934
4546.17,0.48714
4547.07,0.48489
4547.97,0.47929
4548.88,0.47867
4549.77,0.47699
4550.68,0.47465
4551.58,0.47235
4552.48,0.47253
4553.38,0.47191
4554.28,0.47258
4555.18,0.47316
4556.08,0.47626
4556.98,0.48138
4557.88,0.48453
4558.78,0.4895
4559.68,0.49488
4560.58,0.4996
4561.48,0.49949
4562.38,0.49836
4563.28,0.49836
4564.18,0.49856
4565.08,0.49513
4565.98,0.49425
4566.88,0.49576
4567.78,0.4973
4568.68,0.49833
4569.58,0.49935
4570.48,0.49856
4571.38,0.49763
4572.28,0.49589
4573.18,0.49674
4574.08,0.49573
4574.98,0.49938
4575.88,0.49788
4576.78,0.49975
4577.68,0.49758
4578.58,0.49679
4579.48,0.49416
4580.38,0.49082
4581.28,0.48739
4582.18,0.48561
4583.08,0.48359
4583.98,0.48322
4584.88,0.4831
4585.78,0.48674
4586.69,0.48739
4587.58,0.49317
4588.49,0.4931
4589.39,0.49532
4590.29,0.49773
4591.19,0.4941
4592.09,0.4935
4592.99,0.4945
4593.89,0.49275
4594.79,0.49348
4595.69,0.49302
4596.59,0.49383
4597.49,0.49566
4598.39,0.49444
4599.29,0.49443
4600.19,0.49343
4601.09,0.4948
4601.99,0.4946
4602.89,0.49445
4603.79,0.49536
4604.69,0.49459
4605.59,0.49709
4606.49,0.49784
4607.39,0.50419
4608.29,0.50405
4609.19,0.50792
4610.09,0.50851
4610.99,0.50923
4611.89,0.50878
4612.79,0.50851
4613.69,0.50849
4614.59,0.50679
4615.49,0.50575
4616.39,0.50478
4617.29,0.50409
4618.19,0.50318
4619.09,0.50444
4619.99,0.50524
4620.89,0.5064
4621.79,0.50537
4622.69,0.50879
4623.59,0.50921
4624.5,0.50921
4625.4,0.50954
4626.3,0.50962
4627.2,0.51212
4628.1,0.50777
4629.0,0.50992
4629.9,0.50646
4630.8,0.50721
4631.7,0.5092
4632.6,0.50629
4633.5,0.50557
4634.4,0.50417
4635.3,0.50298
4636.2,0.50186
4637.1,0.5014
4638.0,0.50047
4638.9,0.49943
4639.8,0.5021
4640.7,0.50334
4641.6,0.50368
4642.5,0.50528
4643.4,0.50791
4644.3,0.50498
4645.2,0.5036
4646.1,0.50069
4647.0,0.49777
4647.9,0.49679
4648.8,0.49555
4649.7,0.49489
4650.6,0.49656
4651.5,0.49761
4652.4,0.49656
4653.3,0.49745
4654.2,0.49667
4655.1,0.49683
4656.0,0.49584
4656.9,0.4973
4657.8,0.50205
4658.7,0.50296
4659.6,0.50648
4660.5,0.51346
4661.4,0.51032
4662.3,0.5113
4663.21,0.5101
4664.11,0.50797
4665.01,0.50197
4665.91,0.49681
4666.81,0.4925
4667.71,0.48609
4668.61,0.48395
4669.51,0.48449
4670.41,0.48557
4671.31,0.48731
4672.21,0.49261
4673.11,0.49538
4674.01,0.49781
4674.91,0.50133
4675.81,0.50335
4676.71,0.50477
4677.61,0.50284
4678.51,0.50413
4679.41,0.50234
4680.31,0.49898
4681.21,0.49876
4682.11,0.49882
4683.01,0.49919
4683.91,0.49908
4684.81,0.50017
4685.71,0.50048
4686.61,0.50197
4687.51,0.50194
4688.41,0.50276
4689.31,0.50487
4690.21,0.50525
4691.11,0.50561
4692.01,0.50708
4692.91,0.5062
4693.81,0.50828
4694.71,0.50798
4695.61,0.51215
4696.51,0.51115
4697.41,0.5095
4698.31,0.50711
4699.21,0.50476
4700.12,0.50187
4701.02,0.49829
4701.92,0.4959
4702.82,0.49558
4703.72,0.49321
4704.62,0.49196
4705.52,0.48999
4706.42,0.49111
4707.32,0.49198
4708.22,0.4896
4709.12,0.49208
4710.02,0.49261
4710.92,0.49334
4711.82,0.49484
4712.72,0.4985
4713.62,0.50046
4714.52,0.50183
4715.42,0.50212
4716.32,0.50418
4717.22,0.50849
4718.12,0.50739
4719.02,0.51086
4719.92,0.5105
4720.82,0.51283
4721.72,0.5129
4722.62,0.51405
4723.52,0.51445
4724.42,0.51385
4725.32,0.51275
4726.22,0.51107
4727.12,0.50845
4728.02,0.50537
4728.92,0.50163
4729.82,0.49743
4730.72,0.50022
4731.62,0.49721
4732.52,0.49791
4733.42,0.49891
4734.32,0.49857
4735.22,0.50115
4736.12,0.50163
4737.02,0.50212
4737.92,0.50145
4738.83,0.5023
4739.73,0.503
4740.63,0.50378
4741.53,0.50608
4742.43,0.50598
4743.33,0.50608
4744.23,0.50738
4745.13,0.50825
4746.03,0.51126
4746.93,0.50893
4747.83,0.51348
4748.73,0.51158
4749.63,0.51285
4750.53,0.51272
4751.43,0.51017
4752.33,0.50963
4753.23,0.50853
4754.13,0.50654
4755.03,0.50664
4755.93,0.50301
4756.83,0.50072
4757.73,0.50055
4758.63,0.50148
4759.53,0.50276
4760.43,0.49982
4761.33,0.49733
4762.23,0.49657
4763.13,0.49325
4764.03,0.4913
4764.93,0.49158
4765.83,0.48928
4766.73,0.49015
4767.63,0.4909
4768.53,0.49466
4769.43,0.49746
4770.33,0.49943
4771.23,0.49984
4772.13,0.50178
4773.03,0.50273
4773.93,0.50636
4774.83,0.50577
4775.73,0.50883
4776.64,0.50812
4777.54,0.50901
4778.44,0.50914
4779.34,0.50865
4780.24,0.50612
4781.14,0.50703
4782.04,0.50563
4782.94,0.5025
4783.84,0.501
4784.74,0.49828
4785.64,0.49768
4786.54,0.49754
4787.44,0.4935
4788.34,0.4929
4789.24,0.4942
4790.14,0.49552
4791.04,0.4979
4791.94,0.49811
4792.84,0.50343
4793.74,0.50395
4794.64,0.50836
4795.54,0.50955
4796.44,0.51039
4797.34,0.51025
4798.24,0.508
4799.14,0.50957
4800.04,0.5062
4800.94,0.50551
4801.84,0.5049
4802.74,0.50448
4803.64,0.50525
4804.54,0.50445
4805.44,0.50609
4806.34,0.50427
4807.24,0.50309
4808.14,0.50252
4809.04,0.50359
4809.94,0.50515
4810.84,0.50326
4811.74,0.50838
4812.64,0.50773
4813.54,0.50852
4814.45,0.51136
4815.35,0.50905
4816.25,0.51167
4817.15,0.50986
4818.05,0.51285
4818.95,0.512
4819.85,0.51281
4820.75,0.51133
4821.65,0.50913
4822.55,0.50585
4823.45,0.50643
4824.35,0.50286
4825.25,0.50083
4826.15,0.5015
4827.05,0.49904
4827.95,0.50052
4828.85,0.50051
4829.75,0.50167
4830.65,0.50013
4831.55,0.5004
4832.45,0.5001
4833.35,0.49883
4834.25,0.49622
4835.15,0.49858
4836.05,0.49959
4836.95,0.49837
4837.85,0.49619
4838.75,0.49653
4839.65,0.49514
