wave,flux
3700.85,0.088775
3701.75,0.087001
3702.65,0.083747
3703.55,0.078809
3704.45,0.072466
3705.35,0.066942
3706.25,0.062434
3707.15,0.059947
3708.05,0.059368
3708.96,0.061048
3709.86,0.06423
3710.76,0.069489
3711.66,0.075442
3712.56,0.081084
3713.46,0.08635
3714.36,0.089071
3715.26,0.08941
3716.16,0.087614
3717.06,0.083061
3717.96,0.076762
3718.86,0.069324
3719.76,0.061795
3720.66,0.055729
3721.56,0.052241
3722.46,0.052378
3723.36,0.055448
3724.26,0.060121
3725.16,0.06511
3726.06,0.069177
3726.96,0.070683
3727.86,0.07086
3728.76,0.070729
3729.66,0.070117
3730.56,0.068338
3731.46,0.065106
3732.36,0.060581
3733.26,0.054887
3734.16,0.049504
3735.06,0.04517
3735.96,0.042939
3736.86,0.043323
3737.76,0.046052
3738.66,0.051047
3739.56,0.056845
3740.46,0.062309
3741.36,0.065839
3742.26,0.066201
3743.16,0.064144
3744.06,0.060401
3744.96,0.056065
3745.86,0.051625
3746.76,0.04808
3747.67,0.045426
3748.57,0.044297
3749.47,0.044893
3750.37,0.047352
3751.27,0.052562
3752.17,0.058765
3753.07,0.065177
3753.97,0.071503
3754.87,0.07551
3755.77,0.076749
3756.67,0.075393
3757.57,0.071555
3758.47,0.067423
3759.37,0.064007
3760.27,0.062645
3761.17,0.062387
3762.07,0.063094
3762.97,0.064564
3763.87,0.064927
3764.77,0.065342
3765.67,0.065471
3766.57,0.065779
3767.47,0.066331
3768.37,0.06776
3769.27,0.069697
3770.17,0.072555
3771.07,0.075541
3771.97,0.078427
3772.87,0.080813
3773.77,0.083113
3774.67,0.084761
3775.57,0.085273
3776.47,0.085639
3777.37,0.085961
3778.27,0.087021
3779.17,0.08821
3780.07,0.089707
3780.97,0.092031
3781.87,0.093289
3782.77,0.09395
3783.67,0.093222
3784.57,0.091295
3785.47,0.087778
3786.38,0.083283
3787.28,0.078318
3788.18,0.074286
3789.08,0.070955
3789.98,0.068936
3790.88,0.069008
3791.78,0.06898
3792.68,0.068921
3793.58,0.06782
3794.48,0.066834
3795.38,0.065031
3796.28,0.062725
3797.18,0.061423
3798.08,0.060462
3798.98,0.06047
3799.88,0.062211
3800.78,0.065489
3801.68,0.070142
3802.58,0.074867
3803.48,0.078958
3804.38,0.081696
3805.28,0.082905
3806.18,0.082411
3807.08,0.081828
3807.98,0.081464
3808.88,0.081575
3809.78,0.082387
3810.68,0.082677
3811.58,0.08169
3812.48,0.079273
3813.38,0.075533
3814.28,0.070817
3815.18,0.066858
3816.08,0.063375
3816.98,0.061218
3817.88,0.059862
3818.78,0.058676
3819.68,0.057232
3820.58,0.055629
3821.48,0.054447
3822.38,0.053445
3823.28,0.052658
3824.18,0.051318
3825.09,0.049278
3825.99,0.047242
3826.89,0.045637
3827.79,0.044798
3828.69,0.044547
3829.59,0.045074
3830.49,0.045317
3831.39,0.045126
3832.29,0.044516
3833.19,0.043478
3834.09,0.043043
3834.99,0.043325
3835.89,0.043691
3836.79,0.043903
3837.69,0.0442
3838.59,0.044107
3839.49,0.044541
3840.39,0.045986
3841.29,0.048738
3842.19,0.05249
3843.09,0.057357
3843.99,0.061742
3844.89,0.065381
3845.79,0.067775
3846.69,0.069558
3847.59,0.070059
3848.49,0.069889
3849.39,0.069188
3850.29,0.068208
3851.19,0.0677
3852.09,0.067554
3852.99,0.067179
3853.89,0.066529
3854.79,0.065146
3855.69,0.063273
3856.59,0.061222
3857.49,0.058427
3858.39,0.056149
3859.29,0.054668
3860.19,0.053747
3861.09,0.055238
3861.99,0.058079
3862.9,0.061738
3863.8,0.065319
3864.7,0.067976
3865.6,0.069097
3866.5,0.06896
3867.4,0.067967
3868.3,0.066489
3869.2,0.064781
3870.1,0.062179
3871.0,0.060133
3871.9,0.059087
3872.8,0.059294
3873.7,0.060867
3874.6,0.063041
3875.5,0.065592
3876.4,0.066643
3877.3,0.066615
3878.2,0.06559
3879.1,0.064015
3880.0,0.062811
3880.9,0.062461
3881.8,0.06229
3882.7,0.062778
3883.6,0.063583
3884.5,0.063446
3885.4,0.062988
3886.3,0.062287
3887.2,0.061436
3888.1,0.061426
3889.0,0.062344
3889.9,0.065116
3890.8,0.069061
3891.7,0.073954
3892.6,0.077807
3893.5,0.080228
3894.4,0.081795
3895.3,0.082823
3896.2,0.082582
3897.1,0.082421
3898.0,0.083027
3898.9,0.083084
3899.8,0.08277
3900.7,0.082915
3901.6,0.082564
3902.51,0.081653
3903.41,0.080631
3904.31,0.079222
3905.21,0.07872
3906.11,0.07825
3907.01,0.079618
3907.91,0.082341
3908.81,0.085888
3909.71,0.089605
3910.61,0.092942
3911.51,0.095503
3912.41,0.096461
3913.31,0.097647
3914.21,0.097279
3915.11,0.095972
3916.01,0.094894
3916.91,0.092758
3917.81,0.090467
3918.71,0.08685
3919.61,0.083103
3920.51,0.079757
3921.41,0.076723
3922.31,0.074468
3923.21,0.073162
3924.11,0.072133
3925.01,0.070814
3925.91,0.068403
3926.81,0.064657
3927.71,0.060169
3928.61,0.053878
3929.51,0.047641
3930.41,0.041699
3931.31,0.036321
3932.21,0.031813
3933.11,0.028519
3934.01,0.026711
3934.91,0.026711
3935.81,0.028457
3936.71,0.031902
3937.61,0.036551
3938.51,0.042127
3939.42,0.047894
3940.32,0.053258
3941.22,0.057382
3942.12,0.060678
3943.02,0.063039
3943.92,0.065273
3944.82,0.068183
3945.72,0.071601
3946.62,0.075192
3947.52,0.079141
3948.42,0.08304
3949.32,0.08692
3950.22,0.089845
3951.12,0.09234
3952.02,0.09392
3952.92,0.094822
3953.82,0.095283
3954.72,0.094889
3955.62,0.095335
3956.52,0.094075
3957.42,0.092727
3958.32,0.090587
3959.22,0.088018
3960.12,0.083582
3961.02,0.078508
3961.92,0.072563
3962.82,0.066354
3963.72,0.060138
3964.62,0.054296
3965.52,0.048538
3966.42,0.04329
3967.32,0.038527
3968.22,0.034683
3969.12,0.032464
3970.02,0.032331
3970.92,0.034626
3971.82,0.038878
3972.72,0.044364
3973.62,0.051196
3974.52,0.058197
3975.42,0.065784
3976.32,0.072678
3977.22,0.079368
3978.13,0.085874
3979.03,0.091896
3979.93,0.096581
3980.83,0.10058
3981.73,0.1026
3982.63,0.10433
3983.53,0.10512
3984.43,0.10581
3985.33,0.10688
3986.23,0.10822
3987.13,0.11028
3988.03,0.11145
3988.93,0.11321
3989.83,0.11487
3990.73,0.11613
3991.63,0.11678
3992.53,0.11736
3993.43,0.11812
3994.33,0.11853
3995.23,0.11706
3996.13,0.11641
3997.03,0.1158
3997.93,0.11552
3998.83,0.1164
3999.73,0.11904
4000.63,0.12101
4001.53,0.12297
4002.43,0.12443
4003.33,0.12357
4004.23,0.12185
4005.13,0.11981
4006.03,0.11678
4006.93,0.11592
4007.83,0.1163
4008.73,0.11803
4009.63,0.12043
4010.53,0.12318
4011.43,0.12581
4012.33,0.12679
4013.23,0.12838
4014.13,0.1297
4015.03,0.12973
4015.93,0.13066
4016.84,0.13077
4017.74,0.13095
4018.64,0.13071
4019.54,0.13121
4020.44,0.13175
4021.34,0.13179
4022.24,0.13172
4023.14,0.13132
4024.04,0.13054
4024.94,0.13082
4025.84,0.1308
4026.74,0.13142
4027.64,0.13219
4028.54,0.13124
4029.44,0.12889
4030.34,0.12475
4031.24,0.12061
4032.14,0.11544
4033.04,0.11185
4033.94,0.11068
4034.84,0.11199
4035.74,0.11573
4036.64,0.1208
4037.54,0.12631
4038.44,0.13101
4039.34,0.13435
4040.24,0.13477
4041.14,0.13392
4042.04,0.13156
4042.94,0.12615
4043.84,0.12137
4044.74,0.1153
4045.64,0.11049
4046.54,0.10799
4047.44,0.10906
4048.34,0.11286
4049.24,0.11787
4050.14,0.12415
4051.04,0.12861
4051.94,0.12999
4052.84,0.13038
4053.74,0.12952
4054.65,0.12673
4055.55,0.12417
4056.45,0.12177
4057.35,0.11995
4058.25,0.1187
4059.15,0.11858
4060.05,0.11837
4060.95,0.11822
4061.85,0.11639
4062.75,0.11416
4063.65,0.11171
4064.55,0.11003
4065.45,0.10933
4066.35,0.11144
4067.25,0.11398
4068.15,0.11776
4069.05,0.11969
4069.95,0.12113
4070.85,0.12172
4071.75,0.12077
4072.65,0.11995
4073.55,0.11979
4074.45,0.11928
4075.35,0.11848
4076.25,0.11756
4077.15,0.11587
4078.05,0.11591
4078.95,0.11734
4079.85,0.12024
4080.75,0.12432
4081.65,0.12787
4082.55,0.13114
4083.45,0.13257
4084.35,0.13314
4085.25,0.13363
4086.15,0.13553
4087.05,0.13751
4087.95,0.14039
4088.85,0.14263
4089.75,0.14456
4090.65,0.1451
4091.55,0.14385
4092.45,0.14243
4093.36,0.14037
4094.26,0.1377
4095.16,0.13471
4096.06,0.13113
4096.96,0.12698
4097.86,0.12364
4098.76,0.11953
4099.66,0.11629
4100.56,0.11313
4101.46,0.11036
4102.36,0.10927
4103.26,0.10946
4104.16,0.11279
4105.06,0.11676
4105.96,0.12111
4106.86,0.12492
4107.76,0.12858
4108.66,0.13012
4109.56,0.13061
4110.46,0.13086
4111.36,0.13098
4112.26,0.13123
4113.16,0.13237
4114.06,0.13364
4114.96,0.13533
4115.86,0.13637
4116.76,0.13706
4117.66,0.13617
4118.56,0.1353
4119.46,0.13406
4120.36,0.13313
4121.26,0.13195
4122.16,0.13208
4123.06,0.13266
4123.96,0.13297
4124.86,0.13382
4125.76,0.13382
4126.66,0.13381
4127.56,0.13313
4128.46,0.13113
4129.36,0.12895
4130.26,0.12679
4131.17,0.12377
4132.06,0.12147
4132.97,0.11986
4133.87,0.11912
4134.77,0.12106
4135.67,0.1234
4136.57,0.12667
4137.47,0.13042
4138.37,0.13363
4139.27,0.13519
4140.17,0.1345
4141.07,0.13245
4141.97,0.12868
4142.87,0.12476
4143.77,0.12164
4144.67,0.11959
4145.57,0.1189
4146.47,0.12004
4147.37,0.12236
4148.27,0.12491
4149.17,0.12608
4150.07,0.12651
4150.97,0.12566
4151.87,0.12449
4152.77,0.12348
4153.67,0.12261
4154.57,0.12193
4155.47,0.12222
4156.37,0.12219
4157.27,0.12337
4158.17,0.12507
4159.07,0.12811
4159.97,0.13068
4160.87,0.13323
4161.77,0.13553
4162.67,0.13702
4163.57,0.13797
4164.47,0.13753
4165.37,0.13662
4166.27,0.13499
4167.17,0.13278
4168.07,0.13154
4168.98,0.13003
4169.88,0.1288
4170.78,0.12664
4171.68,0.12435
4172.58,0.12213
4173.48,0.12019
4174.38,0.1185
4175.28,0.11775
4176.18,0.1183
4177.08,0.11922
4177.98,0.1205
4178.88,0.12172
4179.78,0.12297
4180.68,0.12392
4181.58,0.12492
4182.48,0.12521
4183.38,0.126
4184.28,0.12759
4185.18,0.12738
4186.08,0.12714
4186.98,0.12695
4187.88,0.12666
4188.78,0.12636
4189.68,0.12715
4190.58,0.12759
4191.48,0.12942
4192.38,0.13078
4193.28,0.1319
4194.18,0.13191
4195.08,0.13026
4195.98,0.12766
4196.88,0.1249
4197.78,0.12166
4198.68,0.11905
4199.58,0.1169
4200.48,0.1158
4201.38,0.11632
4202.28,0.11715
4203.18,0.11958
4204.08,0.12231
4204.98,0.12486
4205.88,0.12884
4206.79,0.13227
4207.69,0.13477
4208.59,0.13701
4209.49,0.13827
4210.39,0.13816
4211.29,0.13869
4212.19,0.13752
4213.09,0.13603
4213.99,0.13419
4214.89,0.13311
4215.79,0.13192
4216.69,0.13211
4217.59,0.13313
4218.49,0.13588
4219.39,0.13899
4220.29,0.1404
4221.19,0.14055
4222.09,0.13876
4222.99,0.13465
4223.89,0.12753
4224.79,0.11887
4225.69,0.11112
4226.59,0.10513
4227.49,0.10256
4228.39,0.10408
4229.29,0.10862
4230.19,0.11513
4231.09,0.12179
4231.99,0.1277
4232.89,0.1309
4233.79,0.132
4234.69,0.13146
4235.59,0.13026
4236.49,0.12901
4237.39,0.12875
4238.29,0.1289
4239.19,0.13021
4240.09,0.13195
4240.99,0.13503
4241.89,0.138
4242.79,0.14108
4243.69,0.14345
4244.59,0.14505
4245.5,0.1456
4246.4,0.14512
4247.3,0.14256
4248.2,0.13876
4249.1,0.1349
4250.0,0.13044
4250.9,0.12815
4251.8,0.12709
4252.7,0.12633
4253.6,0.1273
4254.5,0.12743
4255.4,0.12892
4256.3,0.12975
4257.2,0.13134
4258.1,0.13087
4259.0,0.12951
4259.9,0.12964
4260.8,0.12859
4261.7,0.12907
4262.6,0.13179
4263.5,0.13611
4264.4,0.14034
4265.3,0.14468
4266.2,0.14601
4267.1,0.14581
4268.0,0.1432
4268.9,0.13863
4269.8,0.13226
4270.7,0.12578
4271.6,0.11959
4272.5,0.11437
4273.4,0.1118
4274.3,0.11196
4275.2,0.11463
4276.1,0.11892
4277.0,0.12478
4277.9,0.1299
4278.8,0.13424
4279.7,0.13664
4280.6,0.13751
4281.5,0.13772
4282.4,0.13646
4283.31,0.13614
4284.21,0.13486
4285.11,0.13406
4286.01,0.13146
4286.91,0.12972
4287.81,0.12729
4288.71,0.12367
4289.61,0.12167
4290.51,0.11968
4291.41,0.11956
4292.31,0.12074
4293.21,0.1217
4294.11,0.12381
4295.01,0.12459
4295.91,0.12425
4296.81,0.12182
4297.71,0.11785
4298.61,0.11286
4299.51,0.10684
4300.41,0.10243
4301.31,0.099471
4302.21,0.097117
4303.11,0.09631
4304.01,0.095415
4304.91,0.095019
4305.81,0.094442
4306.71,0.093216
4307.61,0.091667
4308.51,0.090738
4309.41,0.091192
4310.31,0.092961
4311.21,0.096613
4312.11,0.10246
4313.01,0.11011
4313.91,0.11932
4314.81,0.12893
4315.71,0.13894
4316.61,0.14897
4317.51,0.15631
4318.41,0.16287
4319.31,0.16443
4320.21,0.16409
4321.12,0.16112
4322.02,0.15565
4322.92,0.1484
4323.82,0.1404
4324.72,0.13338
4325.62,0.12865
4326.52,0.1271
4327.42,0.12948
4328.32,0.13461
4329.22,0.14215
4330.12,0.14948
4331.02,0.15542
4331.92,0.15932
4332.82,0.16285
4333.72,0.16453
4334.62,0.16391
4335.52,0.16126
4336.42,0.15679
4337.32,0.15105
4338.22,0.14365
4339.12,0.13666
4340.02,0.13124
4340.92,0.12789
4341.82,0.12827
4342.72,0.13106
4343.62,0.13481
4344.52,0.14088
4345.42,0.14669
4346.32,0.15112
4347.22,0.15614
4348.12,0.15748
4349.02,0.15966
4349.92,0.15771
4350.82,0.15526
4351.72,0.15201
4352.62,0.14991
4353.52,0.14782
4354.42,0.14696
4355.32,0.14864
4356.22,0.15094
4357.12,0.15309
4358.02,0.15582
4358.92,0.15714
4359.83,0.15887
4360.73,0.16052
4361.63,0.1628
4362.53,0.16479
4363.43,0.16746
4364.33,0.16875
4365.23,0.17005
4366.13,0.16989
4367.03,0.16872
4367.93,0.1665
4368.83,0.16424
4369.73,0.16168
4370.63,0.15965
4371.53,0.15711
4372.43,0.15495
4373.33,0.15304
4374.23,0.1508
4375.13,0.14918
4376.03,0.14882
4376.93,0.14902
4377.83,0.1504
4378.73,0.15103
4379.63,0.15105
4380.53,0.14909
4381.43,0.14454
4382.33,0.13787
4383.23,0.13079
4384.13,0.12493
4385.03,0.12216
4385.93,0.12234
4386.83,0.12553
4387.73,0.12953
4388.63,0.1343
4389.53,0.13864
4390.43,0.14166
4391.33,0.14468
4392.23,0.14606
4393.13,0.14805
4394.03,0.14999
4394.93,0.15229
4395.83,0.15466
4396.73,0.15681
4397.64,0.15866
4398.54,0.15943
4399.44,0.15908
4400.34,0.15846
4401.24,0.15556
4402.14,0.1525
4403.04,0.14839
4403.94,0.14405
4404.84,0.14115
4405.74,0.13876
4406.64,0.13797
4407.54,0.13892
4408.44,0.14253
4409.34,0.14701
4410.24,0.15215
4411.14,0.15769
4412.04,0.16076
4412.94,0.16248
4413.84,0.16282
4414.74,0.16232
4415.64,0.16042
4416.54,0.15951
4417.44,0.15985
4418.34,0.16124
4419.24,0.16379
4420.14,0.16576
4421.04,0.16742
4421.94,0.16716
4422.84,0.16634
4423.74,0.16514
4424.64,0.16411
4425.54,0.16398
4426.44,0.16349
4427.34,0.16382
4428.24,0.16351
4429.14,0.16405
4430.04,0.16483
4430.94,0.16352
4431.84,0.16252
4432.74,0.16085
4433.64,0.15951
4434.54,0.15837
4435.45,0.15777
4436.35,0.15789
4437.25,0.15966
4438.15,0.16268
4439.05,0.16537
4439.95,0.16814
4440.85,0.16819
4441.75,0.16812
4442.65,0.16686
4443.55,0.16695
4444.45,0.16702
4445.35,0.16871
4446.25,0.17079
4447.15,0.17377
4448.05,0.17539
4448.95,0.17628
4449.85,0.17623
4450.75,0.1751
4451.65,0.17303
4452.55,0.17036
4453.45,0.1666
4454.35,0.16286
4455.25,0.1588
4456.15,0.15482
4457.05,0.15196
4457.95,0.15007
4458.85,0.1489
4459.75,0.14923
4460.65,0.14918
4461.55,0.15074
4462.45,0.15232
4463.35,0.15436
4464.25,0.15741
4465.15,0.16057
4466.05,0.16262
4466.95,0.16488
4467.85,0.16588
4468.75,0.16679
4469.65,0.16747
4470.55,0.16865
4471.45,0.17099
4472.35,0.17343
4473.25,0.17578
4474.16,0.17976
4475.06,0.18224
4475.96,0.1836
4476.86,0.18504
4477.76,0.18553
4478.66,0.18477
4479.56,0.18148
4480.46,0.17944
4481.36,0.17637
4482.26,0.17516
4483.16,0.17495
4484.06,0.17574
4484.96,0.178
4485.86,0.18172
4486.76,0.183
4487.66,0.18315
4488.56,0.18104
4489.46,0.17996
4490.36,0.17834
4491.26,0.17594
4492.16,0.17561
4493.06,0.17455
4493.96,0.17394
4494.86,0.17313
4495.76,0.1733
4496.66,0.17304
4497.56,0.17492
4498.46,0.178
4499.36,0.1804
4500.26,0.18347
4501.16,0.1864
4502.06,0.18873
4502.96,0.19178
4503.86,0.19399
4504.76,0.19601
4505.66,0.19791
4506.56,0.19835
4507.46,0.19887
4508.36,0.19919
4509.26,0.19829
4510.17,0.19752
4511.06,0.19617
4511.97,0.1938
4512.87,0.19273
4513.77,0.1904
4514.67,0.18829
4515.57,0.18693
4516.47,0.18623
4517.37,0.18586
4518.27,0.18615
4519.17,0.18667
4520.07,0.18828
4520.97,0.18823
4521.87,0.18794
4522.77,0.18727
4523.67,0.18499
4524.57,0.18123
4525.47,0.17778
4526.37,0.17302
4527.27,0.1679
4528.17,0.16437
4529.07,0.16202
4529.97,0.16002
4530.87,0.15964
4531.77,0.16041
4532.67,0.16073
4533.57,0.16276
4534.47,0.16461
4535.37,0.16712
4536.27,0.17
4537.17,0.1733
4538.07,0.17602
4538.97,0.1791
4539.87,0.18164
4540.77,0.18306
4541.67,0.18247
4542.57,0.18205
4543.47,0.18283
4544.37,0.18242
4545.27,0.18137
4546.17,0.18055
4547.07,0.17946
4547.97,0.17796
4548.88,0.17765
4549.77,0.17697
4550.68,0.17616
4551.58,0.17626
4552.48,0.1762
4553.38,0.17708
4554.28,0.17646
4555.18,0.17795
4556.08,0.18014
4556.98,0.18255
4557.88,0.18514
4558.78,0.18907
4559.68,0.19099
4560.58,0.1926
4561.48,0.19292
4562.38,0.19307
4563.28,0.19139
4564.18,0.18988
4565.08,0.18844
4565.98,0.1883
4566.88,0.18804
4567.78,0.18791
4568.68,0.18998
4569.58,0.19045
4570.48,0.19134
4571.38,0.19153
4572.28,0.19193
4573.18,0.1911
4574.08,0.19212
4574.98,0.19206
4575.88,0.19238
4576.78,0.19288
4577.68,0.19118
4578.58,0.1884
4579.48,0.18706
4580.38,0.18409
4581.28,0.18126
4582.18,0.18014
4583.08,0.17927
4583.98,0.17956
4584.88,0.17986
4585.78,0.18147
4586.69,0.18268
4587.58,0.18402
4588.49,0.18584
4589.39,0.18727
4590.29,0.18848
4591.19,0.18811
4592.09,0.18806
4592.99,0.18502
4593.89,0.18341
4594.79,0.18248
4595.69,0.18122
4596.59,0.18121
4597.49,0.18042
4598.39,0.18069
4599.29,0.18074
4600.19,0.18096
4601.09,0.18253
4601.99,0.18219
4602.89,0.18303
4603.79,0.18394
4604.69,0.18465
4605.59,0.18582
4606.49,0.18928
4607.39,0.19132
4608.29,0.19365
4609.19,0.19657
4610.09,0.19759
4610.99,0.19926
4611.89,0.19865
4612.79,0.19923
4613.69,0.1981
4614.59,0.19821
4615.49,0.19774
4616.39,0.1988
4617.29,0.19864
4618.19,0.19978
4619.09,0.19975
4619.99,0.19888
4620.89,0.19963
4621.79,0.2004
4622.69,0.2001
4623.59,0.19952
4624.5,0.19939
4625.4,0.1995
4626.3,0.19831
4627.2,0.19838
4628.1,0.19777
4629.0,0.19809
4629.9,0.19806
4630.8,0.19804
4631.7,0.19768
4632.6,0.19694
4633.5,0.19543
4634.4,0.19326
4635.3,0.19202
4636.2,0.19032
4637.1,0.18873
4638.0,0.18777
4638.9,0.18524
4639.8,0.18481
4640.7,0.18446
4641.6,0.18469
4642.5,0.18444
4643.4,0.18403
4644.3,0.18268
4645.2,0.18065
4646.1,0.1796
4647.0,0.17724
4647.9,0.17614
4648.8,0.17616
4649.7,0.17734
4650.6,0.17984
4651.5,0.18114
4652.4,0.18392
4653.3,0.18554
4654.2,0.18615
4655.1,0.18743
4656.0,0.18775
4656.9,0.1893
4657.8,0.19063
4658.7,0.19273
4659.6,0.19569
4660.5,0.19632
4661.4,0.19781
4662.3,0.19572
4663.21,0.1937
4664.11,0.18923
4665.01,0.18583
4665.91,0.18054
4666.81,0.17646
4667.71,0.17342
4668.61,0.17196
4669.51,0.17256
4670.41,0.17388
4671.31,0.17644
4672.21,0.17966
4673.11,0.18319
4674.01,0.18565
4674.91,0.1871
4675.81,0.18898
4676.71,0.18872
4677.61,0.18837
4678.51,0.18838
4679.41,0.18674
4680.31,0.18534
4681.21,0.18469
4682.11,0.18474
4683.01,0.18448
4683.91,0.18444
4684.81,0.18597
4685.71,0.18625
4686.61,0.1877
4687.51,0.18745
4688.41,0.18854
4689.31,0.18718
4690.21,0.18693
4691.11,0.18791
4692.01,0.18692
4692.91,0.18854
4693.81,0.18799
4694.71,0.19003
4695.61,0.19034
4696.51,0.18961
4697.41,0.18921
4698.31,0.18714
4699.21,0.18467
4700.12,0.18317
4701.02,0.18153
4701.92,0.1796
4702.82,0.17859
4703.72,0.17818
4704.62,0.17846
4705.52,0.17882
4706.42,0.17873
4707.32,0.17997
4708.22,0.18017
4709.12,0.18048
4710.02,0.18137
4710.92,0.18407
4711.82,0.18368
4712.72,0.18586
4713.62,0.18593
4714.52,0.18758
4715.42,0.18785
4716.32,0.18998
4717.22,0.19226
4718.12,0.19483
4719.02,0.1977
4719.92,0.20011
4720.82,0.20163
4721.72,0.203
4722.62,0.20315
4723.52,0.2029
4724.42,0.20224
4725.32,0.20064
4726.22,0.19691
4727.12,0.19432
4728.02,0.19173
4728.92,0.18748
4729.82,0.18545
4730.72,0.18368
4731.62,0.18375
4732.52,0.18446
4733.42,0.18596
4734.32,0.18759
4735.22,0.18945
4736.12,0.19124
4737.02,0.19255
4737.92,0.19344
4738.83,0.1928
4739.73,0.19442
4740.63,0.19493
4741.53,0.19616
4742.43,0.1972
4743.33,0.1968
4744.23,0.19812
4745.13,0.19985
4746.03,0.2005
4746.93,0.20117
4747.83,0.20153
4748.73,0.20207
4749.63,0.20211
4750.53,0.20134
4751.43,0.20105
4752.33,0.19967
4753.23,0.19889
4754.13,0.1967
4755.03,0.19579
4755.93,0.19398
4756.83,0.19422
4757.73,0.19427
4758.63,0.19379
4759.53,0.19296
4760.43,0.19268
4761.33,0.19168
4762.23,0.19081
4763.13,0.18839
4764.03,0.1857
4764.93,0.1843
4765.83,0.18251
4766.73,0.18288
4767.63,0.18378
4768.53,0.18424
4769.43,0.18733
4770.33,0.18928
4771.23,0.19022
4772.13,0.19279
4773.03,0.19442
4773.93,0.19627
4774.83,0.19748
4775.73,0.19929
4776.64,0.2006
4777.54,0.20137
4778.44,0.20168
4779.34,0.20126
4780.24,0.20032
4781.14,0.19911
4782.04,0.19802
4782.94,0.19614
4783.84,0.19443
4784.74,0.19236
4785.64,0.19157
4786.54,0.19051
4787.44,0.18985
4788.34,0.19076
4789.24,0.19099
4790.14,0.19084
4791.04,0.1932
4791.94,0.19545
4792.84,0.19761
4793.74,0.19966
4794.64,0.20278
4795.54,0.20378
4796.44,0.2055
4797.34,0.20399
4798.24,0.20378
4799.14,0.20226
4800.04,0.20173
4800.94,0.20028
4801.84,0.20036
4802.74,0.2006
4803.64,0.20066
4804.54,0.20081
4805.44,0.2002
4806.34,0.19933
4807.24,0.19783
4808.14,0.19729
4809.04,0.19709
4809.94,0.19706
4810.84,0.19748
4811.74,0.19832
4812.64,0.1986
4813.54,0.19998
4814.45,0.2008
4815.35,0.20279
4816.25,0.20374
4817.15,0.20497
4818.05,0.20593
4818.95,0.20715
4819.85,0.20718
4820.75,0.20597
