wave,flux
3700.85,0.3206
3701.75,0.31655
3702.65,0.30863
3703.55,0.29804
3704.45,0.28749
3705.35,0.27843
3706.25,0.27445
3707.15,0.27437
3708.05,0.27705
3708.96,0.2805
3709.86,0.28392
3710.76,0.287
3711.66,0.29048
3712.56,0.29591
3713.46,0.30486
3714.36,0.31472
3715.26,0.32347
3716.16,0.33117
3717.06,0.33293
3717.96,0.32926
3718.86,0.31578
3719.76,0.3004
3720.66,0.28342
3721.56,0.2714
3722.46,0.26397
3723.36,0.2682
3724.26,0.28039
3725.16,0.2947
3726.06,0.30916
3726.96,0.31882
3727.86,0.32469
3728.76,0.32854
3729.66,0.32688
3730.56,0.32083
3731.46,0.30939
3732.36,0.29502
3733.26,0.27711
3734.16,0.25846
3735.06,0.24887
3735.96,0.24452
3736.86,0.25046
3737.76,0.26273
3738.66,0.28396
3739.56,0.30461
3740.46,0.32035
3741.36,0.33054
3742.26,0.33551
3743.16,0.33543
3744.06,0.32835
3744.96,0.32039
3745.86,0.30558
3746.76,0.2907
3747.67,0.27618
3748.57,0.26162
3749.47,0.25149
3750.37,0.24783
3751.27,0.2549
3752.17,0.26951
3753.07,0.2895
3753.97,0.3117
3754.87,0.32962
3755.77,0.34274
3756.67,0.34932
3757.57,0.34796
3758.47,0.34303
3759.37,0.33941
3760.27,0.33686
3761.17,0.33934
3762.07,0.34399
3762.97,0.3483
3763.87,0.35079
3764.77,0.35075
3765.67,0.34903
3766.57,0.34291
3767.47,0.33136
3768.37,0.31969
3769.27,0.30923
3770.17,0.29895
3771.07,0.29465
3771.97,0.29689
3772.87,0.30534
3773.77,0.31937
3774.67,0.3333
3775.57,0.34551
3776.47,0.35906
3777.37,0.37005
3778.27,0.38207
3779.17,0.39179
3780.07,0.40249
3780.97,0.408
3781.87,0.41686
3782.77,0.41967
3783.67,0.42048
3784.57,0.41703
3785.47,0.41122
3786.38,0.40318
3787.28,0.39319
3788.18,0.38714
3789.08,0.37971
3789.98,0.37521
3790.88,0.36877
3791.78,0.36393
3792.68,0.3567
3793.58,0.34737
3794.48,0.3321
3795.38,0.31713
3796.28,0.30022
3797.18,0.28553
3798.08,0.27681
3798.98,0.27506
3799.88,0.28353
3800.78,0.29914
3801.68,0.32082
3802.58,0.34388
3803.48,0.36407
3804.38,0.37945
3805.28,0.39045
3806.18,0.39956
3807.08,0.40323
3807.98,0.4081
3808.88,0.41236
3809.78,0.41817
3810.68,0.42134
3811.58,0.42126
3812.48,0.41671
3813.38,0.41292
3814.28,0.40529
3815.18,0.398
3816.08,0.39706
3816.98,0.39724
3817.88,0.39966
3818.78,0.39876
3819.68,0.39704
3820.58,0.39446
3821.48,0.39315
3822.38,0.39021
3823.28,0.38438
3824.18,0.37944
3825.09,0.37249
3825.99,0.36246
3826.89,0.35618
3827.79,0.34862
3828.69,0.34445
3829.59,0.33562
3830.49,0.32641
3831.39,0.313
3832.29,0.29792
3833.19,0.28099
3834.09,0.26518
3834.99,0.25383
3835.89,0.24602
3836.79,0.24597
3837.69,0.25118
3838.59,0.26329
3839.49,0.27833
3840.39,0.29514
3841.29,0.31389
3842.19,0.33394
3843.09,0.35219
3843.99,0.36824
3844.89,0.383
3845.79,0.39407
3846.69,0.40018
3847.59,0.40855
3848.49,0.41166
3849.39,0.41721
3850.29,0.42015
3851.19,0.42229
3852.09,0.42673
3852.99,0.42901
3853.89,0.43323
3854.79,0.43153
3855.69,0.43004
3856.59,0.42665
3857.49,0.42117
3858.39,0.41598
3859.29,0.41406
3860.19,0.41236
3861.09,0.4168
3861.99,0.42325
3862.9,0.43134
3863.8,0.43823
3864.7,0.44117
3865.6,0.4446
3866.5,0.44596
3867.4,0.44577
3868.3,0.44331
3869.2,0.4443
3870.1,0.43683
3871.0,0.4297
3871.9,0.4221
3872.8,0.41537
3873.7,0.40996
3874.6,0.40883
3875.5,0.40459
3876.4,0.40488
3877.3,0.40403
3878.2,0.3993
3879.1,0.39516
3880.0,0.39311
3880.9,0.39073
3881.8,0.38882
3882.7,0.38509
3883.6,0.37524
3884.5,0.36465
3885.4,0.34875
3886.3,0.33205
3887.2,0.31293
3888.1,0.29767
3889.0,0.28612
3889.9,0.28266
3890.8,0.28629
3891.7,0.2985
3892.6,0.31431
3893.5,0.33035
3894.4,0.34619
3895.3,0.35708
3896.2,0.36808
3897.1,0.37767
3898.0,0.38517
3898.9,0.38939
3899.8,0.3954
3900.7,0.40193
3901.6,0.40529
3902.51,0.40674
3903.41,0.40834
3904.31,0.40978
3905.21,0.40887
3906.11,0.40859
3907.01,0.41123
3907.91,0.4185
3908.81,0.42589
3909.71,0.43484
3910.61,0.44191
3911.51,0.44763
3912.41,0.44902
3913.31,0.44966
3914.21,0.44758
3915.11,0.44546
3916.01,0.43998
3916.91,0.43531
3917.81,0.43013
3918.71,0.42533
3919.61,0.42293
3920.51,0.4209
3921.41,0.41639
3922.31,0.41473
3923.21,0.41426
3924.11,0.4103
3925.01,0.40515
3925.91,0.39497
3926.81,0.3826
3927.71,0.36521
3928.61,0.34137
3929.51,0.3136
3930.41,0.28286
3931.31,0.25084
3932.21,0.21856
3933.11,0.19361
3934.01,0.17822
3934.91,0.17487
3935.81,0.18467
3936.71,0.20638
3937.61,0.23725
3938.51,0.27104
3939.42,0.30402
3940.32,0.33241
3941.22,0.35496
3942.12,0.37153
3943.02,0.38432
3943.92,0.39376
3944.82,0.40096
3945.72,0.4071
3946.62,0.41333
3947.52,0.42001
3948.42,0.42469
3949.32,0.42656
3950.22,0.42839
3951.12,0.42982
3952.02,0.43109
3952.92,0.43185
3953.82,0.43319
3954.72,0.43116
3955.62,0.43257
3956.52,0.42763
3957.42,0.42329
3958.32,0.42067
3959.22,0.41458
3960.12,0.40627
3961.02,0.39672
3961.92,0.38078
3962.82,0.36109
3963.72,0.33731
3964.62,0.31177
3965.52,0.28262
3966.42,0.25161
3967.32,0.22021
3968.22,0.19403
3969.12,0.176
3970.02,0.16927
3970.92,0.17576
3971.82,0.19409
3972.72,0.22033
3973.62,0.24978
3974.52,0.28126
3975.42,0.31125
3976.32,0.33683
3977.22,0.35954
3978.13,0.38094
3979.03,0.39727
3979.93,0.4105
3980.83,0.42201
3981.73,0.42921
3982.63,0.43313
3983.53,0.4375
3984.43,0.44118
3985.33,0.44409
3986.23,0.45021
3987.13,0.45451
3988.03,0.461
3988.93,0.46342
3989.83,0.4686
3990.73,0.47199
3991.63,0.47484
3992.53,0.47776
3993.43,0.47957
3994.33,0.47821
3995.23,0.4775
3996.13,0.47387
3997.03,0.4696
3997.93,0.46718
3998.83,0.46962
3999.73,0.47223
4000.63,0.4756
4001.53,0.482
4002.43,0.48543
4003.33,0.4873
4004.23,0.48382
4005.13,0.48044
4006.03,0.4776
4006.93,0.47787
4007.83,0.47799
4008.73,0.48189
4009.63,0.48633
4010.53,0.49099
4011.43,0.49393
4012.33,0.4954
4013.23,0.49687
4014.13,0.49738
4015.03,0.49549
4015.93,0.49867
4016.84,0.49995
4017.74,0.5006
4018.64,0.5028
4019.54,0.50379
4020.44,0.50375
4021.34,0.50599
4022.24,0.50325
4023.14,0.50304
4024.04,0.50452
4024.94,0.50484
4025.84,0.50514
4026.74,0.50941
4027.64,0.50893
4028.54,0.50766
4029.44,0.50368
4030.34,0.49495
4031.24,0.48956
4032.14,0.48366
4033.04,0.48021
4033.94,0.47956
4034.84,0.48341
4035.74,0.49101
4036.64,0.50002
4037.54,0.50571
4038.44,0.51374
4039.34,0.51779
4040.24,0.5185
4041.14,0.51556
4042.04,0.51076
4042.94,0.50453
4043.84,0.49451
4044.74,0.489
4045.64,0.48261
4046.54,0.48053
4047.44,0.48305
4048.34,0.48698
4049.24,0.49441
4050.14,0.50257
4051.04,0.50519
4051.94,0.50754
4052.84,0.50592
4053.74,0.50522
4054.65,0.50121
4055.55,0.49846
4056.45,0.49571
4057.35,0.49632
4058.25,0.4943
4059.15,0.49547
4060.05,0.49687
4060.95,0.49704
4061.85,0.49459
4062.75,0.49083
4063.65,0.48483
4064.55,0.48278
4065.45,0.48029
4066.35,0.4818
4067.25,0.48567
4068.15,0.48886
4069.05,0.49065
4069.95,0.49254
4070.85,0.49517
4071.75,0.49299
4072.65,0.49024
4073.55,0.48651
4074.45,0.48481
4075.35,0.4811
4076.25,0.47494
4077.15,0.46828
4078.05,0.4638
4078.95,0.46191
4079.85,0.46455
4080.75,0.46975
4081.65,0.47642
4082.55,0.48158
4083.45,0.48558
4084.35,0.4895
4085.25,0.48778
4086.15,0.48906
4087.05,0.49072
4087.95,0.49605
4088.85,0.49868
4089.75,0.49853
4090.65,0.50142
4091.55,0.49631
4092.45,0.49534
4093.36,0.48614
4094.26,0.4809
4095.16,0.46978
4096.06,0.45801
4096.96,0.44624
4097.86,0.43144
4098.76,0.41299
4099.66,0.39264
4100.56,0.37402
4101.46,0.35889
4102.36,0.3486
4103.26,0.34862
4104.16,0.35591
4105.06,0.37151
4105.96,0.39078
4106.86,0.40837
4107.76,0.42359
4108.66,0.43691
4109.56,0.44707
4110.46,0.45394
4111.36,0.45957
4112.26,0.46675
4113.16,0.47345
4114.06,0.48187
4114.96,0.48613
4115.86,0.49178
4116.76,0.49419
4117.66,0.49155
4118.56,0.49198
4119.46,0.48944
4120.36,0.48882
4121.26,0.49051
4122.16,0.48975
4123.06,0.48869
4123.96,0.49187
4124.86,0.49767
4125.76,0.49786
4126.66,0.49786
4127.56,0.49811
4128.46,0.49775
4129.36,0.4944
4130.26,0.49186
4131.17,0.49074
4132.06,0.48781
4132.97,0.48586
4133.87,0.48286
4134.77,0.48557
4135.67,0.49294
4136.57,0.49617
4137.47,0.5022
4138.37,0.50836
4139.27,0.51097
4140.17,0.51348
4141.07,0.51165
4141.97,0.50733
4142.87,0.50119
4143.77,0.49424
4144.67,0.49323
4145.57,0.49333
4146.47,0.4957
4147.37,0.50124
4148.27,0.50266
4149.17,0.50534
4150.07,0.50631
4150.97,0.50511
4151.87,0.50303
4152.77,0.50262
4153.67,0.49826
4154.57,0.49622
4155.47,0.49865
4156.37,0.49716
4157.27,0.4995
4158.17,0.50087
4159.07,0.50578
4159.97,0.50945
4160.87,0.51146
4161.77,0.51376
4162.67,0.51722
4163.57,0.51558
4164.47,0.51744
4165.37,0.51841
4166.27,0.51755
4167.17,0.51632
4168.07,0.51354
4168.98,0.50914
4169.88,0.50643
4170.78,0.50285
4171.68,0.49548
4172.58,0.48824
4173.48,0.48426
4174.38,0.48082
4175.28,0.47783
4176.18,0.48051
4177.08,0.48185
4177.98,0.48587
4178.88,0.49234
4179.78,0.49355
4180.68,0.49548
4181.58,0.49988
4182.48,0.50204
4183.38,0.50292
4184.28,0.50205
4185.18,0.50158
4186.08,0.50101
4186.98,0.49943
4187.88,0.49904
4188.78,0.4979
4189.68,0.50133
4190.58,0.50197
4191.48,0.50682
4192.38,0.50807
4193.28,0.50969
4194.18,0.50967
4195.08,0.50894
4195.98,0.50542
4196.88,0.49935
4197.78,0.49546
4198.68,0.49257
4199.58,0.48727
4200.48,0.48521
4201.38,0.4846
4202.28,0.48356
4203.18,0.48599
4204.08,0.48804
4204.98,0.4906
4205.88,0.49567
4206.79,0.4971
4207.69,0.50274
4208.59,0.50404
4209.49,0.50756
4210.39,0.50937
4211.29,0.51094
4212.19,0.5098
4213.09,0.50887
4213.99,0.50591
4214.89,0.50137
4215.79,0.49835
4216.69,0.49489
4217.59,0.49477
4218.49,0.49607
4219.39,0.49936
4220.29,0.50294
4221.19,0.50552
4222.09,0.50276
4222.99,0.49719
4223.89,0.49223
4224.79,0.4791
4225.69,0.46766
4226.59,0.46069
4227.49,0.45643
4228.39,0.45882
4229.29,0.46711
4230.19,0.47631
4231.09,0.48809
4231.99,0.49543
4232.89,0.49624
4233.79,0.49635
4234.69,0.49446
4235.59,0.49168
4236.49,0.48879
4237.39,0.4878
4238.29,0.48824
4239.19,0.48916
4240.09,0.49425
4240.99,0.49714
4241.89,0.49956
4242.79,0.50299
4243.69,0.50503
4244.59,0.50422
4245.5,0.50232
4246.4,0.49901
4247.3,0.49398
4248.2,0.49103
4249.1,0.48925
4250.0,0.48688
4250.9,0.48702
4251.8,0.48852
4252.7,0.49167
4253.6,0.49489
4254.5,0.49527
4255.4,0.49767
4256.3,0.50105
4257.2,0.50204
4258.1,0.49988
4259.0,0.49727
4259.9,0.49763
4260.8,0.4947
4261.7,0.49316
4262.6,0.49545
4263.5,0.50242
4264.4,0.50735
4265.3,0.51162
4266.2,0.51369
4267.1,0.51347
4268.0,0.507
4268.9,0.50549
4269.8,0.49765
4270.7,0.48924
4271.6,0.48188
4272.5,0.47623
4273.4,0.47189
4274.3,0.47488
4275.2,0.47635
4276.1,0.4795
4277.0,0.48652
4277.9,0.49279
4278.8,0.49469
4279.7,0.49712
4280.6,0.49524
4281.5,0.49488
4282.4,0.49101
4283.31,0.48876
4284.21,0.48675
4285.11,0.48358
4286.01,0.47929
4286.91,0.47506
4287.81,0.46911
4288.71,0.46518
4289.61,0.46031
4290.51,0.45635
4291.41,0.45558
4292.31,0.45714
4293.21,0.46098
4294.11,0.46359
4295.01,0.46595
4295.91,0.46373
4296.81,0.4594
4297.71,0.45107
4298.61,0.44272
4299.51,0.43233
4300.41,0.42424
4301.31,0.41854
4302.21,0.4151
4303.11,0.41293
4304.01,0.41288
4304.91,0.41604
4305.81,0.4151
4306.71,0.41612
4307.61,0.41664
4308.51,0.41474
4309.41,0.41428
4310.31,0.41622
4311.21,0.41897
4312.11,0.42593
4313.01,0.43322
4313.91,0.44333
4314.81,0.45418
4315.71,0.46693
4316.61,0.47979
4317.51,0.49345
4318.41,0.50075
4319.31,0.50602
4320.21,0.50552
4321.12,0.50259
4322.02,0.49719
4322.92,0.48663
4323.82,0.47883
4324.72,0.46984
4325.62,0.46465
4326.52,0.46237
4327.42,0.46185
4328.32,0.46705
4329.22,0.4726
4330.12,0.47867
4331.02,0.48039
4331.92,0.48443
4332.82,0.48281
4333.72,0.48138
4334.62,0.47105
4335.52,0.46133
4336.42,0.44733
4337.32,0.42846
4338.22,0.40662
4339.12,0.38826
4340.02,0.37032
4340.92,0.36047
4341.82,0.3583
4342.72,0.36462
4343.62,0.37715
4344.52,0.39529
4345.42,0.41613
4346.32,0.43424
4347.22,0.44707
4348.12,0.45714
4349.02,0.46353
4349.92,0.46894
4350.82,0.46833
4351.72,0.46645
4352.62,0.46714
4353.52,0.46876
4354.42,0.47354
4355.32,0.478
4356.22,0.48269
4357.12,0.4888
4358.02,0.49365
4358.92,0.49688
4359.83,0.49875
4360.73,0.50415
4361.63,0.50823
4362.53,0.5109
4363.43,0.51419
4364.33,0.51655
4365.23,0.51814
4366.13,0.51717
4367.03,0.5169
4367.93,0.51428
4368.83,0.51089
4369.73,0.50813
4370.63,0.50521
4371.53,0.50505
4372.43,0.5012
4373.33,0.49966
4374.23,0.49765
4375.13,0.49726
4376.03,0.49393
4376.93,0.49817
4377.83,0.49971
4378.73,0.50452
4379.63,0.508
4380.53,0.50586
4381.43,0.50304
4382.33,0.49768
4383.23,0.48777
4384.13,0.48202
4385.03,0.47735
4385.93,0.47761
4386.83,0.47939
4387.73,0.48521
4388.63,0.48988
4389.53,0.49543
4390.43,0.49972
4391.33,0.50238
4392.23,0.5033
4393.13,0.50497
4394.03,0.50561
4394.93,0.5051
4395.83,0.50604
4396.73,0.50569
4397.64,0.50838
4398.54,0.5077
4399.44,0.50769
4400.34,0.50845
4401.24,0.50742
4402.14,0.50397
4403.04,0.50299
4403.94,0.50303
4404.84,0.5014
4405.74,0.50171
4406.64,0.5
4407.54,0.50093
4408.44,0.50435
4409.34,0.50791
4410.24,0.51109
4411.14,0.51316
4412.04,0.51933
4412.94,0.51967
4413.84,0.5214
4414.74,0.51807
4415.64,0.51552
4416.54,0.51332
4417.44,0.51198
4418.34,0.5134
4419.24,0.51571
4420.14,0.52019
4421.04,0.52386
4421.94,0.52249
4422.84,0.52558
4423.74,0.52492
4424.64,0.52504
4425.54,0.52135
4426.44,0.52147
4427.34,0.52152
4428.24,0.52174
4429.14,0.52146
4430.04,0.52105
4430.94,0.51995
4431.84,0.51928
4432.74,0.51765
4433.64,0.51496
4434.54,0.51558
4435.45,0.51316
4436.35,0.51458
4437.25,0.51756
4438.15,0.5185
4439.05,0.52223
4439.95,0.52542
4440.85,0.52433
4441.75,0.52311
4442.65,0.51914
4443.55,0.5151
4444.45,0.51598
4445.35,0.51514
4446.25,0.51746
4447.15,0.52049
4448.05,0.52142
4448.95,0.52403
4449.85,0.52599
4450.75,0.52342
4451.65,0.52151
4452.55,0.51932
4453.45,0.51604
4454.35,0.51466
4455.25,0.50684
4456.15,0.50431
4457.05,0.5034
4457.95,0.5012
4458.85,0.50075
4459.75,0.50408
4460.65,0.50506
4461.55,0.50561
4462.45,0.50565
4463.35,0.50991
4464.25,0.51093
4465.15,0.51253
4466.05,0.51696
4466.95,0.51636
4467.85,0.51501
4468.75,0.51795
4469.65,0.51608
4470.55,0.51926
4471.45,0.52069
4472.35,0.5246
4473.25,0.52836
4474.16,0.53299
4475.06,0.53733
4475.96,0.54148
4476.86,0.54124
4477.76,0.54142
4478.66,0.53904
4479.56,0.53511
4480.46,0.5322
4481.36,0.52785
4482.26,0.52681
4483.16,0.52497
4484.06,0.5277
4484.96,0.52983
4485.86,0.53181
4486.76,0.5347
4487.66,0.53328
4488.56,0.53415
4489.46,0.53147
4490.36,0.53106
4491.26,0.52878
4492.16,0.53093
4493.06,0.53061
4493.96,0.52956
4494.86,0.52997
4495.76,0.53165
4496.66,0.53198
4497.56,0.53374
4498.46,0.53759
4499.36,0.53794
4500.26,0.54066
4501.16,0.54265
4502.06,0.54462
4502.96,0.54712
4503.86,0.5498
4504.76,0.55039
4505.66,0.55338
4506.56,0.55609
4507.46,0.55565
4508.36,0.55694
4509.26,0.55526
4510.17,0.55645
4511.06,0.55502
4511.97,0.55318
4512.87,0.55108
4513.77,0.54775
4514.67,0.54796
4515.57,0.54426
4516.47,0.54083
4517.37,0.5399
4518.27,0.53636
4519.17,0.53873
4520.07,0.53715
4520.97,0.53563
4521.87,0.53479
4522.77,0.53319
4523.67,0.53146
4524.57,0.52628
4525.47,0.52313
4526.37,0.52138
4527.27,0.5176
4528.17,0.51291
4529.07,0.51137
4529.97,0.50733
4530.87,0.50879
4531.77,0.50791
4532.67,0.5063
4533.57,0.50391
4534.47,0.50631
4535.37,0.50795
4536.27,0.51154
4537.17,0.51682
4538.07,0.52153
4538.97,0.52683
4539.87,0.53443
4540.77,0.53606
4541.67,0.53975
4542.57,0.53853
4543.47,0.53567
4544.37,0.53611
4545.27,0.53568
4546.17,0.53197
4547.07,0.52657
4547.97,0.52437
4548.88,0.52215
4549.77,0.51908
4550.68,0.51417
4551.58,0.5153
4552.48,0.51358
4553.38,0.51443
4554.28,0.51486
4555.18,0.51738
4556.08,0.51913
4556.98,0.52037
4557.88,0.52668
4558.78,0.53203
4559.68,0.53737
4560.58,0.53975
4561.48,0.54149
4562.38,0.54416
4563.28,0.53916
4564.18,0.53881
4565.08,0.5379
4565.98,0.53979
4566.88,0.53939
4567.78,0.53963
4568.68,0.54265
4569.58,0.54081
4570.48,0.54082
4571.38,0.54127
4572.28,0.53803
4573.18,0.53781
4574.08,0.53789
4574.98,0.54082
4575.88,0.5393
4576.78,0.54132
4577.68,0.54057
4578.58,0.53955
4579.48,0.53665
4580.38,0.53238
4581.28,0.53011
4582.18,0.52765
4583.08,0.52769
4583.98,0.52658
4584.88,0.52834
4585.78,0.52819
4586.69,0.53228
4587.58,0.53445
4588.49,0.53647
4589.39,0.53663
4590.29,0.5373
4591.19,0.53694
4592.09,0.53769
4592.99,0.53596
4593.89,0.53818
4594.79,0.53565
4595.69,0.53712
4596.59,0.53866
4597.49,0.53811
4598.39,0.54009
4599.29,0.53996
4600.19,0.53832
4601.09,0.53904
4601.99,0.53535
4602.89,0.53799
4603.79,0.53802
4604.69,0.53711
4605.59,0.53767
4606.49,0.54009
4607.39,0.54435
4608.29,0.54728
4609.19,0.54713
4610.09,0.5477
4610.99,0.5487
4611.89,0.55038
4612.79,0.54924
4613.69,0.54701
4614.59,0.54599
4615.49,0.5459
4616.39,0.54616
4617.29,0.54345
4618.19,0.5447
4619.09,0.54582
4619.99,0.54596
4620.89,0.54491
4621.79,0.54655
4622.69,0.54788
4623.59,0.54868
4624.5,0.55144
4625.4,0.54988
4626.3,0.5512
4627.2,0.54849
4628.1,0.55116
4629.0,0.5456
4629.9,0.54926
4630.8,0.54725
4631.7,0.54801
4632.6,0.54585
4633.5,0.54576
4634.4,0.54444
4635.3,0.54298
4636.2,0.5442
4637.1,0.54311
4638.0,0.54274
4638.9,0.54512
4639.8,0.54353
4640.7,0.54543
4641.6,0.54464
4642.5,0.54808
4643.4,0.54778
4644.3,0.5464
4645.2,0.54683
4646.1,0.54307
4647.0,0.5415
4647.9,0.54006
4648.8,0.54056
4649.7,0.53872
4650.6,0.53859
4651.5,0.54011
4652.4,0.54027
4653.3,0.54024
4654.2,0.53885
4655.1,0.53814
4656.0,0.53736
4656.9,0.54095
4657.8,0.54275
4658.7,0.54465
4659.6,0.54765
4660.5,0.55011
4661.4,0.55363
4662.3,0.55089
4663.21,0.55004
4664.11,0.54899
4665.01,0.54495
4665.91,0.53831
4666.81,0.53515
4667.71,0.53206
4668.61,0.52851
4669.51,0.52797
4670.41,0.52857
4671.31,0.53088
4672.21,0.53507
4673.11,0.53839
4674.01,0.54044
4674.91,0.5453
4675.81,0.54351
4676.71,0.54607
4677.61,0.54759
4678.51,0.54438
4679.41,0.54452
4680.31,0.54442
4681.21,0.54145
4682.11,0.54127
4683.01,0.54161
4683.91,0.54249
4684.81,0.543
4685.71,0.54534
4686.61,0.54507
4687.51,0.54638
4688.41,0.54731
4689.31,0.5467
4690.21,0.54661
4691.11,0.54914
4692.01,0.54735
4692.91,0.54752
4693.81,0.54843
4694.71,0.55085
4695.61,0.55155
4696.51,0.5553
4697.41,0.55492
4698.31,0.55055
4699.21,0.54838
4700.12,0.54524
4701.02,0.54053
4701.92,0.54052
4702.82,0.53913
4703.72,0.53453
4704.62,0.53524
4705.52,0.53548
4706.42,0.53243
4707.32,0.53213
4708.22,0.53324
4709.12,0.53316
4710.02,0.53304
4710.92,0.53741
4711.82,0.53848
4712.72,0.53682
4713.62,0.54314
4714.52,0.54437
4715.42,0.54671
4716.32,0.54649
4717.22,0.5451
4718.12,0.54794
4719.02,0.54901
4719.92,0.55046
4720.82,0.55243
4721.72,0.55461
4722.62,0.55367
4723.52,0.55232
4724.42,0.5512
4725.32,0.55144
4726.22,0.55302
4727.12,0.5492
4728.02,0.54737
4728.92,0.54437
4729.82,0.54048
4730.72,0.54325
4731.62,0.54107
4732.52,0.54081
4733.42,0.53947
4734.32,0.54039
4735.22,0.53799
4736.12,0.54127
4737.02,0.54152
4737.92,0.54219
4738.83,0.54276
4739.73,0.54174
4740.63,0.54516
4741.53,0.54559
4742.43,0.54557
4743.33,0.54733
4744.23,0.5449
4745.13,0.54932
4746.03,0.54891
4746.93,0.55227
4747.83,0.55048
4748.73,0.55177
4749.63,0.5524
4750.53,0.55117
4751.43,0.55139
4752.33,0.55053
4753.23,0.55019
4754.13,0.54774
4755.03,0.54375
4755.93,0.54549
4756.83,0.54305
4757.73,0.54314
4758.63,0.5415
4759.53,0.54265
4760.43,0.53705
4761.33,0.54037
4762.23,0.53702
4763.13,0.53511
4764.03,0.53342
4764.93,0.53141
4765.83,0.52973
4766.73,0.53182
4767.63,0.53274
4768.53,0.5356
4769.43,0.53912
4770.33,0.54069
4771.23,0.53978
4772.13,0.54245
4773.03,0.54416
4773.93,0.54424
4774.83,0.54397
4775.73,0.54616
4776.64,0.54604
4777.54,0.5466
4778.44,0.54853
4779.34,0.54677
4780.24,0.54663
4781.14,0.54531
4782.04,0.54287
4782.94,0.54193
4783.84,0.53986
4784.74,0.53748
4785.64,0.53713
4786.54,0.53694
4787.44,0.53547
4788.34,0.53373
4789.24,0.53453
4790.14,0.53558
4791.04,0.53589
4791.94,0.53951
4792.84,0.54393
4793.74,0.54571
4794.64,0.54691
4795.54,0.54892
4796.44,0.54849
4797.34,0.54793
4798.24,0.54678
4799.14,0.54718
4800.04,0.54533
4800.94,0.54325
4801.84,0.54387
4802.74,0.54494
4803.64,0.54411
4804.54,0.54554
4805.44,0.54456
4806.34,0.54394
4807.24,0.5445
4808.14,0.54365
4809.04,0.54347
4809.94,0.54445
4810.84,0.5423
4811.74,0.54587
4812.64,0.54719
4813.54,0.54754
4814.45,0.54763
4815.35,0.54869
4816.25,0.54896
4817.15,0.54842
4818.05,0.55079
4818.95,0.55087
4819.85,0.54879
4820.75,0.54664
4821.65,0.54635
4822.55,0.54357
4823.45,0.54342
4824.35,0.5409
4825.25,0.53879
4826.15,0.53879
4827.05,0.53902
4827.95,0.53782
4828.85,0.53712
4829.75,0.54151
4830.65,0.5385
4831.55,0.53497
4832.45,0.53685
4833.35,0.53629
4834.25,0.53514
4835.15,0.53863
4836.05,0.53354
4836.95,0.53503
4837.85,0.53455
4838.75,0.53232
4839.65,0.53137
