wave,flux
3700.85,0.087532
3701.75,0.085623
3702.65,0.082487
3703.55,0.077883
3704.45,0.072583
3705.35,0.068027
3706.25,0.064011
3707.15,0.062247
3708.05,0.061912
3708.96,0.063357
3709.86,0.066294
3710.76,0.070071
3711.66,0.075019
3712.56,0.079962
3713.46,0.084073
3714.36,0.087428
3715.26,0.088465
3716.16,0.08753
3717.06,0.084234
3717.96,0.07864
3718.86,0.071951
3719.76,0.065231
3720.66,0.059227
3721.56,0.055591
3722.46,0.055568
3723.36,0.058327
3724.26,0.062995
3725.16,0.067834
3726.06,0.07156
3726.96,0.073584
3727.86,0.074357
3728.76,0.074472
3729.66,0.073554
3730.56,0.071793
3731.46,0.06892
3732.36,0.064521
3733.26,0.059094
3734.16,0.053693
3735.06,0.049113
3735.96,0.046858
3736.86,0.046965
3737.76,0.05007
3738.66,0.055005
3739.56,0.060618
3740.46,0.065756
3741.36,0.069156
3742.26,0.070277
3743.16,0.068118
3744.06,0.06489
3744.96,0.060648
3745.86,0.056547
3746.76,0.052997
3747.67,0.050064
3748.57,0.048534
3749.47,0.048704
3750.37,0.050872
3751.27,0.055652
3752.17,0.06138
3753.07,0.067806
3753.97,0.074046
3754.87,0.077878
3755.77,0.079335
3756.67,0.077984
3757.57,0.074717
3758.47,0.070952
3759.37,0.067733
3760.27,0.066353
3761.17,0.066641
3762.07,0.067954
3762.97,0.069068
3763.87,0.069691
3764.77,0.070164
3765.67,0.0709
3766.57,0.07077
3767.47,0.071251
3768.37,0.072117
3769.27,0.073217
3770.17,0.074934
3771.07,0.077104
3771.97,0.079479
3772.87,0.081786
3773.77,0.084058
3774.67,0.085891
3775.57,0.087042
3776.47,0.087847
3777.37,0.08835
3778.27,0.089456
3779.17,0.09106
3780.07,0.092765
3780.97,0.094051
3781.87,0.095206
3782.77,0.09622
3783.67,0.095701
3784.57,0.094017
3785.47,0.090997
3786.38,0.08707
3787.28,0.083342
3788.18,0.079501
3789.08,0.076635
3789.98,0.075111
3790.88,0.074985
3791.78,0.074718
3792.68,0.074604
3793.58,0.073671
3794.48,0.071939
3795.38,0.069989
3796.28,0.06786
3797.18,0.066088
3798.08,0.06497
3798.98,0.065084
3799.88,0.066956
3800.78,0.07058
3801.68,0.07544
3802.58,0.080222
3803.48,0.08488
3804.38,0.087417
3805.28,0.088843
3806.18,0.089458
3807.08,0.088246
3807.98,0.087895
3808.88,0.08813
3809.78,0.088457
3810.68,0.088595
3811.58,0.08805
3812.48,0.08494
3813.38,0.081832
3814.28,0.077098
3815.18,0.073363
3816.08,0.070394
3816.98,0.068694
3817.88,0.067761
3818.78,0.066655
3819.68,0.065023
3820.58,0.063944
3821.48,0.062865
3822.38,0.061424
3823.28,0.060359
3824.18,0.05907
3825.09,0.056766
3825.99,0.054698
3826.89,0.052861
3827.79,0.051675
3828.69,0.051182
3829.59,0.051408
3830.49,0.051359
3831.39,0.051002
3832.29,0.050032
3833.19,0.0489
3834.09,0.047956
3834.99,0.047603
3835.89,0.04777
3836.79,0.048122
3837.69,0.048379
3838.59,0.048629
3839.49,0.049547
3840.39,0.051161
3841.29,0.054626
3842.19,0.05916
3843.09,0.064302
3843.99,0.069683
3844.89,0.073902
3845.79,0.0767
3846.69,0.078115
3847.59,0.079047
3848.49,0.079085
3849.39,0.078396
3850.29,0.077687
3851.19,0.077212
3852.09,0.077176
3852.99,0.076984
3853.89,0.076375
3854.79,0.074981
3855.69,0.073509
3856.59,0.070407
3857.49,0.067869
3858.39,0.064873
3859.29,0.063123
3860.19,0.062224
3861.09,0.063641
3861.99,0.066769
3862.9,0.070293
3863.8,0.073934
3864.7,0.07657
3865.6,0.078065
3866.5,0.078071
3867.4,0.077569
3868.3,0.076666
3869.2,0.074653
3870.1,0.072731
3871.0,0.070526
3871.9,0.068797
3872.8,0.067671
3873.7,0.06828
3874.6,0.069783
3875.5,0.071596
3876.4,0.072557
3877.3,0.07231
3878.2,0.071607
3879.1,0.070404
3880.0,0.069793
3880.9,0.069302
3881.8,0.069445
3882.7,0.069741
3883.6,0.06992
3884.5,0.069305
3885.4,0.068544
3886.3,0.067052
3887.2,0.065412
3888.1,0.064995
3889.0,0.065015
3889.9,0.067195
3890.8,0.07043
3891.7,0.07398
3892.6,0.077605
3893.5,0.080153
3894.4,0.081679
3895.3,0.082626
3896.2,0.083204
3897.1,0.083784
3898.0,0.083877
3898.9,0.084233
3899.8,0.084505
3900.7,0.084034
3901.6,0.083922
3902.51,0.08332
3903.41,0.082522
3904.31,0.081553
3905.21,0.080333
3906.11,0.080575
3907.01,0.081016
3907.91,0.083459
3908.81,0.086564
3909.71,0.089819
3910.61,0.092709
3911.51,0.094867
3912.41,0.096442
3913.31,0.09713
3914.21,0.096586
3915.11,0.09572
3916.01,0.093937
3916.91,0.09235
3917.81,0.090155
3918.71,0.087755
3919.61,0.084109
3920.51,0.081004
3921.41,0.078541
3922.31,0.076189
3923.21,0.075125
3924.11,0.073587
3925.01,0.072122
3925.91,0.069772
3926.81,0.065935
3927.71,0.060954
3928.61,0.054834
3929.51,0.048353
3930.41,0.04217
3931.31,0.036434
3932.21,0.031645
3933.11,0.028084
3934.01,0.026045
3934.91,0.026092
3935.81,0.027662
3936.71,0.031059
3937.61,0.036051
3938.51,0.041782
3939.42,0.047834
3940.32,0.053209
3941.22,0.058038
3942.12,0.06159
3943.02,0.06451
3943.92,0.067413
3944.82,0.069993
3945.72,0.073579
3946.62,0.07705
3947.52,0.080705
3948.42,0.083895
3949.32,0.086487
3950.22,0.089383
3951.12,0.091129
3952.02,0.092361
3952.92,0.093079
3953.82,0.0937
3954.72,0.094029
3955.62,0.093853
3956.52,0.093023
3957.42,0.091327
3958.32,0.089662
3959.22,0.087086
3960.12,0.083612
3961.02,0.078928
3961.92,0.07327
3962.82,0.067454
3963.72,0.061263
3964.62,0.055352
3965.52,0.049171
3966.42,0.043619
3967.32,0.038326
3968.22,0.034098
3969.12,0.031895
3970.02,0.031661
3970.92,0.033878
3971.82,0.038147
3972.72,0.043967
3973.62,0.050743
3974.52,0.057791
3975.42,0.065138
3976.32,0.072107
3977.22,0.078453
3978.13,0.084889
3979.03,0.09037
3979.93,0.094916
3980.83,0.097521
3981.73,0.10044
3982.63,0.10128
3983.53,0.10208
3984.43,0.10285
3985.33,0.10413
3986.23,0.10545
3987.13,0.10654
3988.03,0.10825
3988.93,0.10961
3989.83,0.11107
3990.73,0.11216
3991.63,0.11339
3992.53,0.11386
3993.43,0.11406
3994.33,0.11393
3995.23,0.11248
3996.13,0.11197
3997.03,0.11064
3997.93,0.11063
3998.83,0.11121
3999.73,0.11282
4000.63,0.11443
4001.53,0.11629
4002.43,0.11717
4003.33,0.11776
4004.23,0.11564
4005.13,0.11387
4006.03,0.11169
4006.93,0.11118
4007.83,0.1118
4008.73,0.11336
4009.63,0.11561
4010.53,0.11754
4011.43,0.11895
4012.33,0.12049
4013.23,0.12215
4014.13,0.12281
4015.03,0.12269
4015.93,0.1227
4016.84,0.12289
4017.74,0.12219
4018.64,0.12254
4019.54,0.12289
4020.44,0.12281
4021.34,0.12235
4022.24,0.1231
4023.14,0.12282
4024.04,0.12303
4024.94,0.12341
4025.84,0.12415
4026.74,0.12451
4027.64,0.12525
4028.54,0.12494
4029.44,0.1229
4030.34,0.1203
4031.24,0.11649
4032.14,0.11315
4033.04,0.11106
4033.94,0.11035
4034.84,0.11198
4035.74,0.11427
4036.64,0.11857
4037.54,0.12298
4038.44,0.12643
4039.34,0.12812
4040.24,0.12865
4041.14,0.12724
4042.04,0.12537
4042.94,0.12166
4043.84,0.11734
4044.74,0.11258
4045.64,0.10928
4046.54,0.10683
4047.44,0.10772
4048.34,0.11071
4049.24,0.11532
4050.14,0.11989
4051.04,0.12288
4051.94,0.12493
4052.84,0.12538
4053.74,0.12408
4054.65,0.12282
4055.55,0.12075
4056.45,0.11978
4057.35,0.11798
4058.25,0.118
4059.15,0.11789
4060.05,0.11768
4060.95,0.11786
4061.85,0.117
4062.75,0.11455
4063.65,0.11195
4064.55,0.11021
4065.45,0.11018
4066.35,0.11076
4067.25,0.11317
4068.15,0.11633
4069.05,0.11781
4069.95,0.1189
4070.85,0.11926
4071.75,0.11905
4072.65,0.11813
4073.55,0.11718
4074.45,0.11645
4075.35,0.1155
4076.25,0.11446
4077.15,0.1132
4078.05,0.11235
4078.95,0.11287
4079.85,0.11492
4080.75,0.11834
4081.65,0.12118
4082.55,0.12381
4083.45,0.12538
4084.35,0.12607
4085.25,0.12653
4086.15,0.12783
4087.05,0.13012
4087.95,0.13279
4088.85,0.13481
4089.75,0.13656
4090.65,0.13799
4091.55,0.13765
4092.45,0.13621
4093.36,0.13471
4094.26,0.13252
4095.16,0.13033
4096.06,0.12701
4096.96,0.12445
4097.86,0.12086
4098.76,0.11695
4099.66,0.11302
4100.56,0.11055
4101.46,0.10699
4102.36,0.10544
4103.26,0.10589
4104.16,0.10807
4105.06,0.11168
4105.96,0.11577
4106.86,0.11938
4107.76,0.1227
4108.66,0.12462
4109.56,0.12564
4110.46,0.12555
4111.36,0.12657
4112.26,0.12669
4113.16,0.12787
4114.06,0.12923
4114.96,0.13062
4115.86,0.13176
4116.76,0.13185
4117.66,0.13119
4118.56,0.1302
4119.46,0.12976
4120.36,0.12827
4121.26,0.12781
4122.16,0.12787
4123.06,0.12843
4123.96,0.12977
4124.86,0.13041
4125.76,0.12996
4126.66,0.12963
4127.56,0.12902
4128.46,0.12742
4129.36,0.12584
4130.26,0.12413
4131.17,0.12205
4132.06,0.11983
4132.97,0.11861
4133.87,0.11823
4134.77,0.11943
4135.67,0.12182
4136.57,0.12436
4137.47,0.12773
4138.37,0.12988
4139.27,0.13137
4140.17,0.13093
4141.07,0.12938
4141.97,0.12638
4142.87,0.12255
4143.77,0.11926
4144.67,0.11881
4145.57,0.11845
4146.47,0.11973
4147.37,0.12202
4148.27,0.12409
4149.17,0.12557
4150.07,0.12552
4150.97,0.12603
4151.87,0.1256
4152.77,0.12448
4153.67,0.12378
4154.57,0.12308
4155.47,0.12339
4156.37,0.12328
4157.27,0.12445
4158.17,0.12587
4159.07,0.12744
4159.97,0.12946
4160.87,0.1313
4161.77,0.13271
4162.67,0.13429
4163.57,0.13496
4164.47,0.13388
4165.37,0.13328
4166.27,0.13237
4167.17,0.1306
4168.07,0.1295
4168.98,0.12787
4169.88,0.1265
4170.78,0.12492
4171.68,0.12272
4172.58,0.12076
4173.48,0.11845
4174.38,0.11758
4175.28,0.11686
4176.18,0.11792
4177.08,0.11887
4177.98,0.12056
4178.88,0.12175
4179.78,0.12349
4180.68,0.12441
4181.58,0.12507
4182.48,0.12541
4183.38,0.12571
4184.28,0.12597
4185.18,0.12538
4186.08,0.12479
4186.98,0.12424
4187.88,0.1237
4188.78,0.12314
4189.68,0.12335
4190.58,0.12472
4191.48,0.12619
4192.38,0.12742
4193.28,0.12838
4194.18,0.12825
4195.08,0.1283
4195.98,0.12584
4196.88,0.1232
4197.78,0.12084
4198.68,0.11858
4199.58,0.11646
4200.48,0.11569
4201.38,0.11523
4202.28,0.11585
4203.18,0.11753
4204.08,0.11935
4204.98,0.12117
4205.88,0.12435
4206.79,0.1274
4207.69,0.12914
4208.59,0.13099
4209.49,0.13248
4210.39,0.13274
4211.29,0.13228
4212.19,0.13307
4213.09,0.13111
4213.99,0.13035
4214.89,0.12886
4215.79,0.12798
4216.69,0.12717
4217.59,0.12766
4218.49,0.1287
4219.39,0.13014
4220.29,0.1317
4221.19,0.13233
4222.09,0.13016
4222.99,0.12679
4223.89,0.12116
4224.79,0.11491
4225.69,0.10855
4226.59,0.10386
4227.49,0.10181
4228.39,0.10266
4229.29,0.10737
4230.19,0.1121
4231.09,0.11777
4231.99,0.12226
4232.89,0.12431
4233.79,0.12568
4234.69,0.12475
4235.59,0.12401
4236.49,0.123
4237.39,0.12254
4238.29,0.12184
4239.19,0.12323
4240.09,0.1248
4240.99,0.1264
4241.89,0.1283
4242.79,0.13017
4243.69,0.13216
4244.59,0.13301
4245.5,0.13277
4246.4,0.13148
4247.3,0.1303
4248.2,0.12735
4249.1,0.12448
4250.0,0.12236
4250.9,0.12087
4251.8,0.12071
4252.7,0.12066
4253.6,0.12108
4254.5,0.12178
4255.4,0.12307
4256.3,0.12403
4257.2,0.12387
4258.1,0.12408
4259.0,0.12347
4259.9,0.12252
4260.8,0.12153
4261.7,0.12257
4262.6,0.12331
4263.5,0.12631
4264.4,0.13027
4265.3,0.13272
4266.2,0.13358
4267.1,0.1337
4268.0,0.132
4268.9,0.12804
4269.8,0.12429
4270.7,0.11885
4271.6,0.11466
4272.5,0.11065
4273.4,0.10897
4274.3,0.1095
4275.2,0.11103
4276.1,0.11494
4277.0,0.11847
4277.9,0.12229
4278.8,0.12513
4279.7,0.12637
4280.6,0.12724
4281.5,0.12677
4282.4,0.12576
4283.31,0.12506
4284.21,0.12459
4285.11,0.12328
4286.01,0.12143
4286.91,0.11954
4287.81,0.11724
4288.71,0.11556
4289.61,0.11285
4290.51,0.11212
4291.41,0.11209
4292.31,0.11331
4293.21,0.11513
4294.11,0.11619
4295.01,0.11662
4295.91,0.11495
4296.81,0.11348
4297.71,0.10925
4298.61,0.10493
4299.51,0.10019
4300.41,0.09611
4301.31,0.09326
4302.21,0.091403
4303.11,0.090883
4304.01,0.090761
4304.91,0.090913
4305.81,0.089892
4306.71,0.089359
4307.61,0.088448
4308.51,0.087859
4309.41,0.08723
4310.31,0.088727
4311.21,0.091337
4312.11,0.095874
4313.01,0.10166
4313.91,0.10901
4314.81,0.11691
4315.71,0.12568
4316.61,0.13416
4317.51,0.14088
4318.41,0.14579
4319.31,0.14904
4320.21,0.14767
4321.12,0.14615
4322.02,0.14163
4322.92,0.13561
4323.82,0.12954
4324.72,0.12357
4325.62,0.1202
4326.52,0.11955
4327.42,0.12169
4328.32,0.1261
4329.22,0.13196
4330.12,0.13666
4331.02,0.14153
4331.92,0.14404
4332.82,0.14656
4333.72,0.14742
4334.62,0.14665
4335.52,0.14486
4336.42,0.14096
4337.32,0.13595
4338.22,0.13024
4339.12,0.12482
4340.02,0.12012
4340.92,0.1175
4341.82,0.11737
4342.72,0.11925
4343.62,0.12363
4344.52,0.12797
4345.42,0.13341
4346.32,0.13755
4347.22,0.14043
4348.12,0.14282
4349.02,0.14281
4349.92,0.14204
4350.82,0.14028
4351.72,0.13771
4352.62,0.13531
4353.52,0.13419
4354.42,0.1339
4355.32,0.1356
4356.22,0.13721
4357.12,0.1388
4358.02,0.14156
4358.92,0.14217
4359.83,0.14386
4360.73,0.14506
4361.63,0.1462
4362.53,0.14772
4363.43,0.14894
4364.33,0.1504
4365.23,0.15131
4366.13,0.15061
4367.03,0.14951
4367.93,0.14744
4368.83,0.14662
4369.73,0.14535
4370.63,0.14307
4371.53,0.14201
4372.43,0.14022
4373.33,0.1387
4374.23,0.13662
4375.13,0.1354
4376.03,0.13545
4376.93,0.13576
4377.83,0.1373
4378.73,0.13831
4379.63,0.13898
4380.53,0.13727
4381.43,0.13434
4382.33,0.12891
4383.23,0.12461
4384.13,0.12021
4385.03,0.11795
4385.93,0.11799
4386.83,0.11979
4387.73,0.12346
4388.63,0.12739
4389.53,0.12966
4390.43,0.13266
4391.33,0.13443
4392.23,0.13647
4393.13,0.13759
4394.03,0.13925
4394.93,0.14013
4395.83,0.14098
4396.73,0.14273
4397.64,0.14356
4398.54,0.14403
4399.44,0.14377
4400.34,0.14263
4401.24,0.14098
4402.14,0.13965
4403.04,0.13702
4403.94,0.13509
4404.84,0.13316
4405.74,0.13117
4406.64,0.13138
4407.54,0.13265
4408.44,0.13454
4409.34,0.1376
4410.24,0.14142
4411.14,0.1453
4412.04,0.14806
4412.94,0.14923
4413.84,0.149
4414.74,0.14836
4415.64,0.14702
4416.54,0.14628
4417.44,0.14659
4418.34,0.14752
4419.24,0.14919
4420.14,0.15053
4421.04,0.15204
4421.94,0.15185
4422.84,0.15232
4423.74,0.15179
4424.64,0.15087
4425.54,0.15066
4426.44,0.14969
4427.34,0.1495
4428.24,0.1502
4429.14,0.15037
4430.04,0.15024
4430.94,0.14969
4431.84,0.14927
4432.74,0.14808
4433.64,0.14721
4434.54,0.14606
4435.45,0.1461
4436.35,0.14597
4437.25,0.14756
4438.15,0.15023
4439.05,0.15219
4439.95,0.15339
4440.85,0.15282
4441.75,0.15305
4442.65,0.1523
4443.55,0.15123
4444.45,0.15136
4445.35,0.15241
4446.25,0.15371
4447.15,0.15545
4448.05,0.15721
4448.95,0.15729
4449.85,0.15768
4450.75,0.15652
4451.65,0.1556
4452.55,0.15363
4453.45,0.15114
4454.35,0.14845
4455.25,0.1453
4456.15,0.14295
4457.05,0.14131
4457.95,0.13999
4458.85,0.13979
4459.75,0.13993
4460.65,0.13997
4461.55,0.14081
4462.45,0.1423
4463.35,0.14455
4464.25,0.14692
4465.15,0.14873
4466.05,0.14996
4466.95,0.15157
4467.85,0.15197
4468.75,0.15239
4469.65,0.15204
4470.55,0.15352
4471.45,0.15517
4472.35,0.1571
4473.25,0.15973
4474.16,0.16213
4475.06,0.16398
4475.96,0.1655
4476.86,0.16647
4477.76,0.1658
4478.66,0.16534
4479.56,0.1636
4480.46,0.16194
4481.36,0.16007
4482.26,0.15892
4483.16,0.15835
4484.06,0.1596
4484.96,0.16116
4485.86,0.16325
4486.76,0.16378
4487.66,0.16336
4488.56,0.16404
4489.46,0.16257
4490.36,0.16214
4491.26,0.16024
4492.16,0.15982
4493.06,0.16021
4493.96,0.15974
4494.86,0.15939
4495.76,0.15897
4496.66,0.15964
4497.56,0.16029
4498.46,0.16145
4499.36,0.16371
4500.26,0.16539
4501.16,0.16756
4502.06,0.16867
4502.96,0.1711
4503.86,0.17296
4504.76,0.17459
4505.66,0.17603
4506.56,0.177
4507.46,0.17708
4508.36,0.17618
4509.26,0.17677
4510.17,0.17577
4511.06,0.17469
4511.97,0.17378
4512.87,0.17297
4513.77,0.17179
4514.67,0.17055
4515.57,0.16847
4516.47,0.16856
4517.37,0.16798
4518.27,0.16827
4519.17,0.16783
4520.07,0.16796
4520.97,0.16747
4521.87,0.16741
4522.77,0.16701
4523.67,0.1642
4524.57,0.16253
4525.47,0.15979
4526.37,0.15702
4527.27,0.15362
4528.17,0.15159
4529.07,0.1497
4529.97,0.14895
4530.87,0.14878
4531.77,0.14859
4532.67,0.14885
4533.57,0.14972
4534.47,0.15046
4535.37,0.15106
4536.27,0.15334
4537.17,0.15598
4538.07,0.15877
4538.97,0.1617
4539.87,0.1641
4540.77,0.16569
4541.67,0.16631
4542.57,0.16603
4543.47,0.16576
4544.37,0.16485
4545.27,0.16448
4546.17,0.16358
4547.07,0.16244
4547.97,0.16124
4548.88,0.16088
4549.77,0.1598
4550.68,0.15974
4551.58,0.1591
4552.48,0.15943
4553.38,0.15841
4554.28,0.15939
4555.18,0.1605
4556.08,0.16164
4556.98,0.16345
4557.88,0.1653
4558.78,0.16774
4559.68,0.1705
4560.58,0.1713
4561.48,0.17195
4562.38,0.17192
4563.28,0.17098
4564.18,0.16985
4565.08,0.16949
4565.98,0.16879
4566.88,0.16914
4567.78,0.16958
4568.68,0.17007
4569.58,0.17118
4570.48,0.17094
4571.38,0.17134
4572.28,0.17078
4573.18,0.171
4574.08,0.17121
4574.98,0.17175
4575.88,0.17261
4576.78,0.17237
4577.68,0.17146
4578.58,0.16979
4579.48,0.16848
4580.38,0.16673
4581.28,0.16577
4582.18,0.16374
4583.08,0.16349
4583.98,0.16307
4584.88,0.16468
4585.78,0.16464
4586.69,0.16641
4587.58,0.16686
4588.49,0.16907
4589.39,0.17041
4590.29,0.17068
4591.19,0.17021
4592.09,0.17
4592.99,0.16944
4593.89,0.16801
4594.79,0.1675
4595.69,0.16622
4596.59,0.16708
4597.49,0.1668
4598.39,0.16672
4599.29,0.16622
4600.19,0.16747
4601.09,0.16662
4601.99,0.16721
4602.89,0.16694
4603.79,0.16799
4604.69,0.16881
4605.59,0.16985
4606.49,0.17048
4607.39,0.1723
4608.29,0.17483
4609.19,0.176
4610.09,0.17634
4610.99,0.17819
4611.89,0.17732
4612.79,0.17743
4613.69,0.17719
4614.59,0.1764
4615.49,0.1763
4616.39,0.1765
4617.29,0.17655
4618.19,0.17636
4619.09,0.17683
4619.99,0.17681
4620.89,0.17703
4621.79,0.17679
4622.69,0.17817
4623.59,0.17823
4624.5,0.17791
4625.4,0.17781
4626.3,0.17727
4627.2,0.17781
4628.1,0.17684
4629.0,0.17771
4629.9,0.17687
4630.8,0.17675
4631.7,0.17673
4632.6,0.1764
4633.5,0.17529
4634.4,0.17448
4635.3,0.1735
4636.2,0.17216
4637.1,0.17098
4638.0,0.17081
4638.9,0.1699
4639.8,0.16983
4640.7,0.16903
4641.6,0.17043
4642.5,0.17104
4643.4,0.17115
4644.3,0.17021
4645.2,0.16936
4646.1,0.16837
4647.0,0.16656
4647.9,0.16582
4648.8,0.16593
4649.7,0.16612
4650.6,0.16677
4651.5,0.16791
4652.4,0.16893
4653.3,0.16957
4654.2,0.16895
4655.1,0.16964
4656.0,0.17033
4656.9,0.17125
4657.8,0.1726
4658.7,0.17492
4659.6,0.17639
4660.5,0.17777
4661.4,0.17806
4662.3,0.17786
4663.21,0.17647
4664.11,0.17393
4665.01,0.17154
4665.91,0.1683
4666.81,0.16508
4667.71,0.16321
4668.61,0.16216
4669.51,0.16158
4670.41,0.16294
4671.31,0.16414
4672.21,0.16649
4673.11,0.16829
4674.01,0.17013
4674.91,0.17277
4675.81,0.17325
4676.71,0.17319
4677.61,0.1742
4678.51,0.17279
4679.41,0.17195
4680.31,0.17071
4681.21,0.16983
4682.11,0.16934
4683.01,0.17014
4683.91,0.17052
4684.81,0.17086
4685.71,0.17203
4686.61,0.17234
4687.51,0.17251
4688.41,0.17267
4689.31,0.17298
4690.21,0.17288
4691.11,0.17217
4692.01,0.17324
4692.91,0.17456
4693.81,0.1749
4694.71,0.17539
4695.61,0.17592
4696.51,0.17647
4697.41,0.17535
4698.31,0.17463
4699.21,0.17355
4700.12,0.17127
4701.02,0.16923
4701.92,0.16793
4702.82,0.16691
4703.72,0.1671
4704.62,0.16652
4705.52,0.16687
4706.42,0.16654
4707.32,0.16701
4708.22,0.16637
4709.12,0.16719
4710.02,0.16778
4710.92,0.169
4711.82,0.16965
4712.72,0.17038
4713.62,0.17231
4714.52,0.17286
4715.42,0.17349
4716.32,0.17455
4717.22,0.17616
4718.12,0.17716
4719.02,0.17835
4719.92,0.18025
4720.82,0.18003
4721.72,0.18217
4722.62,0.18169
4723.52,0.18216
4724.42,0.1807
4725.32,0.17978
4726.22,0.17933
4727.12,0.17672
4728.02,0.17514
4728.92,0.17286
4729.82,0.17099
4730.72,0.17055
4731.62,0.17004
4732.52,0.17035
4733.42,0.17203
4734.32,0.17315
4735.22,0.17372
4736.12,0.17395
4737.02,0.17432
4737.92,0.17498
4738.83,0.17629
4739.73,0.17455
4740.63,0.17579
4741.53,0.17641
4742.43,0.17741
4743.33,0.1776
4744.23,0.17839
4745.13,0.17934
4746.03,0.18022
4746.93,0.18052
4747.83,0.18043
4748.73,0.18128
4749.63,0.18179
4750.53,0.1818
4751.43,0.18089
4752.33,0.18033
4753.23,0.17971
4754.13,0.17789
4755.03,0.17744
4755.93,0.17626
4756.83,0.17568
4757.73,0.17513
4758.63,0.17551
4759.53,0.17492
4760.43,0.17419
4761.33,0.17308
4762.23,0.17194
4763.13,0.17106
4764.03,0.1695
4764.93,0.16891
4765.83,0.1684
4766.73,0.16778
4767.63,0.16814
4768.53,0.16861
4769.43,0.17093
4770.33,0.17215
4771.23,0.17265
4772.13,0.17398
4773.03,0.17565
4773.93,0.17626
4774.83,0.17748
4775.73,0.17758
4776.64,0.17844
4777.54,0.17965
4778.44,0.1795
4779.34,0.17828
4780.24,0.17832
4781.14,0.17719
4782.04,0.17644
4782.94,0.17458
4783.84,0.17388
4784.74,0.17322
4785.64,0.1721
4786.54,0.17286
4787.44,0.17126
4788.34,0.17159
4789.24,0.17168
4790.14,0.17298
4791.04,0.17324
4791.94,0.17463
4792.84,0.176
4793.74,0.17821
4794.64,0.17988
4795.54,0.18062
4796.44,0.18189
4797.34,0.1818
4798.24,0.18131
4799.14,0.17995
4800.04,0.17972
4800.94,0.17866
4801.84,0.17875
4802.74,0.17884
4803.64,0.17912
4804.54,0.17981
4805.44,0.17882
4806.34,0.17842
4807.24,0.17758
4808.14,0.17701
4809.04,0.17641
4809.94,0.17656
4810.84,0.17801
4811.74,0.1783
4812.64,0.17856
4813.54,0.18005
4814.45,0.18007
4815.35,0.18125
4816.25,0.18251
4817.15,0.18235
4818.05,0.18394
4818.95,0.18385
4819.85,0.1841
4820.75,0.18267
4821.65,0.18216
4822.55,0.18171
