wave,flux
3700.85,0.06145
3701.75,0.060254
3702.65,0.057371
3703.55,0.053466
3704.45,0.048904
3705.35,0.044802
3706.25,0.041333
3707.15,0.039326
3708.05,0.038855
3708.96,0.04021
3709.86,0.042764
3710.76,0.046639
3711.66,0.051401
3712.56,0.055949
3713.46,0.059751
3714.36,0.061761
3715.26,0.061377
3716.16,0.059708
3717.06,0.055809
3717.96,0.050391
3718.86,0.044636
3719.76,0.039115
3720.66,0.034989
3721.56,0.032698
3722.46,0.032875
3723.36,0.035322
3724.26,0.038592
3725.16,0.042151
3726.06,0.044792
3726.96,0.04604
3727.86,0.046227
3728.76,0.045928
3729.66,0.045196
3730.56,0.043808
3731.46,0.041493
3732.36,0.038278
3733.26,0.034617
3734.16,0.03063
3735.06,0.02757
3735.96,0.026055
3736.86,0.026202
3737.76,0.028272
3738.66,0.031777
3739.56,0.035783
3740.46,0.039355
3741.36,0.041414
3742.26,0.041681
3743.16,0.04023
3744.06,0.03754
3744.96,0.034329
3745.86,0.031161
3746.76,0.028858
3747.67,0.027388
3748.57,0.026974
3749.47,0.02748
3750.37,0.029826
3751.27,0.033521
3752.17,0.038061
3753.07,0.042733
3753.97,0.046978
3754.87,0.049662
3755.77,0.050334
3756.67,0.048891
3757.57,0.046319
3758.47,0.043061
3759.37,0.04083
3760.27,0.039642
3761.17,0.039585
3762.07,0.040021
3762.97,0.040636
3763.87,0.040871
3764.77,0.041013
3765.67,0.041384
3766.57,0.041814
3767.47,0.042705
3768.37,0.04422
3769.27,0.046505
3770.17,0.049005
3771.07,0.051514
3771.97,0.053853
3772.87,0.055746
3773.77,0.057035
3774.67,0.057671
3775.57,0.057847
3776.47,0.057886
3777.37,0.057685
3778.27,0.058196
3779.17,0.05901
3780.07,0.060212
3780.97,0.061255
3781.87,0.061917
3782.77,0.062387
3783.67,0.061838
3784.57,0.060135
3785.47,0.057751
3786.38,0.054248
3787.28,0.050727
3788.18,0.047465
3789.08,0.045113
3789.98,0.044062
3790.88,0.044068
3791.78,0.04422
3792.68,0.044285
3793.58,0.0439
3794.48,0.043163
3795.38,0.041924
3796.28,0.040551
3797.18,0.039708
3798.08,0.039075
3798.98,0.039277
3799.88,0.040416
3800.78,0.042488
3801.68,0.045587
3802.58,0.048515
3803.48,0.051369
3804.38,0.05284
3805.28,0.053717
3806.18,0.053262
3807.08,0.052711
3807.98,0.052032
3808.88,0.052148
3809.78,0.052374
3810.68,0.052584
3811.58,0.051988
3812.48,0.050267
3813.38,0.047507
3814.28,0.044171
3815.18,0.041183
3816.08,0.038751
3816.98,0.037085
3817.88,0.0358
3818.78,0.034846
3819.68,0.033921
3820.58,0.032869
3821.48,0.031915
3822.38,0.031175
3823.28,0.030646
3824.18,0.029957
3825.09,0.028884
3825.99,0.027696
3826.89,0.026778
3827.79,0.026392
3828.69,0.026519
3829.59,0.026979
3830.49,0.027348
3831.39,0.027591
3832.29,0.02745
3833.19,0.027054
3834.09,0.027028
3834.99,0.027239
3835.89,0.02753
3836.79,0.027894
3837.69,0.027881
3838.59,0.027864
3839.49,0.027895
3840.39,0.028374
3841.29,0.030105
3842.19,0.032432
3843.09,0.03539
3843.99,0.038384
3844.89,0.040661
3845.79,0.04217
3846.69,0.043057
3847.59,0.043191
3848.49,0.042861
3849.39,0.042223
3850.29,0.041633
3851.19,0.041148
3852.09,0.040864
3852.99,0.040677
3853.89,0.040201
3854.79,0.039316
3855.69,0.038009
3856.59,0.036198
3857.49,0.03459
3858.39,0.032917
3859.29,0.031768
3860.19,0.031729
3861.09,0.032648
3861.99,0.034643
3862.9,0.03709
3863.8,0.0395
3864.7,0.041117
3865.6,0.041906
3866.5,0.041775
3867.4,0.04117
3868.3,0.040279
3869.2,0.038993
3870.1,0.037552
3871.0,0.03623
3871.9,0.03568
3872.8,0.036111
3873.7,0.037619
3874.6,0.039382
3875.5,0.041042
3876.4,0.042021
3877.3,0.041783
3878.2,0.040938
3879.1,0.039813
3880.0,0.039017
3880.9,0.038637
3881.8,0.038884
3882.7,0.039317
3883.6,0.039952
3884.5,0.040335
3885.4,0.040338
3886.3,0.040056
3887.2,0.039924
3888.1,0.0402
3889.0,0.041656
3889.9,0.044164
3890.8,0.047262
3891.7,0.050445
3892.6,0.053257
3893.5,0.055357
3894.4,0.056036
3895.3,0.056286
3896.2,0.056034
3897.1,0.055633
3898.0,0.055286
3898.9,0.054798
3899.8,0.054776
3900.7,0.054417
3901.6,0.05413
3902.51,0.053486
3903.41,0.052721
3904.31,0.052126
3905.21,0.051368
3906.11,0.051623
3907.01,0.052623
3907.91,0.054718
3908.81,0.057277
3909.71,0.060062
3910.61,0.062368
3911.51,0.064541
3912.41,0.065777
3913.31,0.066261
3914.21,0.066249
3915.11,0.065493
3916.01,0.064647
3916.91,0.062864
3917.81,0.060625
3918.71,0.058223
3919.61,0.055316
3920.51,0.052369
3921.41,0.050231
3922.31,0.048543
3923.21,0.047401
3924.11,0.046771
3925.01,0.046076
3925.91,0.044481
3926.81,0.042383
3927.71,0.03942
3928.61,0.03569
3929.51,0.031592
3930.41,0.027595
3931.31,0.024158
3932.21,0.021388
3933.11,0.019236
3934.01,0.018204
3934.91,0.018284
3935.81,0.019491
3936.71,0.021816
3937.61,0.025033
3938.51,0.028868
3939.42,0.032349
3940.32,0.035591
3941.22,0.038253
3942.12,0.040054
3943.02,0.041697
3943.92,0.043068
3944.82,0.044545
3945.72,0.046931
3946.62,0.050001
3947.52,0.052847
3948.42,0.055823
3949.32,0.05842
3950.22,0.060956
3951.12,0.062523
3952.02,0.064146
3952.92,0.064597
3953.82,0.065281
3954.72,0.065212
3955.62,0.064858
3956.52,0.064316
3957.42,0.062698
3958.32,0.06145
3959.22,0.058855
3960.12,0.056012
3961.02,0.052291
3961.92,0.047837
3962.82,0.043504
3963.72,0.039572
3964.62,0.03584
3965.52,0.032286
3966.42,0.029097
3967.32,0.026007
3968.22,0.023566
3969.12,0.022361
3970.02,0.022477
3970.92,0.024149
3971.82,0.027024
3972.72,0.031023
3973.62,0.035594
3974.52,0.04047
3975.42,0.045686
3976.32,0.050695
3977.22,0.055482
3978.13,0.059953
3979.03,0.064404
3979.93,0.067646
3980.83,0.070145
3981.73,0.072045
3982.63,0.072925
3983.53,0.073591
3984.43,0.074192
3985.33,0.074807
3986.23,0.07579
3987.13,0.077269
3988.03,0.078324
3988.93,0.07959
3989.83,0.080195
3990.73,0.081031
3991.63,0.081847
3992.53,0.082386
3993.43,0.082708
3994.33,0.08304
3995.23,0.081959
3996.13,0.081483
3997.03,0.080916
3997.93,0.080576
3998.83,0.081453
3999.73,0.083301
4000.63,0.084949
4001.53,0.086815
4002.43,0.087407
4003.33,0.087451
4004.23,0.086238
4005.13,0.084118
4006.03,0.081987
4006.93,0.080813
4007.83,0.081508
4008.73,0.0827
4009.63,0.084774
4010.53,0.086964
4011.43,0.088332
4012.33,0.089956
4013.23,0.091064
4014.13,0.091782
4015.03,0.092485
4015.93,0.092677
4016.84,0.093099
4017.74,0.093063
4018.64,0.093721
4019.54,0.093742
4020.44,0.093773
4021.34,0.093786
4022.24,0.093689
4023.14,0.093182
4024.04,0.092539
4024.94,0.093033
4025.84,0.092931
4026.74,0.093269
4027.64,0.093383
4028.54,0.092877
4029.44,0.09099
4030.34,0.087419
4031.24,0.083442
4032.14,0.079437
4033.04,0.076706
4033.94,0.075672
4034.84,0.076673
4035.74,0.07973
4036.64,0.083647
4037.54,0.088008
4038.44,0.092079
4039.34,0.094594
4040.24,0.09526
4041.14,0.094716
4042.04,0.092629
4042.94,0.088876
4043.84,0.08493
4044.74,0.080105
4045.64,0.075925
4046.54,0.073618
4047.44,0.074144
4048.34,0.077054
4049.24,0.081413
4050.14,0.086521
4051.04,0.090084
4051.94,0.092068
4052.84,0.092326
4053.74,0.091644
4054.65,0.089846
4055.55,0.087302
4056.45,0.085547
4057.35,0.083884
4058.25,0.082912
4059.15,0.082878
4060.05,0.082148
4060.95,0.081632
4061.85,0.080658
4062.75,0.078481
4063.65,0.076522
4064.55,0.075167
4065.45,0.075244
4066.35,0.076212
4067.25,0.078856
4068.15,0.081378
4069.05,0.083619
4069.95,0.084472
4070.85,0.084657
4071.75,0.083669
4072.65,0.083647
4073.55,0.083302
4074.45,0.083445
4075.35,0.082767
4076.25,0.082133
4077.15,0.081919
4078.05,0.081956
4078.95,0.082537
4079.85,0.085631
4080.75,0.088627
4081.65,0.091132
4082.55,0.093525
4083.45,0.095345
4084.35,0.095805
4085.25,0.096019
4086.15,0.097414
4087.05,0.098994
4087.95,0.10118
4088.85,0.10314
4089.75,0.10422
4090.65,0.10451
4091.55,0.10424
4092.45,0.10241
4093.36,0.10088
4094.26,0.098903
4095.16,0.096079
4096.06,0.093434
4096.96,0.090549
4097.86,0.087806
4098.76,0.085651
4099.66,0.083443
4100.56,0.08098
4101.46,0.079762
4102.36,0.079016
4103.26,0.079505
4104.16,0.081655
4105.06,0.084203
4105.96,0.087516
4106.86,0.090064
4107.76,0.092332
4108.66,0.093359
4109.56,0.093605
4110.46,0.093148
4111.36,0.092595
4112.26,0.092854
4113.16,0.093182
4114.06,0.094601
4114.96,0.095759
4115.86,0.096594
4116.76,0.09695
4117.66,0.096842
4118.56,0.095875
4119.46,0.094755
4120.36,0.09356
4121.26,0.093282
4122.16,0.092693
4123.06,0.093236
4123.96,0.093498
4124.86,0.094498
4125.76,0.094676
4126.66,0.094337
4127.56,0.093742
4128.46,0.09244
4129.36,0.090946
4130.26,0.088524
4131.17,0.086469
4132.06,0.084809
4132.97,0.083112
4133.87,0.083078
4134.77,0.083973
4135.67,0.085695
4136.57,0.088707
4137.47,0.091444
4138.37,0.093334
4139.27,0.094641
4140.17,0.093971
4141.07,0.092161
4141.97,0.089549
4142.87,0.086229
4143.77,0.083548
4144.67,0.081764
4145.57,0.081414
4146.47,0.08247
4147.37,0.084222
4148.27,0.086021
4149.17,0.08679
4150.07,0.087134
4150.97,0.086322
4151.87,0.086182
4152.77,0.085368
4153.67,0.084403
4154.57,0.084281
4155.47,0.083938
4156.37,0.084642
4157.27,0.085244
4158.17,0.087064
4159.07,0.088608
4159.97,0.09078
4160.87,0.092854
4161.77,0.094808
4162.67,0.096127
4163.57,0.09653
4164.47,0.096336
4165.37,0.095809
4166.27,0.094208
4167.17,0.092394
4168.07,0.090983
4168.98,0.09027
4169.88,0.089488
4170.78,0.088574
4171.68,0.087302
4172.58,0.085303
4173.48,0.08375
4174.38,0.0826
4175.28,0.082147
4176.18,0.081977
4177.08,0.082666
4177.98,0.083468
4178.88,0.084524
4179.78,0.085194
4180.68,0.086209
4181.58,0.086243
4182.48,0.087317
4183.38,0.088079
4184.28,0.088274
4185.18,0.088936
4186.08,0.089255
4186.98,0.088927
4187.88,0.088467
4188.78,0.088581
4189.68,0.088924
4190.58,0.089488
4191.48,0.090775
4192.38,0.091653
4193.28,0.092571
4194.18,0.092223
4195.08,0.090856
4195.98,0.089068
4196.88,0.086376
4197.78,0.084081
4198.68,0.081804
4199.58,0.080314
4200.48,0.079861
4201.38,0.080394
4202.28,0.081215
4203.18,0.082842
4204.08,0.085174
4204.98,0.088413
4205.88,0.09101
4206.79,0.093668
4207.69,0.095964
4208.59,0.097508
4209.49,0.098292
4210.39,0.097988
4211.29,0.097706
4212.19,0.096289
4213.09,0.095311
4213.99,0.093948
4214.89,0.092985
4215.79,0.0921
4216.69,0.092384
4217.59,0.093578
4218.49,0.096078
4219.39,0.098223
4220.29,0.099753
4221.19,0.099888
4222.09,0.098142
4222.99,0.094206
4223.89,0.089151
4224.79,0.08261
4225.69,0.076336
4226.59,0.071157
4227.49,0.068968
4228.39,0.070144
4229.29,0.073877
4230.19,0.078966
4231.09,0.084664
4231.99,0.089155
4232.89,0.091648
4233.79,0.092736
4234.69,0.092525
4235.59,0.091604
4236.49,0.090792
4237.39,0.090592
4238.29,0.090968
4239.19,0.092097
4240.09,0.094044
4240.99,0.096359
4241.89,0.098979
4242.79,0.10128
4243.69,0.10412
4244.59,0.10556
4245.5,0.1062
4246.4,0.10572
4247.3,0.10348
4248.2,0.09978
4249.1,0.096338
4250.0,0.093541
4250.9,0.090775
4251.8,0.089403
4252.7,0.088505
4253.6,0.08854
4254.5,0.088887
4255.4,0.090418
4256.3,0.091183
4257.2,0.092134
4258.1,0.09222
4259.0,0.091781
4259.9,0.091584
4260.8,0.091355
4261.7,0.091719
4262.6,0.094202
4263.5,0.097473
4264.4,0.10105
4265.3,0.10436
4266.2,0.10609
4267.1,0.10541
4268.0,0.10322
4268.9,0.099394
4269.8,0.094244
4270.7,0.088676
4271.6,0.08321
4272.5,0.079195
4273.4,0.077142
4274.3,0.077283
4275.2,0.07899
4276.1,0.082963
4277.0,0.087615
4277.9,0.091537
4278.8,0.095345
4279.7,0.097927
4280.6,0.098542
4281.5,0.098143
4282.4,0.097979
4283.31,0.097572
4284.21,0.096763
4285.11,0.096078
4286.01,0.094896
4286.91,0.093109
4287.81,0.091327
4288.71,0.0887
4289.61,0.086662
4290.51,0.085221
4291.41,0.084781
4292.31,0.085388
4293.21,0.086708
4294.11,0.088031
4295.01,0.089081
4295.91,0.088669
4296.81,0.086624
4297.71,0.083943
4298.61,0.080437
4299.51,0.076401
4300.41,0.072769
4301.31,0.07032
4302.21,0.068792
4303.11,0.067991
4304.01,0.067481
4304.91,0.067393
4305.81,0.066717
4306.71,0.065361
4307.61,0.064096
4308.51,0.063435
4309.41,0.063514
4310.31,0.065219
4311.21,0.068292
4312.11,0.072917
4313.01,0.078688
4313.91,0.08591
4314.81,0.093755
4315.71,0.10178
4316.61,0.1088
4317.51,0.11473
4318.41,0.11914
4319.31,0.12131
4320.21,0.12049
4321.12,0.11856
4322.02,0.11389
4322.92,0.10798
4323.82,0.1018
4324.72,0.096341
4325.62,0.092138
4326.52,0.090906
4327.42,0.09254
4328.32,0.096884
4329.22,0.10295
4330.12,0.10904
4331.02,0.11419
4331.92,0.11751
4332.82,0.11954
4333.72,0.12134
4334.62,0.12175
4335.52,0.12009
4336.42,0.11685
4337.32,0.11278
4338.22,0.10709
4339.12,0.10206
4340.02,0.097864
4340.92,0.096233
4341.82,0.096214
4342.72,0.098244
4343.62,0.10175
4344.52,0.10549
4345.42,0.10937
4346.32,0.11283
4347.22,0.11611
4348.12,0.11768
4349.02,0.11805
4349.92,0.11758
4350.82,0.11551
4351.72,0.11248
4352.62,0.10992
4353.52,0.10825
4354.42,0.10817
4355.32,0.1085
4356.22,0.11046
4357.12,0.11258
4358.02,0.11389
4358.92,0.11528
4359.83,0.11684
4360.73,0.11808
4361.63,0.11953
4362.53,0.121
4363.43,0.12322
4364.33,0.125
4365.23,0.12558
4366.13,0.12542
4367.03,0.12412
4367.93,0.12281
4368.83,0.12145
4369.73,0.11922
4370.63,0.11758
4371.53,0.11607
4372.43,0.11372
4373.33,0.11232
4374.23,0.10989
4375.13,0.10853
4376.03,0.10828
4376.93,0.10878
4377.83,0.10954
4378.73,0.11006
4379.63,0.10897
4380.53,0.10753
4381.43,0.103
4382.33,0.09827
4383.23,0.09308
4384.13,0.08851
4385.03,0.086164
4385.93,0.086485
4386.83,0.088774
4387.73,0.092485
4388.63,0.096381
4389.53,0.099619
4390.43,0.10203
4391.33,0.10414
4392.23,0.10577
4393.13,0.10706
4394.03,0.1091
4394.93,0.11065
4395.83,0.11255
4396.73,0.11522
4397.64,0.11642
4398.54,0.11744
4399.44,0.1171
4400.34,0.11596
4401.24,0.11388
4402.14,0.11111
4403.04,0.10785
4403.94,0.10363
4404.84,0.10064
4405.74,0.098313
4406.64,0.097794
4407.54,0.099132
4408.44,0.10191
4409.34,0.10585
4410.24,0.11036
4411.14,0.11481
4412.04,0.1179
4412.94,0.11951
4413.84,0.11948
4414.74,0.1185
4415.64,0.11728
4416.54,0.11672
4417.44,0.11701
4418.34,0.11822
4419.24,0.12003
4420.14,0.12213
4421.04,0.12325
4421.94,0.12314
4422.84,0.12201
4423.74,0.12129
4424.64,0.12006
4425.54,0.11977
4426.44,0.11887
4427.34,0.11954
4428.24,0.11974
4429.14,0.12027
4430.04,0.12001
4430.94,0.11949
4431.84,0.11905
4432.74,0.11808
4433.64,0.11624
4434.54,0.11596
4435.45,0.11493
4436.35,0.11535
4437.25,0.11693
4438.15,0.11919
4439.05,0.12167
4439.95,0.1236
4440.85,0.12406
4441.75,0.12435
4442.65,0.12344
4443.55,0.12334
4444.45,0.12379
4445.35,0.12521
4446.25,0.12733
4447.15,0.12931
4448.05,0.13104
4448.95,0.13164
4449.85,0.13165
4450.75,0.13104
4451.65,0.12859
4452.55,0.12659
4453.45,0.12296
4454.35,0.12002
4455.25,0.11657
4456.15,0.11331
4457.05,0.11048
4457.95,0.10913
4458.85,0.10826
4459.75,0.10787
4460.65,0.10869
4461.55,0.10928
4462.45,0.11079
4463.35,0.11305
4464.25,0.11521
4465.15,0.11788
4466.05,0.11991
4466.95,0.12149
4467.85,0.12211
4468.75,0.12334
4469.65,0.12404
4470.55,0.12518
4471.45,0.12702
4472.35,0.12922
4473.25,0.13121
4474.16,0.13397
4475.06,0.13549
4475.96,0.13734
4476.86,0.13804
4477.76,0.13834
4478.66,0.1372
4479.56,0.1356
4480.46,0.13364
4481.36,0.13108
4482.26,0.13026
4483.16,0.12964
4484.06,0.13156
4484.96,0.1334
4485.86,0.13499
4486.76,0.13663
4487.66,0.13662
4488.56,0.13574
4489.46,0.13447
4490.36,0.13263
4491.26,0.13122
4492.16,0.13053
4493.06,0.12903
4493.96,0.12911
4494.86,0.12818
4495.76,0.12856
4496.66,0.12874
4497.56,0.12972
4498.46,0.1318
4499.36,0.13462
4500.26,0.13627
4501.16,0.13915
4502.06,0.14093
4502.96,0.14387
4503.86,0.14546
4504.76,0.14714
4505.66,0.14905
4506.56,0.14976
4507.46,0.15005
4508.36,0.1501
4509.26,0.14912
4510.17,0.14824
4511.06,0.14717
4511.97,0.14664
4512.87,0.14434
4513.77,0.1426
4514.67,0.14109
4515.57,0.13997
4516.47,0.13915
4517.37,0.13953
4518.27,0.14004
4519.17,0.14021
4520.07,0.14125
4520.97,0.14163
4521.87,0.142
4522.77,0.14039
4523.67,0.1391
4524.57,0.13567
4525.47,0.13267
4526.37,0.12872
4527.27,0.12476
4528.17,0.12132
4529.07,0.11852
4529.97,0.11768
4530.87,0.11712
4531.77,0.11761
4532.67,0.11887
4533.57,0.12008
4534.47,0.12108
4535.37,0.12283
4536.27,0.12543
4537.17,0.12861
4538.07,0.13071
4538.97,0.13333
4539.87,0.13494
4540.77,0.13576
4541.67,0.13645
4542.57,0.13671
4543.47,0.13647
4544.37,0.13616
4545.27,0.13534
4546.17,0.13421
4547.07,0.13488
4547.97,0.13367
4548.88,0.13318
4549.77,0.13229
4550.68,0.13228
4551.58,0.13225
4552.48,0.13187
4553.38,0.13155
4554.28,0.13219
4555.18,0.1332
4556.08,0.13506
4556.98,0.13757
4557.88,0.13972
4558.78,0.14204
4559.68,0.14426
4560.58,0.14588
4561.48,0.14645
4562.38,0.14576
4563.28,0.14433
4564.18,0.14336
4565.08,0.14174
4565.98,0.14168
4566.88,0.14163
4567.78,0.14178
4568.68,0.14282
4569.58,0.14424
4570.48,0.1445
4571.38,0.14426
4572.28,0.14364
4573.18,0.14423
4574.08,0.14452
4574.98,0.14524
4575.88,0.14529
4576.78,0.14474
4577.68,0.14397
4578.58,0.14149
4579.48,0.13994
4580.38,0.13745
4581.28,0.13597
4582.18,0.13446
4583.08,0.13496
4583.98,0.13438
4584.88,0.13494
4585.78,0.13557
4586.69,0.13716
4587.58,0.13833
4588.49,0.13872
4589.39,0.14131
4590.29,0.1418
4591.19,0.14199
4592.09,0.14111
4592.99,0.13948
4593.89,0.13849
4594.79,0.13678
4595.69,0.13595
4596.59,0.13517
4597.49,0.13472
4598.39,0.135
4599.29,0.13508
4600.19,0.13537
4601.09,0.13597
4601.99,0.13655
4602.89,0.13641
4603.79,0.13705
4604.69,0.13802
4605.59,0.13939
4606.49,0.14069
4607.39,0.14323
4608.29,0.14494
4609.19,0.14789
4610.09,0.14948
4610.99,0.14975
4611.89,0.15046
4612.79,0.15017
4613.69,0.15051
4614.59,0.14918
4615.49,0.14976
4616.39,0.14978
4617.29,0.1503
4618.19,0.1508
4619.09,0.15117
4619.99,0.15107
4620.89,0.15157
4621.79,0.1511
4622.69,0.15112
4623.59,0.15139
4624.5,0.15056
4625.4,0.15011
4626.3,0.15054
4627.2,0.14998
4628.1,0.14941
4629.0,0.14939
4629.9,0.1492
4630.8,0.14943
4631.7,0.14905
4632.6,0.14864
4633.5,0.1478
4634.4,0.14635
4635.3,0.14493
4636.2,0.14333
4637.1,0.14219
4638.0,0.14045
4638.9,0.13877
4639.8,0.13818
4640.7,0.13804
4641.6,0.13718
4642.5,0.13764
4643.4,0.13664
4644.3,0.13613
4645.2,0.13438
4646.1,0.13312
4647.0,0.13136
4647.9,0.13031
4648.8,0.13023
4649.7,0.13192
4650.6,0.13287
4651.5,0.13581
4652.4,0.13706
4653.3,0.13829
4654.2,0.13915
4655.1,0.14031
4656.0,0.14097
4656.9,0.14202
4657.8,0.14332
4658.7,0.14542
4659.6,0.14713
4660.5,0.14813
4661.4,0.14848
4662.3,0.14749
4663.21,0.14533
4664.11,0.14228
4665.01,0.13804
4665.91,0.13453
4666.81,0.13121
4667.71,0.12876
4668.61,0.12808
4669.51,0.128
4670.41,0.12957
4671.31,0.13119
4672.21,0.13429
4673.11,0.13698
4674.01,0.13889
4674.91,0.13969
4675.81,0.14102
4676.71,0.14093
4677.61,0.14071
4678.51,0.14029
4679.41,0.13923
4680.31,0.1381
4681.21,0.13783
4682.11,0.13752
4683.01,0.13711
4683.91,0.13834
4684.81,0.13823
4685.71,0.13932
4686.61,0.1396
4687.51,0.13896
4688.41,0.13993
4689.31,0.13981
4690.21,0.13966
4691.11,0.13943
4692.01,0.1397
4692.91,0.13953
4693.81,0.14024
4694.71,0.14103
4695.61,0.14163
4696.51,0.14166
4697.41,0.14032
4698.31,0.13902
4699.21,0.13729
4700.12,0.13603
4701.02,0.13376
4701.92,0.13329
4702.82,0.13222
4703.72,0.13306
4704.62,0.1321
4705.52,0.13235
4706.42,0.13329
4707.32,0.13388
4708.22,0.13477
4709.12,0.13497
4710.02,0.13573
4710.92,0.13585
4711.82,0.13656
4712.72,0.1382
4713.62,0.13827
4714.52,0.13986
4715.42,0.14091
4716.32,0.14257
4717.22,0.14455
4718.12,0.14626
4719.02,0.1486
4719.92,0.1507
4720.82,0.15192
4721.72,0.15317
4722.62,0.15387
4723.52,0.1536
4724.42,0.15222
4725.32,0.15077
4726.22,0.14911
4727.12,0.14568
4728.02,0.14388
4728.92,0.14096
4729.82,0.13818
4730.72,0.13754
4731.62,0.13687
4732.52,0.13711
4733.42,0.13902
4734.32,0.14022
4735.22,0.14133
4736.12,0.14273
4737.02,0.14362
4737.92,0.14457
4738.83,0.14546
4739.73,0.14671
4740.63,0.14711
4741.53,0.14801
4742.43,0.14875
4743.33,0.14912
4744.23,0.14989
4745.13,0.1507
4746.03,0.15111
4746.93,0.15231
4747.83,0.152
4748.73,0.15203
4749.63,0.15247
4750.53,0.15231
4751.43,0.15172
4752.33,0.15139
4753.23,0.14963
4754.13,0.14809
4755.03,0.14728
4755.93,0.14631
4756.83,0.14581
4757.73,0.14579
4758.63,0.14528
4759.53,0.14512
4760.43,0.1451
4761.33,0.14427
4762.23,0.14282
4763.13,0.14114
4764.03,0.13917
4764.93,0.13816
4765.83,0.13716
4766.73,0.13642
4767.63,0.13733
4768.53,0.13814
4769.43,0.13945
4770.33,0.14197
4771.23,0.14259
4772.13,0.14453
4773.03,0.14587
4773.93,0.14756
4774.83,0.1488
4775.73,0.14984
4776.64,0.15122
4777.54,0.15155
4778.44,0.15218
4779.34,0.15196
4780.24,0.15092
4781.14,0.15007
4782.04,0.14878
4782.94,0.14701
4783.84,0.1459
4784.74,0.14507
4785.64,0.14368
4786.54,0.14272
4787.44,0.14287
4788.34,0.14331
4789.24,0.14358
4790.14,0.14432
4791.04,0.14593
4791.94,0.14696
4792.84,0.14885
4793.74,0.15182
4794.64,0.15294
4795.54,0.15458
4796.44,0.15542
4797.34,0.15471
4798.24,0.15396
4799.14,0.15315
4800.04,0.15248
