wave,flux
3700.85,-4.2715120193754787e-07
3701.75,-4.215893543222981e-07
3702.65,-4.09626723131555e-07
3703.55,-3.921081868052932e-07
3704.45,-3.7158606339527647e-07
3705.35,-3.5434565264891755e-07
3706.25,-3.424987730160573e-07
3707.15,-3.3571589725153955e-07
3708.05,-3.38057207038863e-07
3708.96,-3.4471711615348433e-07
3709.86,-3.5240921129182817e-07
3710.76,-3.645800739095535e-07
3711.66,-3.7733748505720416e-07
3712.56,-3.932391351628278e-07
3713.46,-4.102067791467202e-07
3714.36,-4.260813314025799e-07
3715.26,-4.372570111889946e-07
3716.16,-4.40651430072782e-07
3717.06,-4.374960523578278e-07
3717.96,-4.231604813262549e-07
3718.86,-4.017471309385939e-07
3719.76,-3.728257167156395e-07
3720.66,-3.495445341834935e-07
3721.56,-3.3025927294506404e-07
3722.46,-3.2690280622410195e-07
3723.36,-3.3567412401871045e-07
3724.26,-3.5249371788568167e-07
3725.16,-3.7489039626931396e-07
3726.06,-3.935684740649859e-07
3726.96,-4.0558528696804586e-07
3727.86,-4.1275229459546543e-07
3728.76,-4.152055663067339e-07
3729.66,-4.090863770446892e-07
3730.56,-4.0119655463564477e-07
3731.46,-3.8534099740559055e-07
3732.36,-3.632931330159198e-07
3733.26,-3.373138745844133e-07
3734.16,-3.1383512953175635e-07
3735.06,-2.952950495335861e-07
3735.96,-2.900368250594077e-07
3736.86,-2.979779418855409e-07
3737.76,-3.1716682292435465e-07
3738.66,-3.4389274591942837e-07
3739.56,-3.738830164434327e-07
3740.46,-3.983699832367776e-07
3741.36,-4.143317833188016e-07
3742.26,-4.204402556333386e-07
3743.16,-4.16215522435608e-07
3744.06,-4.015110463924207e-07
3744.96,-3.843355240954649e-07
3745.86,-3.6264703266372714e-07
3746.76,-3.442353808528031e-07
3747.67,-3.253491907301739e-07
3748.57,-3.099753537291016e-07
3749.47,-3.003540760533338e-07
3750.37,-3.0328666135470555e-07
3751.27,-3.198081454751477e-07
3752.17,-3.4663221229849807e-07
3753.07,-3.7772385482109243e-07
3753.97,-4.1164294480429117e-07
3754.87,-4.3739708607272646e-07
3755.77,-4.5262460132369925e-07
3756.67,-4.561044101955362e-07
3757.57,-4.4778305128508366e-07
3758.47,-4.3526976861071373e-07
3759.37,-4.2422605642789237e-07
3760.27,-4.2100361083662386e-07
3761.17,-4.213915170899266e-07
3762.07,-4.290191052713488e-07
3762.97,-4.3038339306802886e-07
3763.87,-4.35816833855165e-07
3764.77,-4.372001521140825e-07
3765.67,-4.323914628673809e-07
3766.57,-4.2497682937434555e-07
3767.47,-4.1529214872930396e-07
3768.37,-4.0582232645497944e-07
3769.27,-3.9782011557289094e-07
3770.17,-3.9108984607341045e-07
3771.07,-3.918514735434422e-07
3771.97,-4.0032517630964164e-07
3772.87,-4.162870606456303e-07
3773.77,-4.3440334357434427e-07
3774.67,-4.5368826417672626e-07
3775.57,-4.7355394245160023e-07
3776.47,-4.865464538632755e-07
3777.37,-4.999306527818387e-07
3778.27,-5.145685019251065e-07
3779.17,-5.299485717261322e-07
3780.07,-5.438102274174513e-07
3780.97,-5.583242987123752e-07
3781.87,-5.662772953401206e-07
3782.77,-5.731435816153508e-07
3783.67,-5.749857239008916e-07
3784.57,-5.676045867453279e-07
3785.47,-5.555024377538801e-07
3786.38,-5.398892904125189e-07
3787.28,-5.195600688471028e-07
3788.18,-5.014410348460444e-07
3789.08,-4.863180628400605e-07
3789.98,-4.773102353556363e-07
3790.88,-4.6959930305763004e-07
3791.78,-4.6441274797089614e-07
3792.68,-4.5447510238839674e-07
3793.58,-4.4204420249598136e-07
3794.48,-4.246474145307207e-07
3795.38,-4.0371580686873716e-07
3796.28,-3.842716352297411e-07
3797.18,-3.685294823553689e-07
3798.08,-3.5737757091834244e-07
3798.98,-3.5704953297865973e-07
3799.88,-3.695627109217312e-07
3800.78,-3.953407067954426e-07
3801.68,-4.244729146622405e-07
3802.58,-4.5715167701606677e-07
3803.48,-4.873436336767875e-07
3804.38,-5.099806212262046e-07
3805.28,-5.261678563102157e-07
3806.18,-5.34381593698794e-07
3807.08,-5.381331760246642e-07
3807.98,-5.467290038257894e-07
3808.88,-5.561816574516475e-07
3809.78,-5.634701172334208e-07
3810.68,-5.701823709129882e-07
3811.58,-5.702939109735323e-07
3812.48,-5.618660441513321e-07
3813.38,-5.489869212949131e-07
3814.28,-5.295579465067704e-07
3815.18,-5.160801829710608e-07
3816.08,-5.079892073450184e-07
3816.98,-5.050323562503692e-07
3817.88,-5.04524557708523e-07
3818.78,-5.042134685803521e-07
3819.68,-4.997057113849992e-07
3820.58,-4.966359766321471e-07
3821.48,-4.884812480179182e-07
3822.38,-4.828240398531965e-07
3823.28,-4.7620876739346155e-07
3824.18,-4.6885528309328275e-07
3825.09,-4.540397213708079e-07
3825.99,-4.4029476806996965e-07
3826.89,-4.258671152065797e-07
3827.79,-4.16688995659924e-07
3828.69,-4.081172709581162e-07
3829.59,-4.007893000151744e-07
3830.49,-3.923048216266805e-07
3831.39,-3.806794031577092e-07
3832.29,-3.652670691080141e-07
3833.19,-3.4611658319560365e-07
3834.09,-3.295563040778237e-07
3834.99,-3.1893119823161805e-07
3835.89,-3.1344004943901924e-07
3836.79,-3.1497045215754195e-07
3837.69,-3.2177315494152287e-07
3838.59,-3.363335025868784e-07
3839.49,-3.5103906909910504e-07
3840.39,-3.7453048796200965e-07
3841.29,-4.004588084041838e-07
3842.19,-4.2943871502138166e-07
3843.09,-4.596287696322419e-07
3843.99,-4.860274215000425e-07
3844.89,-5.103817029242508e-07
3845.79,-5.295746947892109e-07
3846.69,-5.426699678485327e-07
3847.59,-5.535829498975129e-07
3848.49,-5.630755909240104e-07
3849.39,-5.684537005069484e-07
3850.29,-5.726030858835556e-07
3851.19,-5.778666339812203e-07
3852.09,-5.812968278581399e-07
3852.99,-5.841663686718629e-07
3853.89,-5.846398138678531e-07
3854.79,-5.814305163723338e-07
3855.69,-5.78662195736837e-07
3856.59,-5.668147512552208e-07
3857.49,-5.593893755236252e-07
3858.39,-5.504349981780826e-07
3859.29,-5.4504265480729e-07
3860.19,-5.422021651672023e-07
3861.09,-5.511694986445988e-07
3861.99,-5.670989987558045e-07
3862.9,-5.826005447103784e-07
3863.8,-5.981974563099506e-07
3864.7,-6.079063416147375e-07
3865.6,-6.139941750495892e-07
3866.5,-6.130902793631822e-07
3867.4,-6.11315855461406e-07
3868.3,-6.064892296077448e-07
3869.2,-6.019597108559785e-07
3870.1,-5.90626333108091e-07
3871.0,-5.807449934809879e-07
3871.9,-5.695794575187811e-07
3872.8,-5.606807383777244e-07
3873.7,-5.620447399020735e-07
3874.6,-5.651236331271955e-07
3875.5,-5.67850143278186e-07
3876.4,-5.717663728065347e-07
3877.3,-5.684117542616663e-07
3878.2,-5.630347210203006e-07
3879.1,-5.537605234407896e-07
3880.0,-5.463150264687006e-07
3880.9,-5.373673010989129e-07
3881.8,-5.339388939393774e-07
3882.7,-5.262671502947545e-07
3883.6,-5.185436336265866e-07
3884.5,-5.00648695084735e-07
3885.4,-4.833309523174203e-07
3886.3,-4.577382958953903e-07
3887.2,-4.372156314536803e-07
3888.1,-4.1869123653841663e-07
3889.0,-4.101985804371373e-07
3889.9,-4.120532885604127e-07
3890.8,-4.2965830559810906e-07
3891.7,-4.518471926311999e-07
3892.6,-4.801386693821973e-07
3893.5,-5.038339723823508e-07
3894.4,-5.286791455701731e-07
3895.3,-5.476798279909901e-07
3896.2,-5.623440389794303e-07
3897.1,-5.752697300671096e-07
3898.0,-5.858841467870105e-07
3898.9,-5.951535231007085e-07
3899.8,-6.054131779667268e-07
3900.7,-6.132362586128493e-07
3901.6,-6.180206477097702e-07
3902.51,-6.227691394839217e-07
3903.41,-6.204891062957207e-07
3904.31,-6.187125320383589e-07
3905.21,-6.181019433621797e-07
3906.11,-6.17527988944153e-07
3907.01,-6.27652042210209e-07
3907.91,-6.415936853003344e-07
3908.81,-6.621709222796739e-07
3909.71,-6.810997849180231e-07
3910.61,-7.009581606346691e-07
3911.51,-7.125351072171982e-07
3912.41,-7.194323509196523e-07
3913.31,-7.225727458158867e-07
3914.21,-7.205856403612846e-07
3915.11,-7.147026456781076e-07
3916.01,-7.075355353684875e-07
3916.91,-6.978583128479816e-07
3917.81,-6.896438428589881e-07
3918.71,-6.764761738356363e-07
3919.61,-6.679676291199261e-07
3920.51,-6.57802571257249e-07
3921.41,-6.497253958104148e-07
3922.31,-6.42823227393044e-07
3923.21,-6.375138028381732e-07
3924.11,-6.343330770706288e-07
3925.01,-6.255146065073471e-07
3925.91,-6.101335593699524e-07
3926.81,-5.846097514538318e-07
3927.71,-5.522069315984581e-07
3928.61,-5.085299597823764e-07
3929.51,-4.5984384740981624e-07
3930.41,-4.0827460300361377e-07
3931.31,-3.5769316918925223e-07
3932.21,-3.1458629583862437e-07
3933.11,-2.795244886258503e-07
3934.01,-2.5795231225635656e-07
3934.91,-2.5546564830032806e-07
3935.81,-2.718291554984311e-07
3936.71,-3.0417988280348424e-07
3937.61,-3.482901549311979e-07
3938.51,-4.0081121286269305e-07
3939.42,-4.49035721472697e-07
3940.32,-4.941159542637001e-07
3941.22,-5.330651832259202e-07
3942.12,-5.603456605049071e-07
3943.02,-5.792823791763689e-07
3943.92,-5.957664791302921e-07
3944.82,-6.108373332561574e-07
3945.72,-6.282424865395723e-07
3946.62,-6.459185289401831e-07
3947.52,-6.62113085620125e-07
3948.42,-6.762104752417558e-07
3949.32,-6.88883390762616e-07
3950.22,-6.979036641201484e-07
3951.12,-7.065270593798518e-07
3952.02,-7.083877644137714e-07
3952.92,-7.150861937302514e-07
3953.82,-7.14430836762011e-07
3954.72,-7.157674719502307e-07
3955.62,-7.117890602140814e-07
3956.52,-7.0805742608128e-07
3957.42,-6.985485240110994e-07
3958.32,-6.893974098646234e-07
3959.22,-6.760478440913403e-07
3960.12,-6.570213759989341e-07
3961.02,-6.308071013364551e-07
3961.92,-5.984633593293646e-07
3962.82,-5.598785343366819e-07
3963.72,-5.191140599676215e-07
3964.62,-4.7455513900738833e-07
3965.52,-4.3002063490156917e-07
3966.42,-3.8178603281236546e-07
3967.32,-3.3600944316743035e-07
3968.22,-3.0020190741889224e-07
3969.12,-2.769178832773486e-07
3970.02,-2.690204609285086e-07
3970.92,-2.8127491485984804e-07
3971.82,-3.103328099752707e-07
3972.72,-3.525603926647147e-07
3973.62,-3.994384992019446e-07
3974.52,-4.505976844383813e-07
3975.42,-5.001983560727627e-07
3976.32,-5.501245048538293e-07
3977.22,-5.930350626868015e-07
3978.13,-6.354018080865095e-07
3979.03,-6.710759043243885e-07
3979.93,-7.015555952721947e-07
3980.83,-7.271148936855085e-07
3981.73,-7.44436938650027e-07
3982.63,-7.527683594203041e-07
3983.53,-7.598464329681901e-07
3984.43,-7.696423031133724e-07
3985.33,-7.790692863467467e-07
3986.23,-7.878912617038934e-07
3987.13,-7.974074646573185e-07
3988.03,-8.084233156074906e-07
3988.93,-8.203051903550286e-07
3989.83,-8.307515710039379e-07
3990.73,-8.433703596372121e-07
3991.63,-8.532312818941732e-07
3992.53,-8.570974367931583e-07
3993.43,-8.616529312830411e-07
3994.33,-8.644314966977594e-07
3995.23,-8.616315638246245e-07
3996.13,-8.61661859840322e-07
3997.03,-8.534549247766147e-07
3997.93,-8.523565671161133e-07
3998.83,-8.568317548841814e-07
3999.73,-8.68817536945623e-07
4000.63,-8.90188068796664e-07
4001.53,-9.018474364108995e-07
4002.43,-9.049494191570654e-07
4003.33,-9.028763426193406e-07
4004.23,-8.962334983941226e-07
4005.13,-8.836398963710884e-07
4006.03,-8.70753636722652e-07
4006.93,-8.661085365803804e-07
4007.83,-8.720192551744052e-07
4008.73,-8.858117863688991e-07
4009.63,-8.977593217090685e-07
4010.53,-9.143669169296077e-07
4011.43,-9.244320442407517e-07
4012.33,-9.297692528130438e-07
4013.23,-9.378896020609677e-07
4014.13,-9.425507271474301e-07
4015.03,-9.471772681731706e-07
4015.93,-9.48545344104149e-07
4016.84,-9.523954622329862e-07
4017.74,-9.55684833109058e-07
4018.64,-9.596807242201583e-07
4019.54,-9.68967152919984e-07
4020.44,-9.7226525233549e-07
4021.34,-9.754398097162251e-07
4022.24,-9.767098789302581e-07
4023.14,-9.75150146726878e-07
4024.04,-9.71961048465078e-07
4024.94,-9.690100131655722e-07
4025.84,-9.71919255872252e-07
4026.74,-9.772860750648405e-07
4027.64,-9.774056682019292e-07
4028.54,-9.75168582279703e-07
4029.44,-9.630731410514655e-07
4030.34,-9.450884873533482e-07
4031.24,-9.21864692603185e-07
4032.14,-8.96796779251384e-07
4033.04,-8.870906364165893e-07
4033.94,-8.89824414388122e-07
4034.84,-8.970301607387982e-07
4035.74,-9.182611258476205e-07
4036.64,-9.478276016476143e-07
4037.54,-9.726776851452692e-07
4038.44,-9.93615847588639e-07
4039.34,-1.00950502772809e-06
4040.24,-1.0117984816498707e-06
4041.14,-1.009569026897949e-06
4042.04,-9.94035243922079e-07
4042.94,-9.77062135124992e-07
4043.84,-9.517114720025556e-07
4044.74,-9.286792669872037e-07
4045.64,-9.097090530634402e-07
4046.54,-8.996449492461999e-07
4047.44,-9.067118884746033e-07
4048.34,-9.242278356322665e-07
4049.24,-9.481299444688376e-07
4050.14,-9.765434270813789e-07
4051.04,-9.969869916286573e-07
4051.94,-9.95805500364526e-07
4052.84,-9.924259284299423e-07
4053.74,-9.836649381241885e-07
4054.65,-9.689229862134245e-07
4055.55,-9.576520731464023e-07
4056.45,-9.448402581917637e-07
4057.35,-9.360121550064049e-07
4058.25,-9.376383901539811e-07
4059.15,-9.392670629373406e-07
4060.05,-9.413913887412066e-07
4060.95,-9.450001547186624e-07
4061.85,-9.463540122387962e-07
4062.75,-9.341749237959384e-07
4063.65,-9.233521126649081e-07
4064.55,-9.140847303559475e-07
4065.45,-9.128409796566316e-07
4066.35,-9.210582977078137e-07
4067.25,-9.327697305910766e-07
4068.15,-9.438396452482899e-07
4069.05,-9.55428070311231e-07
4069.95,-9.673099128645231e-07
4070.85,-9.683284969347444e-07
4071.75,-9.666395165378303e-07
4072.65,-9.58599754767663e-07
4073.55,-9.522268544451423e-07
4074.45,-9.47996111130763e-07
4075.35,-9.391687937849475e-07
4076.25,-9.284078964635129e-07
4077.15,-9.110199682995528e-07
4078.05,-9.059535968650749e-07
4078.95,-9.116126239604334e-07
4079.85,-9.201973659459391e-07
4080.75,-9.396155160445146e-07
4081.65,-9.619455635624335e-07
4082.55,-9.746429411245606e-07
4083.45,-9.857857601431231e-07
4084.35,-9.880533192188302e-07
4085.25,-9.862867695302104e-07
4086.15,-9.91800272589582e-07
4087.05,-9.987849861921154e-07
4087.95,-1.0146973278972566e-06
4088.85,-1.0180943105256834e-06
4089.75,-1.0254000622039115e-06
4090.65,-1.0251836449659055e-06
4091.55,-1.022632130996603e-06
4092.45,-1.0057639150244806e-06
4093.36,-9.91598631698093e-07
4094.26,-9.691477555936732e-07
4095.16,-9.497871471165662e-07
4096.06,-9.178702246804661e-07
4096.96,-8.889069944866854e-07
4097.86,-8.528067853869238e-07
4098.76,-8.186455739642311e-07
4099.66,-7.825000295652878e-07
4100.56,-7.464245281167007e-07
4101.46,-7.175115175607124e-07
4102.36,-7.024899392086972e-07
4103.26,-7.02464444331801e-07
4104.16,-7.225546042238048e-07
4105.06,-7.574398372013898e-07
4105.96,-7.988121335804148e-07
4106.86,-8.39085470833439e-07
4107.76,-8.719812853341913e-07
4108.66,-8.966437093432589e-07
4109.56,-9.129384619050682e-07
4110.46,-9.317404935168191e-07
4111.36,-9.443102210514004e-07
4112.26,-9.59052918235224e-07
4113.16,-9.7643362491331e-07
4114.06,-9.944015006655975e-07
4114.96,-1.0085519805216398e-06
4115.86,-1.020619089929992e-06
4116.76,-1.0317401355369494e-06
4117.66,-1.0309759634807248e-06
4118.56,-1.0286025026215167e-06
4119.46,-1.0256980909606275e-06
4120.36,-1.0228191656905772e-06
4121.26,-1.0152263826025947e-06
4122.16,-1.0202848088569936e-06
4123.06,-1.0229699923044876e-06
4123.96,-1.029468625701326e-06
4124.86,-1.0353863907788797e-06
4125.76,-1.0405772633664265e-06
4126.66,-1.0373989048432421e-06
4127.56,-1.0373626197225706e-06
4128.46,-1.0355082180716097e-06
4129.36,-1.0235239848560024e-06
4130.26,-1.0156406936972265e-06
4131.17,-1.0094296280101343e-06
4132.06,-9.995190449943436e-07
4132.97,-9.98611492722731e-07
4133.87,-1.000197937885481e-06
4134.77,-1.0135907390804994e-06
4135.67,-1.0267981669117812e-06
4136.57,-1.0489048702336815e-06
4137.47,-1.070615401016947e-06
4138.37,-1.0908394521800707e-06
4139.27,-1.106513670638313e-06
4140.17,-1.1110122206049364e-06
4141.07,-1.100650562558822e-06
4141.97,-1.0818474256202375e-06
4142.87,-1.0647545957249182e-06
4143.77,-1.0499984400332814e-06
4144.67,-1.0392388504102067e-06
4145.57,-1.038549065601403e-06
4146.47,-1.0428914744083459e-06
4147.37,-1.060455208206066e-06
4148.27,-1.070790185309168e-06
4149.17,-1.0723127707537562e-06
4150.07,-1.0748088168832867e-06
4150.97,-1.0698770566093857e-06
4151.87,-1.0629389828867338e-06
4152.77,-1.062293699029432e-06
4153.67,-1.0561924349708677e-06
4154.57,-1.0499295505978464e-06
4155.47,-1.046750220420185e-06
4156.37,-1.0494482007943685e-06
4157.27,-1.0517358754849675e-06
4158.17,-1.0615838782128345e-06
4159.07,-1.0800783555443171e-06
4159.97,-1.0920685088759013e-06
4160.87,-1.1099112156562128e-06
4161.77,-1.1192013755016589e-06
4162.67,-1.131029005850581e-06
4163.57,-1.1404733255679157e-06
4164.47,-1.1444838619241303e-06
4165.37,-1.1413205418064017e-06
4166.27,-1.1420373106102295e-06
4167.17,-1.128582764589128e-06
4168.07,-1.1195833229769588e-06
4168.98,-1.1116697624075527e-06
4169.88,-1.0977393219957718e-06
4170.78,-1.0858853851572261e-06
4171.68,-1.0667095401141586e-06
4172.58,-1.051341712150079e-06
4173.48,-1.0362130854446079e-06
4174.38,-1.0268857331516328e-06
4175.28,-1.02432432715088e-06
4176.18,-1.030801451588506e-06
4177.08,-1.0353917204357427e-06
4177.98,-1.0448267598127356e-06
4178.88,-1.057184334576619e-06
4179.78,-1.0682221258049368e-06
4180.68,-1.0718429066665229e-06
4181.58,-1.0827959694286837e-06
4182.48,-1.0879202764172008e-06
4183.38,-1.0979531323573894e-06
4184.28,-1.1012040829913076e-06
4185.18,-1.1047171600284707e-06
4186.08,-1.1025349632011258e-06
4186.98,-1.1106133047984814e-06
4187.88,-1.1087225552909012e-06
4188.78,-1.1119787756693099e-06
4189.68,-1.1161171907800876e-06
4190.58,-1.1278334187166542e-06
4191.48,-1.141276938755676e-06
4192.38,-1.149556975742866e-06
4193.28,-1.1585772509537761e-06
4194.18,-1.1589085072327165e-06
4195.08,-1.1540868894926838e-06
4195.98,-1.1402721161797635e-06
4196.88,-1.1177320858453678e-06
4197.78,-1.1019100379197358e-06
4198.68,-1.0889027699355109e-06
4199.58,-1.0744093467607572e-06
4200.48,-1.0716791921403063e-06
4201.38,-1.0730691306668953e-06
4202.28,-1.077580572740852e-06
4203.18,-1.092916049226251e-06
4204.08,-1.105783912483996e-06
4204.98,-1.119550366330373e-06
4205.88,-1.1441212850627368e-06
4206.79,-1.1491191780592746e-06
4207.69,-1.1707861529054706e-06
4208.59,-1.185879132725441e-06
4209.49,-1.1943785399970972e-06
4210.39,-1.2012937324676447e-06
4211.29,-1.2052646851777054e-06
4212.19,-1.198583254925962e-06
4213.09,-1.1982543047076144e-06
4213.99,-1.1901561657109024e-06
4214.89,-1.1828008990011303e-06
4215.79,-1.1722284707097451e-06
4216.69,-1.1733379619375679e-06
4217.59,-1.1804925527849232e-06
4218.49,-1.1963536990385292e-06
4219.39,-1.2113752183585648e-06
4220.29,-1.2250212758157678e-06
4221.19,-1.2349388987408528e-06
4222.09,-1.2175339629746285e-06
4222.99,-1.2010562889666328e-06
4223.89,-1.1632173703807005e-06
4224.79,-1.122140201240799e-06
4225.69,-1.0792279580651709e-06
4226.59,-1.044947111907004e-06
4227.49,-1.0351812858148633e-06
4228.39,-1.0454658385556965e-06
4229.29,-1.0762017520925305e-06
4230.19,-1.1127669900028207e-06
4231.09,-1.1540994950231141e-06
4231.99,-1.1855191306502086e-06
4232.89,-1.2002365836156346e-06
4233.79,-1.2073680262006724e-06
4234.69,-1.1930917354850253e-06
4235.59,-1.184589587794176e-06
4236.49,-1.175544732445796e-06
4237.39,-1.1742706230254095e-06
4238.29,-1.17683738322698e-06
4239.19,-1.1818588214388097e-06
4240.09,-1.193048919803031e-06
4240.99,-1.2041512825573662e-06
4241.89,-1.2233219505150024e-06
4242.79,-1.241618714650735e-06
4243.69,-1.2563937589886992e-06
4244.59,-1.2640391451902628e-06
4245.5,-1.2668872299831266e-06
4246.4,-1.2570824983935642e-06
4247.3,-1.2469458147861652e-06
4248.2,-1.2286292904174843e-06
4249.1,-1.2101650617824269e-06
4250.0,-1.1992867452483261e-06
4250.9,-1.1946747424677664e-06
4251.8,-1.1935683691812553e-06
4252.7,-1.1957017686420701e-06
4253.6,-1.2022097609818657e-06
4254.5,-1.2129393085661316e-06
4255.4,-1.2196604976689948e-06
4256.3,-1.2268381709128254e-06
4257.2,-1.2331588970806045e-06
4258.1,-1.2267751551327595e-06
4259.0,-1.224645350638176e-06
4259.9,-1.2159165986675549e-06
4260.8,-1.2059050965568958e-06
4261.7,-1.2115058555531599e-06
4262.6,-1.2341071891744063e-06
4263.5,-1.257480167473726e-06
4264.4,-1.2764936061085173e-06
4265.3,-1.3052047564942182e-06
4266.2,-1.3190275475030136e-06
4267.1,-1.3160073113445045e-06
4268.0,-1.3028217264147883e-06
4268.9,-1.276926219783696e-06
4269.8,-1.2466958809384887e-06
4270.7,-1.207474447313107e-06
4271.6,-1.173517399753855e-06
4272.5,-1.1479675481941879e-06
4273.4,-1.1376948166286587e-06
4274.3,-1.1372151594881257e-06
4275.2,-1.1598779069016384e-06
4276.1,-1.1850628310685288e-06
4277.0,-1.2127396255957815e-06
4277.9,-1.2395615382895764e-06
