wave,flux
3700.85,-6.628711419075768e-07
3701.75,-6.560734899129304e-07
3702.65,-6.310867748656945e-07
3703.55,-5.960945658372246e-07
3704.45,-5.599849262847387e-07
3705.35,-5.23812096999023e-07
3706.25,-4.962940266483249e-07
3707.15,-4.854165839654097e-07
3708.05,-4.824900456919193e-07
3708.96,-4.935652150118337e-07
3709.86,-5.128086949017103e-07
3710.76,-5.41776693503439e-07
3711.66,-5.766657564709241e-07
3712.56,-6.137017163838634e-07
3713.46,-6.48031804791616e-07
3714.36,-6.718431967231891e-07
3715.26,-6.835714321850603e-07
3716.16,-6.753228232363357e-07
3717.06,-6.552988512415823e-07
3717.96,-6.171766663101788e-07
3718.86,-5.696055180359205e-07
3719.76,-5.208790176395343e-07
3720.66,-4.791051951024837e-07
3721.56,-4.516902078237165e-07
3722.46,-4.488604220899038e-07
3723.36,-4.6766837183698674e-07
3724.26,-5.025292184209856e-07
3725.16,-5.363731396495431e-07
3726.06,-5.680757508742827e-07
3726.96,-5.806622893789108e-07
3727.86,-5.865720063951876e-07
3728.76,-5.858306163472449e-07
3729.66,-5.810181588812746e-07
3730.56,-5.679643095949543e-07
3731.46,-5.442188622062488e-07
3732.36,-5.107086883046528e-07
3733.26,-4.722304110802193e-07
3734.16,-4.30553782529203e-07
3735.06,-3.9995794535214045e-07
3735.96,-3.86613725579216e-07
3736.86,-3.911376241069373e-07
3737.76,-4.159023296804647e-07
3738.66,-4.563754607443637e-07
3739.56,-5.010980294781605e-07
3740.46,-5.381551908893312e-07
3741.36,-5.631917602644679e-07
3742.26,-5.705663566571541e-07
3743.16,-5.574251498421916e-07
3744.06,-5.323190331430519e-07
3744.96,-5.021592276688535e-07
3745.86,-4.701429888731064e-07
3746.76,-4.425160818159651e-07
3747.67,-4.1991102026351195e-07
3748.57,-4.0497847857383867e-07
3749.47,-4.02575807446939e-07
3750.37,-4.183196045688383e-07
3751.27,-4.495077029165203e-07
3752.17,-4.95835639400369e-07
3753.07,-5.489768716479546e-07
3753.97,-5.974680439865142e-07
3754.87,-6.314914373667919e-07
3755.77,-6.46568069613408e-07
3756.67,-6.403811126569861e-07
3757.57,-6.139865368815657e-07
3758.47,-5.869217688399966e-07
3759.37,-5.625719263237179e-07
3760.27,-5.519611516520045e-07
3761.17,-5.536079536216207e-07
3762.07,-5.615127371688552e-07
3762.97,-5.713093924863706e-07
3763.87,-5.799592063691098e-07
3764.77,-5.832031525144973e-07
3765.67,-5.832240417483322e-07
3766.57,-5.831548573987007e-07
3767.47,-5.781890970389422e-07
3768.37,-5.809919535623075e-07
3769.27,-5.843843747240061e-07
3770.17,-5.943578836055024e-07
3771.07,-6.117412869798095e-07
3771.97,-6.287489683575727e-07
3772.87,-6.512051184667439e-07
3773.77,-6.739265318874676e-07
3774.67,-6.907164671523823e-07
3775.57,-7.052265580683239e-07
3776.47,-7.141426266296729e-07
3777.37,-7.239811570922598e-07
3778.27,-7.368782216164036e-07
3779.17,-7.512516278142618e-07
3780.07,-7.662866837769508e-07
3780.97,-7.792996055936704e-07
3781.87,-7.908316886600769e-07
3782.77,-7.985534929986426e-07
3783.67,-7.933272595039855e-07
3784.57,-7.878172154828009e-07
3785.47,-7.602146784058132e-07
3786.38,-7.309226245107912e-07
3787.28,-6.950212702805702e-07
3788.18,-6.635482781528236e-07
3789.08,-6.412871721139673e-07
3789.98,-6.267470665719216e-07
3790.88,-6.233038308274814e-07
3791.78,-6.21970277156737e-07
3792.68,-6.182396620975439e-07
3793.58,-6.079118435423967e-07
3794.48,-5.943826127763561e-07
3795.38,-5.769971273317608e-07
3796.28,-5.558837701598316e-07
3797.18,-5.392649940357588e-07
3798.08,-5.286803852594752e-07
3798.98,-5.298447992891029e-07
3799.88,-5.452472997419036e-07
3800.78,-5.750186551353071e-07
3801.68,-6.18593222940814e-07
3802.58,-6.599665700894075e-07
3803.48,-6.982485344193585e-07
3804.38,-7.244876530352185e-07
3805.28,-7.389780727509725e-07
3806.18,-7.387487093711964e-07
3807.08,-7.39966283034724e-07
3807.98,-7.390820515031279e-07
3808.88,-7.437165846107648e-07
3809.78,-7.497637525602349e-07
3810.68,-7.567117526528625e-07
3811.58,-7.506771879379518e-07
3812.48,-7.331278636445905e-07
3813.38,-7.049259271491612e-07
3814.28,-6.720636664380418e-07
3815.18,-6.362705929594946e-07
3816.08,-6.149265086489857e-07
3816.98,-6.031651894028811e-07
3817.88,-5.966222555044307e-07
3818.78,-5.918626621879659e-07
3819.68,-5.824125868292469e-07
3820.58,-5.734659267063804e-07
3821.48,-5.623711297497249e-07
3822.38,-5.57420227399589e-07
3823.28,-5.4804653013164e-07
3824.18,-5.372782331097068e-07
3825.09,-5.169869053957883e-07
3825.99,-5.012219000286813e-07
3826.89,-4.876193099848566e-07
3827.79,-4.7577975862525893e-07
3828.69,-4.7396244082183864e-07
3829.59,-4.7278628610971603e-07
3830.49,-4.725206915589403e-07
3831.39,-4.6474797493638384e-07
3832.29,-4.5559635307253697e-07
3833.19,-4.3940193028028907e-07
3834.09,-4.2791769242071637e-07
3834.99,-4.225102850797798e-07
3835.89,-4.229365460143746e-07
3836.79,-4.2553738455454736e-07
3837.69,-4.3077599242569374e-07
3838.59,-4.366067599201293e-07
3839.49,-4.4773836447447615e-07
3840.39,-4.6736131899893696e-07
3841.29,-4.974020400504286e-07
3842.19,-5.317953694606364e-07
3843.09,-5.747687352544602e-07
3843.99,-6.144761344110797e-07
3844.89,-6.490661380424816e-07
3845.79,-6.690126413204887e-07
3846.69,-6.885573518726521e-07
3847.59,-6.965167649568856e-07
3848.49,-6.981638819422168e-07
3849.39,-6.969398409527722e-07
3850.29,-6.992719221916676e-07
3851.19,-6.967771558938501e-07
3852.09,-6.941309538234926e-07
3852.99,-6.994472635228037e-07
3853.89,-6.912692364494181e-07
3854.79,-6.801868640824748e-07
3855.69,-6.697703188506815e-07
3856.59,-6.508476403849732e-07
3857.49,-6.272749365894122e-07
3858.39,-6.088197339194187e-07
3859.29,-5.982997287023989e-07
3860.19,-5.944562844124569e-07
3861.09,-6.02925224617885e-07
3861.99,-6.288200885666162e-07
3862.9,-6.61728641112631e-07
3863.8,-6.933556365042383e-07
3864.7,-7.140597447033309e-07
3865.6,-7.21583812907129e-07
3866.5,-7.246122905058391e-07
3867.4,-7.186202446911219e-07
3868.3,-7.081001043520692e-07
3869.2,-6.913008231290648e-07
3870.1,-6.749680412507588e-07
3871.0,-6.539269816680416e-07
3871.9,-6.420134529934739e-07
3872.8,-6.360611800816819e-07
3873.7,-6.436219493073863e-07
3874.6,-6.590380886246948e-07
3875.5,-6.766314401382536e-07
3876.4,-6.871504575853027e-07
3877.3,-6.900750839244514e-07
3878.2,-6.818254469355069e-07
3879.1,-6.719046574855859e-07
3880.0,-6.64426337774888e-07
3880.9,-6.570346013553033e-07
3881.8,-6.553646462165153e-07
3882.7,-6.561084128371407e-07
3883.6,-6.536273082296963e-07
3884.5,-6.493251416825901e-07
3885.4,-6.358752943534399e-07
3886.3,-6.199747626228668e-07
3887.2,-6.039944495320013e-07
3888.1,-5.931492241790613e-07
3889.0,-5.974365277039005e-07
3889.9,-6.121802300906368e-07
3890.8,-6.417749043560866e-07
3891.7,-6.778255515025393e-07
3892.6,-7.135342443543676e-07
3893.5,-7.43758327908238e-07
3894.4,-7.691961657937379e-07
3895.3,-7.779007133476116e-07
3896.2,-7.889176324973016e-07
3897.1,-7.94231690178525e-07
3898.0,-8.000151334903871e-07
3898.9,-8.068322676351537e-07
3899.8,-8.11509533711984e-07
3900.7,-8.154256008662247e-07
3901.6,-8.140104840110494e-07
3902.51,-8.095181557433643e-07
3903.41,-8.013581964868863e-07
3904.31,-7.924623712390667e-07
3905.21,-7.86228485235117e-07
3906.11,-7.824060210279502e-07
3907.01,-7.954511812690246e-07
3907.91,-8.17817046694769e-07
3908.81,-8.480297356899994e-07
3909.71,-8.796422829851291e-07
3910.61,-9.073236907380878e-07
3911.51,-9.254125025374184e-07
3912.41,-9.438968762493003e-07
3913.31,-9.49222726330277e-07
3914.21,-9.426536344873019e-07
3915.11,-9.36644290150532e-07
3916.01,-9.238012434917074e-07
3916.91,-9.080151906899659e-07
3917.81,-8.88234662873493e-07
3918.71,-8.615766710076334e-07
3919.61,-8.363329818351223e-07
3920.51,-8.101010172795946e-07
3921.41,-7.885333187321299e-07
3922.31,-7.753114521519922e-07
3923.21,-7.625370694203835e-07
3924.11,-7.552520360879746e-07
3925.01,-7.391240784121576e-07
3925.91,-7.153388426093383e-07
3926.81,-6.796107041652628e-07
3927.71,-6.274803154377735e-07
3928.61,-5.693993627858721e-07
3929.51,-5.045913916985829e-07
3930.41,-4.4272948398251806e-07
3931.31,-3.843296028522946e-07
3932.21,-3.320801143230594e-07
3933.11,-2.941210831115745e-07
3934.01,-2.738490397838517e-07
3934.91,-2.7144000572057915e-07
3935.81,-2.8978039402577404e-07
3936.71,-3.2571496898798727e-07
3937.61,-3.792121647988714e-07
3938.51,-4.413851422189148e-07
3939.42,-5.033728887491428e-07
3940.32,-5.59133446608728e-07
3941.22,-6.106682704060043e-07
3942.12,-6.474843871336029e-07
3943.02,-6.74786653373044e-07
3943.92,-7.004777596097801e-07
3944.82,-7.249285811979844e-07
3945.72,-7.572062434581067e-07
3946.62,-7.923898711269914e-07
3947.52,-8.257018122874544e-07
3948.42,-8.576750450536508e-07
3949.32,-8.843733543449986e-07
3950.22,-9.090172796598695e-07
3951.12,-9.267979295206058e-07
3952.02,-9.394789374469363e-07
3952.92,-9.492629837082605e-07
3953.82,-9.54626778718284e-07
3954.72,-9.57778961062981e-07
3955.62,-9.53020672047947e-07
3956.52,-9.491212657408222e-07
3957.42,-9.384245079771404e-07
3958.32,-9.216727832549211e-07
3959.22,-9.029306322579641e-07
3960.12,-8.717895091126808e-07
3961.02,-8.27833608922568e-07
3961.92,-7.743016149545135e-07
3962.82,-7.104571499028998e-07
3963.72,-6.516333268771082e-07
3964.62,-5.915516233246155e-07
3965.52,-5.302524952950277e-07
3966.42,-4.689441852312408e-07
3967.32,-4.1457319712631743e-07
3968.22,-3.6690620451247165e-07
3969.12,-3.424638873390203e-07
3970.02,-3.3975899281172344e-07
3970.92,-3.618255704109986e-07
3971.82,-4.058658082882415e-07
3972.72,-4.6722316909228125e-07
3973.62,-5.37391287866562e-07
3974.52,-6.118397706523843e-07
3975.42,-6.822260901645578e-07
3976.32,-7.520774475614847e-07
3977.22,-8.211705066793129e-07
3978.13,-8.825771417959458e-07
3979.03,-9.385351152389577e-07
3979.93,-9.88092741187392e-07
3980.83,-1.0204391623614838e-06
3981.73,-1.0393688456870385e-06
3982.63,-1.0564935307640142e-06
3983.53,-1.0651693438454438e-06
3984.43,-1.066992168799814e-06
3985.33,-1.0836289620524285e-06
3986.23,-1.0966595037024103e-06
3987.13,-1.1148090034793083e-06
3988.03,-1.1273866622163838e-06
3988.93,-1.142511315734922e-06
3989.83,-1.1577755260960899e-06
3990.73,-1.1700322877170576e-06
3991.63,-1.1785981518266953e-06
3992.53,-1.1868412605482152e-06
3993.43,-1.1965641970358269e-06
3994.33,-1.196037460157319e-06
3995.23,-1.1910482968431482e-06
3996.13,-1.1783063538929613e-06
3997.03,-1.172780754584628e-06
3997.93,-1.1669043812862056e-06
3998.83,-1.1826656437465847e-06
3999.73,-1.1995331731342544e-06
4000.63,-1.2190430490908234e-06
4001.53,-1.2452376429450132e-06
4002.43,-1.2569745429588489e-06
4003.33,-1.2529038530864636e-06
4004.23,-1.2367998314449067e-06
4005.13,-1.216500888036e-06
4006.03,-1.190510860954259e-06
4006.93,-1.183045172996977e-06
4007.83,-1.1872340677746047e-06
4008.73,-1.209350926757339e-06
4009.63,-1.2250895424218365e-06
4010.53,-1.2544514360250125e-06
4011.43,-1.2735323587524914e-06
4012.33,-1.2919008514732702e-06
4013.23,-1.30409025842116e-06
4014.13,-1.311234801895311e-06
4015.03,-1.319832504901772e-06
4015.93,-1.3268302015388005e-06
4016.84,-1.3316020750098045e-06
4017.74,-1.3312247514060286e-06
4018.64,-1.3361097356733387e-06
4019.54,-1.3414082146206898e-06
4020.44,-1.3508303379399814e-06
4021.34,-1.349885829219322e-06
4022.24,-1.3448162829849022e-06
4023.14,-1.3456060201572158e-06
4024.04,-1.3425571112846501e-06
4024.94,-1.3449746486923562e-06
4025.84,-1.3457639878311867e-06
4026.74,-1.3540204769983876e-06
4027.64,-1.3604814619717625e-06
4028.54,-1.3609340855327984e-06
4029.44,-1.3380465612791329e-06
4030.34,-1.302526852009187e-06
4031.24,-1.258735018944052e-06
4032.14,-1.2189079955247394e-06
4033.04,-1.1933321924061408e-06
4033.94,-1.1871019244277934e-06
4034.84,-1.2049187315122078e-06
4035.74,-1.239195677260571e-06
4036.64,-1.293161448442498e-06
4037.54,-1.3325977189507692e-06
4038.44,-1.3743506787906673e-06
4039.34,-1.396263836651166e-06
4040.24,-1.4108225353481066e-06
4041.14,-1.4014267368589687e-06
4042.04,-1.377788195283621e-06
4042.94,-1.3384431403823557e-06
4043.84,-1.298845244568754e-06
4044.74,-1.2507919641219662e-06
4045.64,-1.205443696272412e-06
4046.54,-1.1860905148819187e-06
4047.44,-1.1989446270306146e-06
4048.34,-1.2278698975148462e-06
4049.24,-1.2874219123971424e-06
4050.14,-1.3261057782987615e-06
4051.04,-1.363066618449793e-06
4051.94,-1.3869818423929278e-06
4052.84,-1.389243479987129e-06
4053.74,-1.3699104483393436e-06
4054.65,-1.3464106775489007e-06
4055.55,-1.3265180419491451e-06
4056.45,-1.3044211634667132e-06
4057.35,-1.2890265477842703e-06
4058.25,-1.2822820264100925e-06
4059.15,-1.2850567163239858e-06
4060.05,-1.2871714358205305e-06
4060.95,-1.2923116270949929e-06
4061.85,-1.2773125668426128e-06
4062.75,-1.261557632519641e-06
4063.65,-1.2399527615027092e-06
4064.55,-1.2225536187867804e-06
4065.45,-1.2205469675394666e-06
4066.35,-1.2350097754319614e-06
4067.25,-1.2641631823297844e-06
4068.15,-1.2870975003309078e-06
4069.05,-1.3194013638485006e-06
4069.95,-1.3313237043390155e-06
4070.85,-1.3344725130512205e-06
4071.75,-1.331146057514226e-06
4072.65,-1.3240184685037729e-06
4073.55,-1.3205515022005674e-06
4074.45,-1.3122337436331787e-06
4075.35,-1.3003401446327709e-06
4076.25,-1.282280800282458e-06
4077.15,-1.2698427524964377e-06
4078.05,-1.2637189052092552e-06
4078.95,-1.267807847511828e-06
4079.85,-1.3023617427267563e-06
4080.75,-1.3370417755623717e-06
4081.65,-1.3731454582133004e-06
4082.55,-1.4061012540553933e-06
4083.45,-1.427668842758295e-06
4084.35,-1.4401698691298663e-06
4085.25,-1.448229060406693e-06
4086.15,-1.4556818362983238e-06
4087.05,-1.4703540999216559e-06
4087.95,-1.5040189151848673e-06
4088.85,-1.5252358370117876e-06
4089.75,-1.543688349469395e-06
4090.65,-1.5488921105903175e-06
4091.55,-1.5560396273127196e-06
4092.45,-1.5328977660141907e-06
4093.36,-1.5122908853106751e-06
4094.26,-1.4860565415640376e-06
4095.16,-1.4538190121586894e-06
4096.06,-1.4202649687174864e-06
4096.96,-1.3800548232063343e-06
4097.86,-1.3398302102781626e-06
4098.76,-1.2972011797482149e-06
4099.66,-1.253923691648093e-06
4100.56,-1.2074754278764678e-06
4101.46,-1.1765173211645786e-06
4102.36,-1.1620406106084659e-06
4103.26,-1.1691478302560907e-06
4104.16,-1.1942318103933453e-06
4105.06,-1.241712444947677e-06
4105.96,-1.2962536390397752e-06
4106.86,-1.3501998736952212e-06
4107.76,-1.3958664827122605e-06
4108.66,-1.4165783077548708e-06
4109.56,-1.4303944544123283e-06
4110.46,-1.4383776889878867e-06
4111.36,-1.4503905061612035e-06
4112.26,-1.4540039251414625e-06
4113.16,-1.4670103195966118e-06
4114.06,-1.4930798877272461e-06
4114.96,-1.5102409083402577e-06
4115.86,-1.5296109406286342e-06
4116.76,-1.5276068487618518e-06
4117.66,-1.520593149694172e-06
4118.56,-1.515620153727094e-06
4119.46,-1.5038223633043997e-06
4120.36,-1.4882045488485663e-06
4121.26,-1.4874984801690273e-06
4122.16,-1.4816969278532374e-06
4123.06,-1.4973074548872685e-06
4123.96,-1.4994469139204462e-06
4124.86,-1.51193402580191e-06
4125.76,-1.5072295200849418e-06
4126.66,-1.511195134711652e-06
4127.56,-1.5064787625222667e-06
4128.46,-1.486824984060473e-06
4129.36,-1.4690165023443396e-06
4130.26,-1.4557897197708654e-06
4131.17,-1.4329839303295467e-06
4132.06,-1.4139468680669545e-06
4132.97,-1.4013584940291397e-06
4133.87,-1.3986518082414607e-06
4134.77,-1.4191991385233797e-06
4135.67,-1.4409619866415904e-06
4136.57,-1.4769708887990865e-06
4137.47,-1.5166515905807929e-06
4138.37,-1.5471592805873946e-06
4139.27,-1.5648567159422696e-06
4140.17,-1.5636613449488663e-06
4141.07,-1.5483205371428599e-06
4141.97,-1.5195178698622397e-06
4142.87,-1.4760943198046978e-06
4143.77,-1.4434708276145954e-06
4144.67,-1.4251781113625329e-06
4145.57,-1.4273380016916972e-06
4146.47,-1.44352609665739e-06
4147.37,-1.4646444678987333e-06
4148.27,-1.484808076877643e-06
4149.17,-1.4991708174104706e-06
4150.07,-1.4986177110501087e-06
4150.97,-1.4936751575831097e-06
4151.87,-1.4878570279143969e-06
4152.77,-1.4782969262439389e-06
4153.67,-1.4756506308782526e-06
4154.57,-1.4583175731064197e-06
4155.47,-1.4584501880576624e-06
4156.37,-1.4551722204260034e-06
4157.27,-1.4694875439569726e-06
4158.17,-1.4923366944831285e-06
4159.07,-1.51710617514534e-06
4159.97,-1.5525265552913362e-06
4160.87,-1.5758543224596013e-06
4161.77,-1.6045382379823326e-06
4162.67,-1.6228431901284364e-06
4163.57,-1.6274377693185564e-06
4164.47,-1.6298819440491218e-06
4165.37,-1.6246341098748743e-06
4166.27,-1.6078205555961748e-06
4167.17,-1.5917173880780625e-06
4168.07,-1.577206799102545e-06
4168.98,-1.5596343288513717e-06
4169.88,-1.5445874843097535e-06
4170.78,-1.5229923811193277e-06
4171.68,-1.5024418752653284e-06
4172.58,-1.472326694581736e-06
4173.48,-1.447191201168291e-06
4174.38,-1.4316847107840004e-06
4175.28,-1.432111874176655e-06
4176.18,-1.4365679755973887e-06
4177.08,-1.4502598132175872e-06
4177.98,-1.4618559392637297e-06
4178.88,-1.4836782776751703e-06
4179.78,-1.4936131105216794e-06
4180.68,-1.5142710157202747e-06
4181.58,-1.5221918257606675e-06
4182.48,-1.5376898128358403e-06
4183.38,-1.5450269847268153e-06
4184.28,-1.5525149946508372e-06
4185.18,-1.552707227802018e-06
4186.08,-1.5559356016672856e-06
4186.98,-1.5562674001481166e-06
4187.88,-1.5525185759874254e-06
4188.78,-1.5592137832525572e-06
4189.68,-1.5626642526211915e-06
4190.58,-1.5774252279986515e-06
4191.48,-1.5969344116586671e-06
4192.38,-1.6130057388957104e-06
4193.28,-1.6263943010457796e-06
4194.18,-1.6279713857667624e-06
4195.08,-1.6206993747765387e-06
4195.98,-1.5948558555892076e-06
4196.88,-1.5583471563359654e-06
4197.78,-1.5256805633830871e-06
4198.68,-1.4939288834554393e-06
4199.58,-1.4764708416418201e-06
4200.48,-1.468721592867866e-06
4201.38,-1.4728144895219924e-06
4202.28,-1.4843592196079502e-06
4203.18,-1.5082987662550749e-06
4204.08,-1.5330578340091108e-06
4204.98,-1.5620903483899578e-06
4205.88,-1.6005558816189093e-06
4206.79,-1.635372112613287e-06
4207.69,-1.6695310910421783e-06
4208.59,-1.6922993574559587e-06
4209.49,-1.7018739690649501e-06
4210.39,-1.7110408332458075e-06
4211.29,-1.7054724014464604e-06
4212.19,-1.709191735386464e-06
4213.09,-1.6994865747649635e-06
4213.99,-1.683715189036558e-06
4214.89,-1.6652062311793118e-06
4215.79,-1.654927091498597e-06
4216.69,-1.6534725807302809e-06
4217.59,-1.6729364098538799e-06
4218.49,-1.698083654919724e-06
4219.39,-1.7244949936290222e-06
4220.29,-1.7562562209800832e-06
4221.19,-1.7659986675838357e-06
4222.09,-1.7451905288277208e-06
4222.99,-1.692808578083494e-06
4223.89,-1.6261593872450855e-06
4224.79,-1.5417468687146978e-06
4225.69,-1.4581767575446358e-06
4226.59,-1.3916038073755698e-06
4227.49,-1.3718153736514788e-06
4228.39,-1.3899177046560961e-06
4229.29,-1.4427675968007188e-06
4230.19,-1.5190293257291903e-06
4231.09,-1.5917436241906294e-06
4231.99,-1.6516158727599484e-06
4232.89,-1.6825630634384958e-06
4233.79,-1.693002956406143e-06
4234.69,-1.6865125040270933e-06
4235.59,-1.6759303749757703e-06
4236.49,-1.6538829610777526e-06
4237.39,-1.6493741086690338e-06
4238.29,-1.6453663812898308e-06
4239.19,-1.6670082028330452e-06
4240.09,-1.6940328358604544e-06
4240.99,-1.7232332826651325e-06
4241.89,-1.7597480522484732e-06
4242.79,-1.785324829417773e-06
4243.69,-1.818076115617236e-06
4244.59,-1.8372132268121668e-06
4245.5,-1.8413175912818348e-06
4246.4,-1.8262523236593522e-06
4247.3,-1.8007573109388334e-06
4248.2,-1.7754323173945014e-06
4249.1,-1.7301045570917257e-06
4250.0,-1.6926749101052717e-06
4250.9,-1.675975724990046e-06
4251.8,-1.6705817271713006e-06
4252.7,-1.6688851426257745e-06
4253.6,-1.678916836264137e-06
4254.5,-1.6953595161455635e-06
4255.4,-1.7061784812660143e-06
4256.3,-1.7166450436526647e-06
4257.2,-1.7352569919257614e-06
4258.1,-1.722338008625091e-06
4259.0,-1.7120067039143108e-06
4259.9,-1.7069625302410024e-06
4260.8,-1.6977157768410687e-06
4261.7,-1.710625528001698e-06
4262.6,-1.7330834956757298e-06
4263.5,-1.7752518732268288e-06
4264.4,-1.839443097486498e-06
4265.3,-1.8810446529453634e-06
4266.2,-1.9023988282843123e-06
4267.1,-1.898320945238234e-06
4268.0,-1.8707725206043256e-06
4268.9,-1.8217229280550413e-06
4269.8,-1.7576090153929639e-06
4270.7,-1.6816397182921722e-06
4271.6,-1.6136985444903325e-06
4272.5,-1.5722313685096786e-06
4273.4,-1.5455545620415396e-06
4274.3,-1.5471569972793658e-06
4275.2,-1.5769704739377326e-06
