wave,flux
3700.85,-0.00558370898381764
3701.75,-0.005589975772086195
3702.65,-0.005504186580699801
3703.55,-0.005321627039582614
3704.45,-0.00510146125787242
3705.35,-0.004908908442214214
3706.25,-0.004809473668540288
3707.15,-0.004808903754649433
3708.05,-0.004885707133683818
3708.96,-0.005034460848058517
3709.86,-0.005237493809899662
3710.76,-0.005477366160046166
3711.66,-0.005786267512663909
3712.56,-0.006128890855066082
3713.46,-0.00647995428351509
3714.36,-0.00678490256714423
3715.26,-0.007063741330523788
3716.16,-0.007198490900883587
3717.06,-0.007194743899859317
3717.96,-0.007050317069329152
3718.86,-0.006761611162185002
3719.76,-0.006404153222553827
3720.66,-0.006029930585853853
3721.56,-0.005787157161345706
3722.46,-0.005798959471354217
3723.36,-0.006025446785936657
3724.26,-0.006458228446962866
3725.16,-0.006933345054111254
3726.06,-0.007392737596258481
3726.96,-0.007713294686378606
3727.86,-0.007940510344223928
3728.76,-0.008071257110239202
3729.66,-0.008090415136980745
3730.56,-0.008030712793984667
3731.46,-0.007881082657458295
3732.36,-0.0075220383656128655
3733.26,-0.007092621430143167
3734.16,-0.006651244599963625
3735.06,-0.006373823131029391
3735.96,-0.006275482388213297
3736.86,-0.006552603330489307
3737.76,-0.007027545238032873
3738.66,-0.007758363730176359
3739.56,-0.008502524990595131
3740.46,-0.00923822639298115
3741.36,-0.00971858481828598
3742.26,-0.009986708578772189
3743.16,-0.010024866128841676
3744.06,-0.009831753804323459
3744.96,-0.009531858106501439
3745.86,-0.009188612888839804
3746.76,-0.008830704180842676
3747.67,-0.008461025247246283
3748.57,-0.008215224156942957
3749.47,-0.00813200734509264
3750.37,-0.008312793333173868
3751.27,-0.008878946692727239
3752.17,-0.009785260218382497
3753.07,-0.010836864231040928
3753.97,-0.01190802306746815
3754.87,-0.01282466888559058
3755.77,-0.013430728376981785
3756.67,-0.013676969613773569
3757.57,-0.01355859659739948
3758.47,-0.013383843287640751
3759.37,-0.01319224618063905
3760.27,-0.013177205165915435
3761.17,-0.013479808675768427
3762.07,-0.013883166698702458
3762.97,-0.014277723602493892
3763.87,-0.014756132731402936
3764.77,-0.01493316156594382
3765.67,-0.01516356923214709
3766.57,-0.015176274723955685
3767.47,-0.015159560424834597
3768.37,-0.01515764965063576
3769.27,-0.015075167908572645
3770.17,-0.015167295909491625
3771.07,-0.015517352480818331
3771.97,-0.016088861868539528
3772.87,-0.01691183332739061
3773.77,-0.017840692464544415
3774.67,-0.018850619625693982
3775.57,-0.019709066744390734
3776.47,-0.02055452531859207
3777.37,-0.02137604360021577
3778.27,-0.02227816580568956
3779.17,-0.02322151456393724
3780.07,-0.024305989973023703
3780.97,-0.025025463052514418
3781.87,-0.02588691424896306
3782.77,-0.026590221233196876
3783.67,-0.027148533798598704
3784.57,-0.02727471797728314
3785.47,-0.02708890440047881
3786.38,-0.026674603127530932
3787.28,-0.0261433710185741
3788.18,-0.025671303422003244
3789.08,-0.025483784596357976
3789.98,-0.02538313015789242
3790.88,-0.025490340305599445
3791.78,-0.025634284488662645
3792.68,-0.025791649440152258
3793.58,-0.02556809158660582
3794.48,-0.025087481947802533
3795.38,-0.02452194573660814
3796.28,-0.023900092946185402
3797.18,-0.023200277128476512
3798.08,-0.023097988261171036
3798.98,-0.023502243280880276
3799.88,-0.024693315878684678
3800.78,-0.026552606078234738
3801.68,-0.029177264600321808
3802.58,-0.03184173924328798
3803.48,-0.0344256875825898
3804.38,-0.036426946565034445
3805.28,-0.03816302074218569
3806.18,-0.03922330749109122
3807.08,-0.040355298638865666
3807.98,-0.04127727458267024
3808.88,-0.04241147038691196
3809.78,-0.043899648161195674
3810.68,-0.0451072099713773
3811.58,-0.04585300150825267
3812.48,-0.04599210336684349
3813.38,-0.04557925726930339
3814.28,-0.04491495300311364
3815.18,-0.04424795850429759
3816.08,-0.04467107339388179
3816.98,-0.04469612068155484
3817.88,-0.04575894538578933
3818.78,-0.04674510463147892
3819.68,-0.046975340452505066
3820.58,-0.047584581077681626
3821.48,-0.04804027343879803
3822.38,-0.048379941335284324
3823.28,-0.04873629663959915
3824.18,-0.048759385040152585
3825.09,-0.04831932448683146
3825.99,-0.047838147213045835
3826.89,-0.04743276879729971
3827.79,-0.04739014354888299
3828.69,-0.04770194640299429
3829.59,-0.04797013435637953
3830.49,-0.04826478494195258
3831.39,-0.04778528436791064
3832.29,-0.04683527227553443
3833.19,-0.04574029934405398
3834.09,-0.04459745170746004
3834.99,-0.04411289568299283
3835.89,-0.0443837201312911
3836.79,-0.04534418968367046
3837.69,-0.047376710681457615
3838.59,-0.05000541348963008
3839.49,-0.05348515022243064
3840.39,-0.057688094972175884
3841.29,-0.06331097824342014
3842.19,-0.06914818805541803
3843.09,-0.07571720663706756
3843.99,-0.08211776640084037
3844.89,-0.08714573802693663
3845.79,-0.09266227764608657
3846.69,-0.09692860973174518
3847.59,-0.10092897328665251
3848.49,-0.10402819260654854
3849.39,-0.10820177535616504
3850.29,-0.11099954720839392
3851.19,-0.11479300035554088
3852.09,-0.11733894401318552
3852.99,-0.12132543460831308
3853.89,-0.12421780279722242
3854.79,-0.12635145301494444
3855.69,-0.12792550339230585
3856.59,-0.1287236898469976
3857.49,-0.12970254187923377
3858.39,-0.12999387620569613
3859.29,-0.13253602855820143
3860.19,-0.13554719082779437
3861.09,-0.14070287674225737
3861.99,-0.14851089747224197
3862.9,-0.15735955106837618
3863.8,-0.16606293372260114
3864.7,-0.17399851537774247
3865.6,-0.18103799031233603
3866.5,-0.18615947839957744
3867.4,-0.19025508145785175
3868.3,-0.19355408810216468
3869.2,-0.19690184098281938
3870.1,-0.19879419076420154
3871.0,-0.20124262743199825
3871.9,-0.20307218010386605
3872.8,-0.20675948471581446
3873.7,-0.21179624204485434
3874.6,-0.2204710930309654
3875.5,-0.228464306903284
3876.4,-0.23742241609200837
3877.3,-0.24525399422016908
3878.2,-0.25008257195167766
3879.1,-0.2542008788101067
3880.0,-0.26186412651046104
3880.9,-0.2677166134015963
3881.8,-0.27519552435490047
3882.7,-0.2817311328609423
3883.6,-0.2878258193874371
3884.5,-0.2907694844344718
3885.4,-0.29068957207101226
3886.3,-0.2888300275715957
3887.2,-0.28741200788983645
3888.1,-0.2875265208081745
3889.0,-0.2934500161689208
3889.9,-0.3069766615795453
3890.8,-0.3305695078005601
3891.7,-0.3631935988668788
3892.6,-0.39958994113761426
3893.5,-0.43794501063400504
3894.4,-0.47413094721192867
3895.3,-0.512809943325632
3896.2,-0.546966858412454
3897.1,-0.5851590934867088
3898.0,-0.6242981450716505
3898.9,-0.6638851543281085
3899.8,-0.7092747349264269
3900.7,-0.7529002237802096
3901.6,-0.8018283620335949
3902.51,-0.8541480451718263
3903.41,-0.9009015733757985
3904.31,-0.9560413022570659
3905.21,-1.0125275747568503
3906.11,-1.0826257367292076
3907.01,-1.173405221600217
3907.91,-1.2898951299273482
3908.81,-1.4365418037497466
3909.71,-1.5986910586147418
3910.61,-1.803257697054914
3911.51,-2.0075394891337974
3912.41,-2.248300840586296
3913.31,-2.5256195050108823
3914.21,-2.857766935402086
3915.11,-3.2304532638619046
3916.01,-3.731347864282975
3916.91,-4.417647372882526
3917.81,-5.350387527368328
3918.71,-6.8344559881724765
3919.61,-9.516792918612733
3920.51,-15.698826236653604
3921.41,-46.31145232712476
3922.31,48.45250592468177
3923.21,16.02235393900217
3924.11,9.577846677310793
3925.01,6.807058963725833
3925.91,5.196148822491628
3926.81,4.10675312760773
3927.71,3.2856407406467545
3928.61,2.6356940523754884
3929.51,2.1217441713832126
3930.41,1.6983734648893027
3931.31,1.3559940993282689
3932.21,1.0911117134472157
3933.11,0.8921857801592001
3934.01,0.7737447208577194
3934.91,0.7151871039180048
3935.81,0.7227044125688173
3936.71,0.7731594063631221
3937.61,0.8533300994228051
3938.51,0.9423627168375754
3939.42,1.0244224472312666
3940.32,1.0992789811321093
3941.22,1.1402341703752585
3942.12,1.1651616062102703
3943.02,1.1744986273225209
3943.92,1.1722893662923453
3944.82,1.170755061684783
3945.72,1.1812289591165293
3946.62,1.1808233718425885
3947.52,1.1889447790080052
3948.42,1.187810688230346
3949.32,1.1878239935669765
3950.22,1.1782462148147483
3951.12,1.1705263569688005
3952.02,1.1585839028959317
3952.92,1.1427595841394729
3953.82,1.1316423967593334
3954.72,1.1074354553397703
3955.62,1.0934320850050703
3956.52,1.0673886864304618
3957.42,1.0434466002096534
3958.32,1.0166538701285819
3959.22,0.9854288157307283
3960.12,0.949397822524103
3961.02,0.8988501815907219
3961.92,0.8409569022274048
3962.82,0.7752762712588416
3963.72,0.7115954621935197
3964.62,0.6428683127486112
3965.52,0.5744337247434625
3966.42,0.5063130223335854
3967.32,0.4407106787288817
3968.22,0.38600537204905216
3969.12,0.3529491479981915
3970.02,0.34308939514628395
3970.92,0.358382185202193
3971.82,0.39404850522331175
3972.72,0.4461631829343894
3973.62,0.5060739427509428
3974.52,0.5700018773833304
3975.42,0.6268408582081275
3976.32,0.6823330428565914
3977.22,0.7313145945730396
3978.13,0.7787354047041014
3979.03,0.8158879042241142
3979.93,0.8514509614054155
3980.83,0.8768386333422086
3981.73,0.8894104775893032
3982.63,0.8967763711635672
3983.53,0.8986049154466174
3984.43,0.900367249674375
3985.33,0.9090443188841936
3986.23,0.9180370136782728
3987.13,0.9259036291038665
3988.03,0.9396458346144644
3988.93,0.9412887558362377
3989.83,0.9534032667890875
3990.73,0.9563278363461138
3991.63,0.9665824783847705
3992.53,0.9660729514341654
3993.43,0.9732051664052787
3994.33,0.9712317888894515
3995.23,0.9630177219078317
3996.13,0.9582357327611649
3997.03,0.9490761076650819
3997.93,0.9419021236417568
3998.83,0.9454802904055377
3999.73,0.9578415807240203
4000.63,0.9713798618020801
4001.53,0.9816694057474872
4002.43,0.9895302257314555
4003.33,0.9912938335419518
4004.23,0.9784108452681586
4005.13,0.9639777624936937
4006.03,0.950934136329468
4006.93,0.9445086524256339
4007.83,0.9486541070480801
4008.73,0.95610194268106
4009.63,0.9744940672325639
4010.53,0.9900132789835704
4011.43,0.993928912029074
4012.33,1.0113076582758707
4013.23,1.0121402494318306
4014.13,1.0155453915828827
4015.03,1.0222172487538126
4015.93,1.021070096647654
4016.84,1.0229493750120502
4017.74,1.020660290731316
4018.64,1.0280155394015356
4019.54,1.0354966134828478
4020.44,1.0376706852216644
4021.34,1.03163347021569
4022.24,1.038295170768794
4023.14,1.0360626293066837
4024.04,1.0322374390664024
4024.94,1.0340451480957142
4025.84,1.0352858235774778
4026.74,1.0428197314777117
4027.64,1.0419163433221554
4028.54,1.044025658177668
4029.44,1.0264089587773801
4030.34,1.0098165429802637
4031.24,0.9844108282868809
4032.14,0.9625631042986216
4033.04,0.9464037606253415
4033.94,0.9435120232045914
4034.84,0.9569823060722012
4035.74,0.9807558359093507
4036.64,1.0094391436647325
4037.54,1.041522660430172
4038.44,1.0598909565656651
4039.34,1.0753084264323953
4040.24,1.0788235885181916
4041.14,1.0698872055504147
4042.04,1.0539030286348796
4042.94,1.0346103873837171
4043.84,1.0070122346720183
4044.74,0.982582134073378
4045.64,0.9612156213676407
4046.54,0.9514323234651504
4047.44,0.9549320353727362
4048.34,0.9816123513245942
4049.24,1.0049454013972436
4050.14,1.0285820579660785
4051.04,1.0534761582513548
4051.94,1.059859429356289
4052.84,1.0499453419158848
4053.74,1.0382998392013294
4054.65,1.0293933311525414
4055.55,1.0110797413415202
4056.45,1.0001215285807927
4057.35,0.995883553868177
4058.25,0.997059166499116
4059.15,0.9978006981008942
4060.05,0.9993766032776523
4060.95,0.9988000013548367
4061.85,0.9908517833372775
4062.75,0.9854943722105675
4063.65,0.9736043207346124
4064.55,0.9629868043176889
4065.45,0.9660988848953049
4066.35,0.9662509367610465
4067.25,0.9817324163859183
4068.15,0.9984585622574982
4069.05,1.0090332268674196
4069.95,1.0207810188972852
4070.85,1.0190157485548572
4071.75,1.012604020902978
4072.65,1.0116320743929592
4073.55,1.004781841222188
4074.45,0.998271787750163
4075.35,0.9840697737666941
4076.25,0.9695333543085176
4077.15,0.9547107380819564
4078.05,0.949875545845143
4078.95,0.9492781246031358
4079.85,0.9569266802077654
4080.75,0.9835220609557195
4081.65,1.00182265747532
4082.55,1.020712523922326
4083.45,1.0288622413652753
4084.35,1.033750248701831
4085.25,1.0350410671577361
4086.15,1.0414870927610602
4087.05,1.0505366340323963
4087.95,1.0615627966326586
4088.85,1.0754794223701591
4089.75,1.0830457857340612
4090.65,1.0873065403520734
4091.55,1.0790877665138172
4092.45,1.069515163072415
4093.36,1.0545158999537443
4094.26,1.038391499358603
4095.16,1.0119744742652665
4096.06,0.9853079670542354
4096.96,0.95819286956743
4097.86,0.9256485650177181
4098.76,0.8853105028605084
4099.66,0.849962068474552
4100.56,0.8112496520380129
4101.46,0.7827277692386914
4102.36,0.7669567113403989
4103.26,0.7684768622628118
4104.16,0.7867837978848223
4105.06,0.8190519745921137
4105.96,0.85557190271382
4106.86,0.8967400048797262
4107.76,0.9255760562162133
4108.66,0.9490853970876079
4109.56,0.9678728789259576
4110.46,0.9759362512775908
4111.36,0.9849636920430945
4112.26,0.9947341069734847
4113.16,1.0102911060019315
4114.06,1.0246285487962175
4114.96,1.034283982247552
4115.86,1.0470120228769721
4116.76,1.0504242259082186
4117.66,1.0457090400766127
4118.56,1.042988049284191
4119.46,1.0373368268372962
4120.36,1.0290063771240758
4121.26,1.0262140704926006
4122.16,1.0215169055673898
4123.06,1.0257800128053485
4123.96,1.0285982544202692
4124.86,1.0326479105435629
4125.76,1.0378179657974427
4126.66,1.035186037233871
4127.56,1.028975713597352
4128.46,1.017804961496564
4129.36,1.015376441371506
4130.26,1.0057629536608814
4131.17,0.9964591650301611
4132.06,0.9802791182991195
4132.97,0.9789853259726099
4133.87,0.977743610278176
4134.77,0.9864864740211762
4135.67,1.002916744437854
4136.57,1.0190472336256795
4137.47,1.0394019957613871
4138.37,1.051286751725974
4139.27,1.0645896664757875
4140.17,1.0670451489296193
4141.07,1.0564349270720792
4141.97,1.0425035091011654
4142.87,1.015576685155743
4143.77,0.9971712297476953
4144.67,0.9892028206771178
4145.57,0.9890538254935546
4146.47,0.9985523740071883
4147.37,1.0122415325943233
4148.27,1.0158946225820986
4149.17,1.0222578025338627
4150.07,1.0209346457861674
4150.97,1.0190728582939725
4151.87,1.0088408148739674
4152.77,1.0068639581082297
4153.67,0.9970908025452123
4154.57,0.9941497513578622
4155.47,0.9904106091309677
4156.37,0.9925577569714149
4157.27,0.9953391540274019
4158.17,1.0012575793678422
4159.07,1.0136571296639394
4159.97,1.0232502837692539
4160.87,1.0419906307301352
4161.77,1.0495390766756096
4162.67,1.0582611929315031
4163.57,1.0652492128891873
4164.47,1.0640373107026189
4165.37,1.0646121048828765
4166.27,1.0580596147989128
4167.17,1.047745998743572
4168.07,1.035431809358995
4168.98,1.0256858691249382
4169.88,1.0154590862988204
4170.78,1.001759099562379
4171.68,0.9809295910655992
4172.58,0.9690800840500541
4173.48,0.9503183990958107
4174.38,0.9414621780372437
4175.28,0.9375908536940363
4176.18,0.9432883228455597
4177.08,0.9522771686035371
4177.98,0.9609464691301465
4178.88,0.9675234866069565
4179.78,0.9743014370593573
4180.68,0.98184132082787
4181.58,0.9874866314253771
4182.48,0.991584076232658
4183.38,0.9922123579337299
4184.28,1.0009664445472637
4185.18,1.0011582361279248
4186.08,0.9987246862106844
4186.98,0.9996022065051751
4187.88,0.9997121217541336
4188.78,0.9978457035250009
4189.68,1.0034114153833193
4190.58,1.0096961998984526
4191.48,1.0193115248117497
4192.38,1.0308105108436068
4193.28,1.0319435088895792
4194.18,1.0313806825934748
4195.08,1.0238826390000184
4195.98,1.0159191825482916
4196.88,0.9950900320907434
4197.78,0.9789709487921547
4198.68,0.9632703934273108
4199.58,0.9569384783894902
4200.48,0.9502694304200213
4201.38,0.9435441761003039
4202.28,0.9549647818996543
4203.18,0.9617143882794695
4204.08,0.9730449721960862
4204.98,0.9867803451055867
4205.88,0.999877621362719
4206.79,1.0146039419492465
4207.69,1.031368056916643
4208.59,1.0390808222827246
4209.49,1.0479903361254816
4210.39,1.0550947318800639
4211.29,1.0531015347180264
4212.19,1.0518492660998002
4213.09,1.0432632502356103
4213.99,1.0401456820868862
4214.89,1.0304905007929264
4215.79,1.025074340071111
4216.69,1.0200943949999304
4217.59,1.0238063988647632
4218.49,1.0375330445519668
4219.39,1.04738113331524
4220.29,1.0600275310779264
4221.19,1.065722487706748
4222.09,1.058276603017598
4222.99,1.0374441290961451
4223.89,1.004664654191807
4224.79,0.9701890202952518
4225.69,0.928799145678503
4226.59,0.8966836329792128
4227.49,0.888705237772966
4228.39,0.8972328694931957
4229.29,0.9208705969504408
4230.19,0.9533444920609496
4231.09,0.9893499442603108
4231.99,1.0177471281138653
4232.89,1.0271193253658537
4233.79,1.0269125299972819
4234.69,1.0268819470742783
4235.59,1.0135724671597288
4236.49,1.007467623977168
4237.39,1.0033375546046321
4238.29,1.0009251989879007
4239.19,1.0093135471050925
4240.09,1.017601058766547
4240.99,1.0287659074846365
4241.89,1.0386561804695882
4242.79,1.054232814899538
4243.69,1.0663814396424598
4244.59,1.074077086163071
4245.5,1.0716352653874905
4246.4,1.0666634928058873
4247.3,1.0577899248948406
4248.2,1.0407824589077534
4249.1,1.0223694840485156
4250.0,1.0145674294617326
4250.9,1.0111657547030897
4251.8,1.0132185532871034
4252.7,1.0118438126670324
4253.6,1.0188963533655082
4254.5,1.0252756397353178
4255.4,1.0261964965479164
4256.3,1.0314429009057369
4257.2,1.0335230081238418
4258.1,1.0321013958012506
4259.0,1.027047349738556
4259.9,1.0168914710826684
4260.8,1.0150434702564708
4261.7,1.0189264323004321
4262.6,1.031744524617861
4263.5,1.0499779666843774
4264.4,1.0726223738176819
4265.3,1.0856539961785359
4266.2,1.0945679031912103
4267.1,1.0976484426137747
4268.0,1.0830695452240253
4268.9,1.060273496143073
4269.8,1.0317536023964236
4270.7,1.0058062140292723
4271.6,0.9717155353019125
4272.5,0.951879309787299
4273.4,0.9435834489820263
4274.3,0.9435841865039892
4275.2,0.9597775517872861
4276.1,0.9801714737566276
4277.0,1.00058951542136
4277.9,1.0267519272683086
4278.8,1.0436776774232628
4279.7,1.0515614027553588
4280.6,1.0572409694030729
4281.5,1.0506996175736953
4282.4,1.0438839731188112
4283.31,1.0362462063715834
4284.21,1.0319870530986286
4285.11,1.026110425966551
4286.01,1.0090996725629013
4286.91,0.9961304227795941
4287.81,0.9870043805080118
4288.71,0.9655934533606585
4289.61,0.9523675777196177
4290.51,0.9432298458517165
4291.41,0.9422589393103031
4292.31,0.9478694829018723
4293.21,0.9595586560569844
4294.11,0.9728484889950103
4295.01,0.9759213887914573
4295.91,0.9760522317414463
4296.81,0.957122870577619
4297.71,0.9339262890325841
4298.61,0.9068814870617269
4299.51,0.8753290395494632
4300.41,0.8480671577491379
4301.31,0.8303435330732304
4302.21,0.8145971322914853
4303.11,0.8117410296167796
4304.01,0.8142767331050168
4304.91,0.8130773780233811
4305.81,0.8181511425394132
4306.71,0.8126998336501948
4307.61,0.8058525395562792
4308.51,0.8042626842812054
4309.41,0.8062340362315819
4310.31,0.8140327247826603
4311.21,0.835124153056564
4312.11,0.8589961444852475
4313.01,0.8891031082771448
4313.91,0.9309222441237336
4314.81,0.9694557909513307
4315.71,1.0155972724757107
4316.61,1.057128728637805
4317.51,1.0936329384964607
4318.41,1.1224075982801156
4319.31,1.1338943463323965
4320.21,1.1319280886710317
4321.12,1.12054027962358
4322.02,1.0951986048271602
4322.92,1.0604803125870217
4323.82,1.0237522444767126
4324.72,0.9876258853264377
4325.62,0.9711894797854667
4326.52,0.9624698455127287
4327.42,0.9659534883020868
4328.32,0.9846722211826338
4329.22,1.015451263792478
4330.12,1.0451155107377361
4331.02,1.0624871845564108
4331.92,1.077530194697548
4332.82,1.081634709722028
4333.72,1.0793392753404125
4334.62,1.0663281373283215
4335.52,1.0437534320418
4336.42,1.011631663191899
4337.32,0.9628041740823079
4338.22,0.919137690460192
4339.12,0.8687554721485538
4340.02,0.8245796670682166
4340.92,0.8042230763614718
4341.82,0.7996007302886066
4342.72,0.8165935244756151
4343.62,0.8474514385771305
4344.52,0.8883049774428631
4345.42,0.9263605590825054
4346.32,0.9659774085726073
4347.22,0.9964509465816402
4348.12,1.0206565836518409
4349.02,1.0312338475021763
4349.92,1.037155495586683
4350.82,1.0248941768150392
4351.72,1.0164546096458602
4352.62,1.0088789235817532
4353.52,1.0043377647901754
4354.42,1.007002669347201
