wave,flux
3700.85,0.006515010905098054
3701.75,0.0064835844985523285
3702.65,0.006278014549589496
3703.55,0.005915122022617002
3704.45,0.005474633029045007
3705.35,0.00505537316158339
3706.25,0.0047526180560425076
3707.15,0.004588224444157065
3708.05,0.004603904792197298
3708.96,0.004801794912391693
3709.86,0.005175282376941526
3710.76,0.005705540066224491
3711.66,0.006322625901110653
3712.56,0.006975646498232599
3713.46,0.007519085906584475
3714.36,0.00785629680399224
3715.26,0.007993375404910094
3716.16,0.007826619867691108
3717.06,0.0074316679763118685
3717.96,0.006858491190359745
3718.86,0.006163667017295675
3719.76,0.005479313103513312
3720.66,0.004955919488012496
3721.56,0.00469034325397072
3722.46,0.004774342138289094
3723.36,0.005201077970497719
3724.26,0.005758088065723939
3725.16,0.006358438463905727
3726.06,0.0068432655912897145
3726.96,0.007155155879613895
3727.86,0.007273351603954984
3728.76,0.00732034236590849
3729.66,0.007316334842901548
3730.56,0.007162941447738168
3731.46,0.006897722130504284
3732.36,0.0064555456519767886
3733.26,0.0059023028767598235
3734.16,0.005280762349819465
3735.06,0.004822926019014682
3735.96,0.004600108924382366
3736.86,0.004688785652820794
3737.76,0.00513582499237026
3738.66,0.005827050550979973
3739.56,0.006639410353810392
3740.46,0.007431050840533728
3741.36,0.007929774554963442
3742.26,0.008104780169937997
3743.16,0.007919137056944836
3744.06,0.007452665833994363
3744.96,0.00693226597484344
3745.86,0.006421754527988015
3746.76,0.006013108304450284
3747.67,0.005767477409251415
3748.57,0.005747004371358793
3749.47,0.005954122963978583
3750.37,0.006517327301845197
3751.27,0.007405492391078823
3752.17,0.008484074660091552
3753.07,0.009677951707501246
3753.97,0.01072799486713468
3754.87,0.011470264806862019
3755.77,0.011813537895866292
3756.67,0.011654203850338078
3757.57,0.011181484573546679
3758.47,0.01060747765340324
3759.37,0.01011480383818396
3760.27,0.010020489480877307
3761.17,0.010138611661299273
3762.07,0.010464173971182858
3762.97,0.010781998785196815
3763.87,0.011003243929174563
3764.77,0.011183810741040565
3765.67,0.011357173783018574
3766.57,0.011656282966643087
3767.47,0.01205037254973454
3768.37,0.012686277864014354
3769.27,0.013488427327499167
3770.17,0.014302788519185127
3771.07,0.015231800719795635
3771.97,0.016150835788270822
3772.87,0.016912811272427004
3773.77,0.017583941350326072
3774.67,0.018057232926151075
3775.57,0.018403107620271204
3776.47,0.018684849069585344
3777.37,0.018910132895286424
3778.27,0.019320295034736937
3779.17,0.019992953605669293
3780.07,0.02061359373772659
3780.97,0.02132172938334259
3781.87,0.02184943799288962
3782.77,0.02234945602604074
3783.67,0.022406718870646262
3784.57,0.02227533985603508
3785.47,0.02157131387796116
3786.38,0.020680090548382667
3787.28,0.01964591110824136
3788.18,0.018726343966581148
3789.08,0.018091414194349117
3789.98,0.01799344353497803
3790.88,0.018142205457436743
3791.78,0.018578768306227476
3792.68,0.018812346235496248
3793.58,0.01895838865739216
3794.48,0.018888367827700668
3795.38,0.018609283879489104
3796.28,0.018322955168531933
3797.18,0.01820285277374667
3798.08,0.018245016755948446
3798.98,0.01851486725326425
3799.88,0.01935814592073894
3800.78,0.02071431314403242
3801.68,0.022547585857886385
3802.58,0.02441515239055186
3803.48,0.026176782849414743
3804.38,0.027546236385269873
3805.28,0.028273121214139316
3806.18,0.028485676961828098
3807.08,0.02863256759322257
3807.98,0.028787163640899973
3808.88,0.02918115873828434
3809.78,0.02979826958826677
3810.68,0.030313890414302047
3811.58,0.03035412542938445
3812.48,0.02988901877254803
3813.38,0.028651394653314604
3814.28,0.0272284188717485
3815.18,0.025745053175687926
3816.08,0.02478303548557614
3816.98,0.024046829479189156
3817.88,0.02368324092418981
3818.78,0.023608759501728305
3819.68,0.02311920212989106
3820.58,0.022839353920284675
3821.48,0.02261056614309549
3822.38,0.0224532433253617
3823.28,0.02235578929312303
3824.18,0.022146775313184316
3825.09,0.021631791405178853
3825.99,0.021079581149180564
3826.89,0.02068993215398194
3827.79,0.020639907137358
3828.69,0.021104836465226033
3829.59,0.021755895479902462
3830.49,0.022382286913318308
3831.39,0.02286402617005423
3832.29,0.023061962477358325
3833.19,0.02323125548747737
3834.09,0.023379656956629507
3834.99,0.023928562690433287
3835.89,0.024666908099137557
3836.79,0.02538856129516826
3837.69,0.02576058843370822
3838.59,0.026225332830623102
3839.49,0.02661307027980258
3840.39,0.027757709073899475
3841.29,0.02978386594410964
3842.19,0.03287005216581049
3843.09,0.03656625011246093
3843.99,0.04022283870365545
3844.89,0.043470042422373525
3845.79,0.04585620427689187
3846.69,0.047821993101054956
3847.59,0.048685468837859396
3848.49,0.049205101497598734
3849.39,0.04927959091159877
3850.29,0.049695529955207235
3851.19,0.04977714364350282
3852.09,0.050456570626462395
3852.99,0.05087026295500308
3853.89,0.05120501301963396
3854.79,0.05126968467622533
3855.69,0.05006721854125713
3856.59,0.04879093580389216
3857.49,0.047229851179170106
3858.39,0.04578377536329353
3859.29,0.0449902103075883
3860.19,0.04523820954144602
3861.09,0.04732763714551586
3861.99,0.051273379694916084
3862.9,0.05572139614604266
3863.8,0.060348585272161914
3864.7,0.0639365137870849
3865.6,0.06629765678657408
3866.5,0.06765251431618896
3867.4,0.06770314249601751
3868.3,0.0668478963219053
3869.2,0.06598410019410525
3870.1,0.06508102140508397
3871.0,0.06404719240755835
3871.9,0.06393116795411002
3872.8,0.06583427087654206
3873.7,0.06866545332427706
3874.6,0.0731934188694691
3875.5,0.07792764706596948
3876.4,0.08051945169524354
3877.3,0.08163852391819616
3878.2,0.08137066638774582
3879.1,0.08076175890120862
3880.0,0.08066287876206918
3880.9,0.08140186101034086
3881.8,0.08316777731934717
3882.7,0.08569760797816973
3883.6,0.08853061736674239
3884.5,0.09111133532619775
3885.4,0.09234904080186751
3886.3,0.0925871186272712
3887.2,0.09373290821685593
3888.1,0.09619600308219872
3889.0,0.10092565019921541
3889.9,0.1085614455212201
3890.8,0.11825074158427507
3891.7,0.12830024666619894
3892.6,0.13745064693166112
3893.5,0.14470806452151758
3894.4,0.14967176013196928
3895.3,0.15269149901564205
3896.2,0.1549455909346593
3897.1,0.15673293465536442
3898.0,0.1590727431058998
3898.9,0.1607914349886835
3899.8,0.1631331346184816
3900.7,0.16532598448759334
3901.6,0.16715766665568077
3902.51,0.16932460531093504
3903.41,0.16919895490013423
3904.31,0.16921413547327938
3905.21,0.16973231801505378
3906.11,0.17288775768575457
3907.01,0.18006129756662936
3907.91,0.1897810322647883
3908.81,0.20215873894141376
3909.71,0.21605313812808288
3910.61,0.22759090706493207
3911.51,0.23925825918643798
3912.41,0.2470157844674894
3913.31,0.25459407873186746
3914.21,0.25872718677921636
3915.11,0.25982835629576645
3916.01,0.2597838404586972
3916.91,0.2569400689305166
3917.81,0.2534468868869333
3918.71,0.24692691730774177
3919.61,0.2388552818492389
3920.51,0.23194974022369202
3921.41,0.22379651950120955
3922.31,0.22063897278989927
3923.21,0.21908290247928316
3924.11,0.22009841960873103
3925.01,0.21974309948651274
3925.91,0.21671471830552566
3926.81,0.20906256506089538
3927.71,0.19671141068457101
3928.61,0.17932025211441166
3929.51,0.1617624542037483
3930.41,0.14419367956875032
3931.31,0.12801189931536264
3932.21,0.1142330761408934
3933.11,0.10567995800935187
3934.01,0.10109245767670243
3934.91,0.1031262625384257
3935.81,0.11128383561648227
3936.71,0.1260584188612005
3937.61,0.14605325831998886
3938.51,0.17069292880846618
3939.42,0.19543818559181056
3940.32,0.21839905471397902
3941.22,0.23847101563508116
3942.12,0.2541537649461235
3943.02,0.26818580589270785
3943.92,0.28160524874840115
3944.82,0.2967538261437469
3945.72,0.3175417135447102
3946.62,0.33932918656133604
3947.52,0.3661549073625866
3948.42,0.3912532618304765
3949.32,0.41393048820926115
3950.22,0.43683850576213284
3951.12,0.4540993684449605
3952.02,0.4698434739275675
3952.92,0.48049128447948103
3953.82,0.4906288505589194
3954.72,0.4969287365372877
3955.62,0.5002826856432955
3956.52,0.501245936993484
3957.42,0.4972819833217069
3958.32,0.48962007430876
3959.22,0.4768059264586844
3960.12,0.4579001630230864
3961.02,0.43318085170204573
3961.92,0.40060326244585936
3962.82,0.3677522402348462
3963.72,0.3365057423862051
3964.62,0.30823115669554885
3965.52,0.2811970387618081
3966.42,0.2536930355962883
3967.32,0.22887261900441674
3968.22,0.21041831205631656
3969.12,0.20058060348058995
3970.02,0.2026299660071862
3970.92,0.21930328054419712
3971.82,0.2476610166399902
3972.72,0.2868082867490462
3973.62,0.332725938603772
3974.52,0.3843185531694465
3975.42,0.4345249325255159
3976.32,0.4845780200037226
3977.22,0.5363017128423726
3978.13,0.5866360563657462
3979.03,0.6317163653923927
3979.93,0.6699426069811086
3980.83,0.7007848164643564
3981.73,0.7210773962826367
3982.63,0.7382366313572709
3983.53,0.7471038997534476
3984.43,0.7577051003532795
3985.33,0.7711780057341401
3986.23,0.7882213918969373
3987.13,0.8062021960921884
3988.03,0.8207027611962052
3988.93,0.8376008902046119
3989.83,0.8481923755159987
3990.73,0.8683991998654121
3991.63,0.8811606639392229
3992.53,0.8874023784841788
3993.43,0.8923552964253094
3994.33,0.8976346371459517
3995.23,0.8931346632556585
3996.13,0.8887577849767453
3997.03,0.8899255359029871
3997.93,0.893117261275618
3998.83,0.8976854724774463
3999.73,0.9209271541680684
4000.63,0.946591627210291
4001.53,0.9660819545668565
4002.43,0.9828604620974994
4003.33,0.9791877023534205
4004.23,0.9681812494804579
4005.13,0.9448008597365651
4006.03,0.9288223767146381
4006.93,0.9199947501753836
4007.83,0.9227644802318967
4008.73,0.9416339836673062
4009.63,0.9655339166175699
4010.53,0.9902011193047223
4011.43,1.0134290959499537
4012.33,1.0343578316133923
4013.23,1.0395914523286185
4014.13,1.0527457495904684
4015.03,1.065218785787111
4015.93,1.065344389968193
4016.84,1.0688843195068671
4017.74,1.070861848688869
4018.64,1.072433092873284
4019.54,1.0772763932509366
4020.44,1.0810635028307591
4021.34,1.081453283718108
4022.24,1.0821960635184893
4023.14,1.0756770639624187
4024.04,1.077248634077666
4024.94,1.0751679212332337
4025.84,1.0801159421750384
4026.74,1.0858062422949086
4027.64,1.093496755244245
4028.54,1.0779253475880721
4029.44,1.0603079175889911
4030.34,1.0266197374558448
4031.24,0.9828755314649898
4032.14,0.9360806572695023
4033.04,0.9043520259435964
4033.94,0.8947904693999784
4034.84,0.9084700870279705
4035.74,0.9372932221050302
4036.64,0.9886427515750684
4037.54,1.0332788954509249
4038.44,1.0743962149385904
4039.34,1.097787491967237
4040.24,1.1068133489016652
4041.14,1.0993269718981733
4042.04,1.0763394966862319
4042.94,1.0364433369502573
4043.84,0.980816404750439
4044.74,0.9295748416141172
4045.64,0.8829818186246297
4046.54,0.8653036940672829
4047.44,0.8638061180114033
4048.34,0.9024170325489114
4049.24,0.9493776802140155
4050.14,0.9990027793649718
4051.04,1.043336312169368
4051.94,1.0605808770606324
4052.84,1.067673181856524
4053.74,1.052598895629442
4054.65,1.0355534841184166
4055.55,1.0108897767663927
4056.45,0.9903445475077325
4057.35,0.9731867717196899
4058.25,0.9616511947230088
4059.15,0.9540911450531325
4060.05,0.9525288886614828
4060.95,0.9457311793821568
4061.85,0.9290087963842717
4062.75,0.9067922030389689
4063.65,0.8868756140918204
4064.55,0.8659127265126365
4065.45,0.8685848884231031
4066.35,0.8792477192487207
4067.25,0.9032188238774408
4068.15,0.9324478273188889
4069.05,0.9567878563531994
4069.95,0.9618409066309015
4070.85,0.9642359494287387
4071.75,0.9570742204150213
4072.65,0.9487913550235069
4073.55,0.9498539050531022
4074.45,0.9445620943809138
4075.35,0.9400613409776536
4076.25,0.9370470443066012
4077.15,0.9268709834397515
4078.05,0.9286102501136573
4078.95,0.9404653824387689
4079.85,0.9540917219258048
4080.75,0.9912198607684725
4081.65,1.0209986090985559
4082.55,1.047089533911296
4083.45,1.0578219998740805
4084.35,1.0671778733185955
4085.25,1.0681927346298885
4086.15,1.0822109531757278
4087.05,1.0995300711613951
4087.95,1.1212244091736963
4088.85,1.1449503994181731
4089.75,1.1614366596456127
4090.65,1.162035485898047
4091.55,1.1551028417790965
4092.45,1.1440893655048028
4093.36,1.1213469775199063
4094.26,1.0966378196869964
4095.16,1.0691598464172443
4096.06,1.0461433397527156
4096.96,1.012105737212739
4097.86,0.9815123647850136
4098.76,0.9500480146101331
4099.66,0.9283039204014555
4100.56,0.9006438813268974
4101.46,0.8839365065515359
4102.36,0.8724196329233531
4103.26,0.8830863870083645
4104.16,0.8990587040037734
4105.06,0.9316994056985374
4105.96,0.9686243395226186
4106.86,0.9993611020552406
4107.76,1.0170732459210696
4108.66,1.0332487054751693
4109.56,1.0342419524184208
4110.46,1.027257493429218
4111.36,1.0272283249072764
4112.26,1.030488681221357
4113.16,1.03253251263498
4114.06,1.0509440489199646
4114.96,1.0641027198989517
4115.86,1.0689176431885778
4116.76,1.06871953474217
4117.66,1.0625231222683773
4118.56,1.0575844327822506
4119.46,1.0443578092742782
4120.36,1.035877523126341
4121.26,1.0304734123213832
4122.16,1.0336170802424673
4123.06,1.0337147654773717
4123.96,1.034571810989751
4124.86,1.0455514997735866
4125.76,1.0503268688061596
4126.66,1.045491572465467
4127.56,1.0395187884419619
4128.46,1.0220389185733605
4129.36,1.0034976669313453
4130.26,0.9840049124144095
4131.17,0.9627256021408581
4132.06,0.9387924700638447
4132.97,0.9228608217033164
4133.87,0.9216070917781893
4134.77,0.9294304816273676
4135.67,0.9528687041103294
4136.57,0.9853131565189037
4137.47,1.0139026290187694
4138.37,1.034819966753015
4139.27,1.0469770772876807
4140.17,1.0500203170505056
4141.07,1.0237669137799525
4141.97,0.9961548239365517
4142.87,0.9561958423029074
4143.77,0.9285051802641108
4144.67,0.9156464726733552
4145.57,0.9110271481376648
4146.47,0.9215930746403451
4147.37,0.9411017666257426
4148.27,0.9586471782421964
4149.17,0.9724488976724893
4150.07,0.9730282449620513
4150.97,0.9704586757906496
4151.87,0.9639016248410226
4152.77,0.9592729031670135
4153.67,0.9534485881848849
4154.57,0.9470104262250759
4155.47,0.9463538016219677
4156.37,0.9513950775347362
4157.27,0.9588005753107695
4158.17,0.9761533508692514
4159.07,0.9959995677386213
4159.97,1.0211636007821572
4160.87,1.0454636671665383
4161.77,1.0618288722255216
4162.67,1.0768495769016015
4163.57,1.079001904478271
4164.47,1.075473033959379
4165.37,1.0705859698060671
4166.27,1.059235632718732
4167.17,1.0378575395964622
4168.07,1.0295888848296126
4168.98,1.0170409872941326
4169.88,1.0031665492085449
4170.78,0.9908108353717447
4171.68,0.9763230197111973
4172.58,0.9584488750177657
4173.48,0.9383381881651144
4174.38,0.9241632987740694
4175.28,0.9196533979466106
4176.18,0.9218459232078381
4177.08,0.9339746649057916
4177.98,0.9451995051946614
4178.88,0.9575172745585822
4179.78,0.9635808254316924
4180.68,0.9769620724180299
4181.58,0.9806315765490032
4182.48,0.9871780661946614
4183.38,0.9929913849866445
4184.28,0.9976273675383135
4185.18,1.0005941178293971
4186.08,1.001067447999647
4186.98,0.9968201156679634
4187.88,0.9949253199297831
4188.78,0.9950729781142015
4189.68,0.9993356992635933
4190.58,1.0069023428215513
4191.48,1.021140670029892
4192.38,1.0365947569397396
4193.28,1.0393672956732183
4194.18,1.0428268775306506
4195.08,1.0299116707817966
4195.98,1.0049609527017949
4196.88,0.975898969503265
4197.78,0.9503546099399264
4198.68,0.928854610890258
4199.58,0.9133440528567591
4200.48,0.9094649005723706
4201.38,0.90892757916873
4202.28,0.9243303900843888
4203.18,0.940266769020008
4204.08,0.9655739469432687
4204.98,0.9954166243710332
4205.88,1.0270136099308664
4206.79,1.05267625064657
4207.69,1.0800327560351117
4208.59,1.09762631115232
4209.49,1.102366617584126
4210.39,1.1066828813234275
4211.29,1.1037204425476863
4212.19,1.0997955666423136
4213.09,1.0812415335830423
4213.99,1.0681096457463175
4214.89,1.0541927795032118
4215.79,1.0497823231315484
4216.69,1.0473727587622264
4217.59,1.0636087388721585
4218.49,1.082113869838682
4219.39,1.1084468207184321
4220.29,1.1231672448803594
4221.19,1.1290483731995746
4222.09,1.108175184146117
4222.99,1.0648468564154576
4223.89,1.0061921925133814
4224.79,0.9297458456552335
4225.69,0.8607930762812619
4226.59,0.8124576046331418
4227.49,0.7855499139651624
4228.39,0.7948815479617727
4229.29,0.8372411238095436
4230.19,0.8985340892671825
4231.09,0.957883733419973
4231.99,1.0019090909731594
4232.89,1.036591669287898
4233.79,1.0479813809601108
4234.69,1.0398431428899932
4235.59,1.0311592610979243
4236.49,1.0190850409407208
4237.39,1.0152329122904955
4238.29,1.0200645197383054
4239.19,1.0288568169588537
4240.09,1.0492606573687857
4240.99,1.0754493429055552
4241.89,1.1038868759158447
4242.79,1.1270799155218434
4243.69,1.1504610792552494
4244.59,1.1693593663068838
4245.5,1.1747694146837713
4246.4,1.161383402363662
4247.3,1.1384401437329268
4248.2,1.1087174298825793
4249.1,1.0695512152348945
4250.0,1.0349532965999442
4250.9,1.0078561350119006
4251.8,0.9893145401777304
4252.7,0.9841210091902589
4253.6,0.9873526813759045
4254.5,0.9930215442888901
4255.4,1.002206687630203
4256.3,1.0143827174465911
4257.2,1.0228296539152313
4258.1,1.0221347199546453
4259.0,1.0191977226311224
4259.9,1.0087428612806362
4260.8,1.0068335083169346
4261.7,1.0134974387139337
4262.6,1.040298774701862
4263.5,1.0740161152510488
4264.4,1.109272506691509
4265.3,1.1379856584600239
4266.2,1.1533680463032652
4267.1,1.1505174373211653
4268.0,1.129475308946197
4268.9,1.0829864642372624
4269.8,1.0316676827578748
4270.7,0.9703773935833496
4271.6,0.9201770731373444
4272.5,0.8719121596127618
4273.4,0.8469480609037621
4274.3,0.8486010473395419
4275.2,0.8695684699571056
4276.1,0.9133397684458846
4277.0,0.9542277538369914
4277.9,0.9929215424163502
4278.8,1.0363619816191614
4279.7,1.052788625780858
4280.6,1.0651454860962175
4281.5,1.0633928215231883
4282.4,1.0554859840097557
4283.31,1.048582108061414
4284.21,1.038252624146367
4285.11,1.0251314710077992
4286.01,1.0199250550172443
4286.91,0.9927114573198283
4287.81,0.9719891715302355
4288.71,0.9479125585022642
4289.61,0.9284889242151064
4290.51,0.9148048497683086
4291.41,0.913516659987591
4292.31,0.9170521109089804
4293.21,0.9274927583933241
4294.11,0.9384182194104677
4295.01,0.947732697154811
4295.91,0.939928455612729
4296.81,0.9191184038430719
4297.71,0.8873523129381252
4298.61,0.8504460720479395
4299.51,0.8068895261415681
4300.41,0.7671344257192659
4301.31,0.7383463447704776
4302.21,0.7223376125435544
4303.11,0.7163585108131657
4304.01,0.7092517377088614
4304.91,0.707932913203497
4305.81,0.693518383277134
4306.71,0.6865697429135631
4307.61,0.671610001246555
4308.51,0.6657776602596128
4309.41,0.6632551404479403
4310.31,0.6814740403653508
4311.21,0.7106159579600778
4312.11,0.7565581168181589
4313.01,0.8162467712822686
4313.91,0.8896855563903208
4314.81,0.9605430885561591
4315.71,1.0430335183920607
4316.61,1.1159260538903903
4317.51,1.1754330903442536
4318.41,1.211850665511372
4319.31,1.2318430188273215
4320.21,1.230872171410518
4321.12,1.198884252344984
4322.02,1.1530078401466248
4322.92,1.0884940539050891
4323.82,1.0333234716054573
4324.72,0.9758776558207404
4325.62,0.9371912056527869
4326.52,0.9194208070038824
4327.42,0.9420765155200536
4328.32,0.9802883485197285
4329.22,1.0380296098935582
4330.12,1.0915457973030265
4331.02,1.1353324474893036
4331.92,1.171844534739799
4332.82,1.1897830216842131
4333.72,1.2055537758774093
4334.62,1.203671735099898
4335.52,1.1855164863001277
4336.42,1.1555517809858686
4337.32,1.1147280378379185
4338.22,1.0566403624778442
4339.12,1.0060687633519105
4340.02,0.9643937896307248
4340.92,0.944238543804916
4341.82,0.9419473666680456
4342.72,0.9625297070166046
4343.62,0.993124131418389
4344.52,1.0279648827903891
4345.42,1.066413560250962
4346.32,1.101891560021035
4347.22,1.122389521147933
4348.12,1.136763409682144
4349.02,1.1427041562362428
4349.92,1.129455670921809
4350.82,1.1082808549403271
4351.72,1.079703482013898
4352.62,1.054311403032652
4353.52,1.0406903152102664
4354.42,1.0350203504158366
4355.32,1.0375503680904075
4356.22,1.0534338691490892
4357.12,1.0716593699059391
4358.02,1.0901076813515773
4358.92,1.098730102154694
