wave,flux
3700.85,-8.24728472316675e-05
3701.75,-8.19412228432369e-05
3702.65,-7.984071080238111e-05
3703.55,-7.645799841802614e-05
3704.45,-7.279957752160696e-05
3705.35,-6.93788451092461e-05
3706.25,-6.759547453587112e-05
3707.15,-6.68041023846886e-05
3708.05,-6.727777389758882e-05
3708.96,-6.8826340986308e-05
3709.86,-7.115470227312717e-05
3710.76,-7.348747033580311e-05
3711.66,-7.707247935386965e-05
3712.56,-8.052222545149711e-05
3713.46,-8.490290384143448e-05
3714.36,-8.80807016380926e-05
3715.26,-9.069367719499136e-05
3716.16,-9.164437400896009e-05
3717.06,-9.058757191385746e-05
3717.96,-8.759607417646165e-05
3718.86,-8.329248452351457e-05
3719.76,-7.788313822941726e-05
3720.66,-7.2449846766903e-05
3721.56,-6.930458023958579e-05
3722.46,-6.85644540704549e-05
3723.36,-7.094277463748042e-05
3724.26,-7.53661995209556e-05
3725.16,-8.044642981360025e-05
3726.06,-8.48419029362269e-05
3726.96,-8.74566079792361e-05
3727.86,-8.903792761776776e-05
3728.76,-8.986913726812727e-05
3729.66,-8.936646835595304e-05
3730.56,-8.82815572839383e-05
3731.46,-8.59889748558775e-05
3732.36,-8.161351479202168e-05
3733.26,-7.645727974738277e-05
3734.16,-7.107611348685702e-05
3735.06,-6.680893479170964e-05
3735.96,-6.480928026818417e-05
3736.86,-6.622405160076577e-05
3737.76,-7.034160776195128e-05
3738.66,-7.685177001109777e-05
3739.56,-8.364306831886177e-05
3740.46,-8.957427665404495e-05
3741.36,-9.383746047876198e-05
3742.26,-9.543950507194787e-05
3743.16,-9.424701058603534e-05
3744.06,-9.203724636699739e-05
3744.96,-8.903382822463209e-05
3745.86,-8.45771360797272e-05
3746.76,-8.032507033096294e-05
3747.67,-7.677610619796645e-05
3748.57,-7.37096396930088e-05
3749.47,-7.242259854835464e-05
3750.37,-7.344073945172576e-05
3751.27,-7.723031822896238e-05
3752.17,-8.442920357844998e-05
3753.07,-9.279903159996711e-05
3753.97,-0.00010073867245249753
3754.87,-0.00010715266344412149
3755.77,-0.0001107518640423626
3756.67,-0.00011125927869282725
3757.57,-0.00010911261615913526
3758.47,-0.00010597080631024857
3759.37,-0.00010343141318703371
3760.27,-0.00010221814176989892
3761.17,-0.0001036449538938937
3762.07,-0.00010527313498781095
3762.97,-0.00010783099508494683
3763.87,-0.00011005414290338971
3764.77,-0.00011112300739352309
3765.67,-0.00011159828188447993
3766.57,-0.00011087719457865102
3767.47,-0.00010983302905321753
3768.37,-0.00010809271439938669
3769.27,-0.00010785365896191677
3770.17,-0.00010770561483641198
3771.07,-0.00010872339067398474
3771.97,-0.0001118404717377928
3772.87,-0.00011534086401447275
3773.77,-0.00011998369018917867
3774.67,-0.00012487538838531698
3775.57,-0.00012882510809628637
3776.47,-0.0001326265083323622
3777.37,-0.00013602685870960825
3778.27,-0.00013920191673943476
3779.17,-0.0001430009977406586
3780.07,-0.00014662696383790225
3780.97,-0.00015002575616351993
3781.87,-0.00015343105877988744
3782.77,-0.0001555006114335724
3783.67,-0.00015621963641753028
3784.57,-0.0001550450731736029
3785.47,-0.00015211744229982335
3786.38,-0.00014736505062868118
3787.28,-0.00014406702650039436
3788.18,-0.00013961864322138722
3789.08,-0.000137128237658886
3789.98,-0.0001357186265090698
3790.88,-0.00013465617938444264
3791.78,-0.00013438178131161026
3792.68,-0.0001334312307405498
3793.58,-0.00013081095216518234
3794.48,-0.0001281044307966458
3795.38,-0.00012413657831283374
3796.28,-0.00011949505537801117
3797.18,-0.000115369882386497
3798.08,-0.000113632818842378
3798.98,-0.00011453512695587936
3799.88,-0.00011767685231328014
3800.78,-0.00012510154356264657
3801.68,-0.00013529149016966013
3802.58,-0.00014503630250901838
3803.48,-0.00015329348349528836
3804.38,-0.00016080762208263915
3805.28,-0.00016510654694273184
3806.18,-0.00016794459935838625
3807.08,-0.00016864299759233132
3807.98,-0.00017006314435954293
3808.88,-0.00017227680370135998
3809.78,-0.00017457811132898915
3810.68,-0.00017744740568290788
3811.58,-0.00017725456522159442
3812.48,-0.00017510292340918422
3813.38,-0.00017069040019619103
3814.28,-0.00016601620330785512
3815.18,-0.00016064682469309487
3816.08,-0.00015851380052780094
3816.98,-0.0001586987976049758
3817.88,-0.0001584690312847375
3818.78,-0.00015892719742476355
3819.68,-0.0001582789466707469
3820.58,-0.00015691775266806399
3821.48,-0.0001562922268353568
3822.38,-0.0001546609382108091
3823.28,-0.00015350820443083314
3824.18,-0.00015159700345187922
3825.09,-0.00014865046612070153
3825.99,-0.00014459186142063167
3826.89,-0.0001411976210652168
3827.79,-0.00013936370443577503
3828.69,-0.00013820091307157793
3829.59,-0.0001369707579231699
3830.49,-0.00013560371610768393
3831.39,-0.00013258193545582443
3832.29,-0.000128380592814341
3833.19,-0.00012377284868853698
3834.09,-0.00011940017576169806
3834.99,-0.00011674560726748567
3835.89,-0.00011615642126970604
3836.79,-0.00011616289990166995
3837.69,-0.00011861827249698397
3838.59,-0.000123401032391315
3839.49,-0.00012815198401764622
3840.39,-0.00013549926290947815
3841.29,-0.00014611663895988094
3842.19,-0.00015710527120153936
3843.09,-0.00016870170919510222
3843.99,-0.00017969693782722118
3844.89,-0.0001897060346366406
3845.79,-0.00019779968145472375
3846.69,-0.0002032455779145629
3847.59,-0.00020700682822002043
3848.49,-0.00021051768404098186
3849.39,-0.0002114953128842763
3850.29,-0.00021308726453869966
3851.19,-0.00021458441004009777
3852.09,-0.00021633695509868414
3852.99,-0.00021895849390842376
3853.89,-0.0002196464612519646
3854.79,-0.00021895470196002962
3855.69,-0.00021667014789939176
3856.59,-0.00021351996417237363
3857.49,-0.00020952014228275018
3858.39,-0.00020558157777384213
3859.29,-0.000203719125479922
3860.19,-0.00020423530483416975
3861.09,-0.00020698431911249284
3861.99,-0.00021423847968958566
3862.9,-0.00022393439133384121
3863.8,-0.0002305666209328564
3864.7,-0.00023782777726301878
3865.6,-0.00024150760658424777
3866.5,-0.00024366165957372818
3867.4,-0.00024528515767896687
3868.3,-0.0002446498742499789
3869.2,-0.0002418478426032953
3870.1,-0.00023904018217206103
3871.0,-0.00023446761316960225
3871.9,-0.00023055543641161127
3872.8,-0.00022774904528166814
3873.7,-0.00022755521551608206
3874.6,-0.00023062617902510726
3875.5,-0.00023386154337214147
3876.4,-0.0002362968564614791
3877.3,-0.00023714016158116354
3878.2,-0.0002358232131030591
3879.1,-0.00023550301589647475
3880.0,-0.00023498636183979786
3880.9,-0.0002354521699958761
3881.8,-0.00023615217936992497
3882.7,-0.00023556307798055923
3883.6,-0.00023516302092611193
3884.5,-0.00023119490367202138
3885.4,-0.00022542811401269464
3886.3,-0.00021844981368776735
3887.2,-0.00021011777842680832
3888.1,-0.00020384028498262813
3889.0,-0.00020185962611014654
3889.9,-0.00020498201381332872
3890.8,-0.00021138855330659782
3891.7,-0.00022305435605535166
3892.6,-0.00023556784046978107
3893.5,-0.0002473191482182739
3894.4,-0.0002565206596327254
3895.3,-0.00026478235318920724
3896.2,-0.0002708739356886348
3897.1,-0.0002780021957412391
3898.0,-0.00028177162031523147
3898.9,-0.00028678503008473143
3899.8,-0.0002927732554611151
3900.7,-0.00029430577303862115
3901.6,-0.0002982530330285706
3902.51,-0.0002983994779975749
3903.41,-0.000300128390938831
3904.31,-0.00029840092538652646
3905.21,-0.00029940765369117944
3906.11,-0.00029996338128318334
3907.01,-0.00030468261294749985
3907.91,-0.00031127202368486204
3908.81,-0.00032155649969939777
3909.71,-0.00033216389882588493
3910.61,-0.0003431273794674052
3911.51,-0.0003523004161297228
3912.41,-0.0003559090119215093
3913.31,-0.00036067441243220716
3914.21,-0.00035974165952794057
3915.11,-0.0003588163334116186
3916.01,-0.0003555651467689145
3916.91,-0.00035250099329654045
3917.81,-0.00034909291013082716
3918.71,-0.0003445284215370373
3919.61,-0.00033853184598344664
3920.51,-0.0003336630367474162
3921.41,-0.0003295169045945412
3922.31,-0.0003286919370004143
3923.21,-0.00032710858605478294
3924.11,-0.00032342220920510584
3925.01,-0.0003208031070701106
3925.91,-0.00031280138286778644
3926.81,-0.00030021910008849213
3927.71,-0.00028075562480207097
3928.61,-0.00025883353263905356
3929.51,-0.00023243728821756282
3930.41,-0.00020650757887944647
3931.31,-0.00018029220780466096
3932.21,-0.00015672506943358386
3933.11,-0.0001375043491546194
3934.01,-0.0001269818967994339
3934.91,-0.00012627105863555275
3935.81,-0.00013536777210543965
3936.71,-0.00015431821749409952
3937.61,-0.00017966132343906377
3938.51,-0.0002092609805015285
3939.42,-0.0002403428445557796
3940.32,-0.00026876277674951223
3941.22,-0.0002937032219347356
3942.12,-0.0003135451244384615
3943.02,-0.00032996665079150847
3943.92,-0.00034163189185094467
3944.82,-0.0003558275747485379
3945.72,-0.00037048908377927805
3946.62,-0.00038278154417408075
3947.52,-0.0003977275951822654
3948.42,-0.0004086377739013589
3949.32,-0.00041906395849914253
3950.22,-0.000427595547279862
3951.12,-0.0004365147881535885
3952.02,-0.00044325336992967734
3952.92,-0.00044850250478630714
3953.82,-0.00045225309763570736
3954.72,-0.00045607330869429016
3955.62,-0.0004575933693707617
3956.52,-0.00045769390748811857
3957.42,-0.0004561550901450862
3958.32,-0.0004523040427645621
3959.22,-0.00044772453234738393
3960.12,-0.0004369227603052147
3961.02,-0.0004240290260206782
3961.92,-0.0004007026003120802
3962.82,-0.0003776360530361041
3963.72,-0.0003514417700282553
3964.62,-0.00032137262965192695
3965.52,-0.0002899164672187511
3966.42,-0.000257709201930623
3967.32,-0.00022681132452832115
3968.22,-0.00020217342392637026
3969.12,-0.0001860127063236927
3970.02,-0.0001837003496369732
3970.92,-0.00019520830529806785
3971.82,-0.00021915894558739168
3972.72,-0.000251553117939444
3973.62,-0.0002907057467704847
3974.52,-0.0003319075550006634
3975.42,-0.0003722795923272902
3976.32,-0.0004120225839901422
3977.22,-0.0004457969209800846
3978.13,-0.0004799928373931576
3979.03,-0.0005083724345759311
3979.93,-0.000532798110571635
3980.83,-0.0005494390201727123
3981.73,-0.0005670271107326477
3982.63,-0.0005760651487171265
3983.53,-0.0005873307006494569
3984.43,-0.0005916275621942839
3985.33,-0.0005999729607908025
3986.23,-0.0006111205589821233
3987.13,-0.0006246474228040665
3988.03,-0.0006337075892581578
3988.93,-0.0006471710191328085
3989.83,-0.0006571978541924086
3990.73,-0.0006673787224088123
3991.63,-0.0006766849933422912
3992.53,-0.0006842099481738674
3993.43,-0.0006915837664416069
3994.33,-0.0006976523329883554
3995.23,-0.0006944860469316529
3996.13,-0.0006937121390779803
3997.03,-0.000689717131348412
3997.93,-0.0006909578793741674
3998.83,-0.0006977939549348995
3999.73,-0.0007109309187270682
4000.63,-0.0007296265492695636
4001.53,-0.0007385870507494038
4002.43,-0.0007525650836164867
4003.33,-0.0007572311396996349
4004.23,-0.0007529671199538039
4005.13,-0.0007491612644342064
4006.03,-0.0007447084523248943
4006.93,-0.0007452056683935511
4007.83,-0.0007555689312473404
4008.73,-0.000764238285117506
4009.63,-0.0007827848278778762
4010.53,-0.0007999163414427311
4011.43,-0.0008120424921648989
4012.33,-0.0008260327429963036
4013.23,-0.0008362249805793279
4014.13,-0.0008458862450964111
4015.03,-0.0008498423008080785
4015.93,-0.0008595997570099436
4016.84,-0.0008658434454133887
4017.74,-0.0008720152609814143
4018.64,-0.0008763902998020102
4019.54,-0.0008860952758822404
4020.44,-0.0008963479819717809
4021.34,-0.0008983830671004828
4022.24,-0.0009087252368596691
4023.14,-0.0009096639814906311
4024.04,-0.0009178279483445236
4024.94,-0.000924289076475025
4025.84,-0.0009331234120938223
4026.74,-0.0009445353882544176
4027.64,-0.0009541241049682592
4028.54,-0.0009609240647397836
4029.44,-0.000956502361978078
4030.34,-0.0009462455762624183
4031.24,-0.0009293198595350417
4032.14,-0.0009129549828544243
4033.04,-0.0009070558971069101
4033.94,-0.0009160299832578927
4034.84,-0.0009279054959350029
4035.74,-0.0009528643307397506
4036.64,-0.0009874643751757437
4037.54,-0.0010154796431843997
4038.44,-0.0010447619755825702
4039.34,-0.0010594935732862168
4040.24,-0.0010726380785936315
4041.14,-0.0010734830343348118
4042.04,-0.0010643253160885163
4042.94,-0.0010526176031405879
4043.84,-0.0010326824208258237
4044.74,-0.0010100200632835452
4045.64,-0.0009932963740847062
4046.54,-0.0009916679932406023
4047.44,-0.0010044123365306847
4048.34,-0.001025964708967026
4049.24,-0.0010643774455945444
4050.14,-0.0010986495129047067
4051.04,-0.0011271412709878542
4051.94,-0.0011357916613341295
4052.84,-0.001143863463693902
4053.74,-0.0011467885501611431
4054.65,-0.0011412821160456724
4055.55,-0.0011363109677610698
4056.45,-0.0011328027533825222
4057.35,-0.0011338828659132477
4058.25,-0.0011451186935588476
4059.15,-0.0011532858458823789
4060.05,-0.0011562143152723803
4060.95,-0.0011740596502619865
4061.85,-0.0011714539917492286
4062.75,-0.0011628955264023784
4063.65,-0.0011554621350188684
4064.55,-0.001148675466661837
4065.45,-0.001154238425753733
4066.35,-0.00117058099506347
4067.25,-0.0011898833887217552
4068.15,-0.0012206915937006554
4069.05,-0.001241554570137712
4069.95,-0.0012616523924843498
4070.85,-0.0012739739532845896
4071.75,-0.0012794620414782727
4072.65,-0.0012784633034469935
4073.55,-0.0012792838367874269
4074.45,-0.0012840420803323733
4075.35,-0.0012775670506569698
4076.25,-0.001262236515908885
4077.15,-0.0012598897147337311
4078.05,-0.0012562485586204005
4078.95,-0.0012659881292934405
4079.85,-0.0012867503761200736
4080.75,-0.0013246541039403233
4081.65,-0.0013653795130918643
4082.55,-0.0013928030615261947
4083.45,-0.0014186642257456937
4084.35,-0.0014329162718797073
4085.25,-0.0014514893852123987
4086.15,-0.0014718984120819928
4087.05,-0.0014976215639241764
4087.95,-0.0015352989825992913
4088.85,-0.0015628746329140542
4089.75,-0.0015889929106934506
4090.65,-0.0015999213186893412
4091.55,-0.001610420129938468
4092.45,-0.0016106441393665487
4093.36,-0.0016027003101366946
4094.26,-0.0015927554659612292
4095.16,-0.0015745715206575426
4096.06,-0.0015463671368487301
4096.96,-0.0015151020482639034
4097.86,-0.0014774557770975388
4098.76,-0.0014411725253889224
4099.66,-0.0013878302807659427
4100.56,-0.0013443121517693884
4101.46,-0.0013077636201168222
4102.36,-0.0012896561015485915
4103.26,-0.0012961201615340763
4104.16,-0.0013359140566438998
4105.06,-0.001394401876642961
4105.96,-0.0014751128418702953
4106.86,-0.0015435087963970424
4107.76,-0.0016087747958368735
4108.66,-0.0016506448294395899
4109.56,-0.0016831516004978246
4110.46,-0.0017182795844047536
4111.36,-0.0017454328695961007
4112.26,-0.0017699789404943273
4113.16,-0.0018070827326462147
4114.06,-0.0018417418391465043
4114.96,-0.0018817469030024572
4115.86,-0.0019096412958975225
4116.76,-0.0019292622847171628
4117.66,-0.0019287086157646403
4118.56,-0.0019453121573175295
4119.46,-0.001934288157676362
4120.36,-0.0019423433426897386
4121.26,-0.001955673413709633
4122.16,-0.0019517389936048641
4123.06,-0.001983453717460243
4123.96,-0.0020089107747817236
4124.86,-0.002030465751422565
4125.76,-0.002045988006304346
4126.66,-0.0020688415365276006
4127.56,-0.0020714335654024446
4128.46,-0.002077722971992223
4129.36,-0.0020726569296720845
4130.26,-0.0020600756683475697
4131.17,-0.002050720894151653
4132.06,-0.0020541863441012093
4132.97,-0.0020544112246487617
4133.87,-0.002076771350962838
4134.77,-0.0020958512938579477
4135.67,-0.0021420657945634895
4136.57,-0.00219437851657964
4137.47,-0.0022608648022666095
4138.37,-0.0023132207218522025
4139.27,-0.0023534000285378898
4140.17,-0.002371079012508597
4141.07,-0.002368986181610663
4141.97,-0.002348694161428591
4142.87,-0.002329469352282313
4143.77,-0.002291669633934538
4144.67,-0.002289398357343013
4145.57,-0.0023087947759268673
4146.47,-0.002346071266797429
4147.37,-0.002395364251806627
4148.27,-0.002445457211828965
4149.17,-0.002485283741988811
4150.07,-0.0024971912769464048
4150.97,-0.002512095602914559
4151.87,-0.00252608903021623
4152.77,-0.002531478160724397
4153.67,-0.002542578228328518
4154.57,-0.0025364994451391384
4155.47,-0.0025498222855147063
4156.37,-0.0025714838925725778
4157.27,-0.0026001703120341006
4158.17,-0.002654783203698915
4159.07,-0.0026911323719032198
4159.97,-0.002754192451596186
4160.87,-0.002805214778482481
4161.77,-0.0028547712701756096
4162.67,-0.0028928029965476455
4163.57,-0.0029315603445058906
4164.47,-0.0029637071673066706
4165.37,-0.002972564217953721
4166.27,-0.0029883913134924065
4167.17,-0.0029925478070528936
4168.07,-0.002975137197863451
4168.98,-0.0029716600157250373
4169.88,-0.0029534960269442046
4170.78,-0.0029457367345307513
4171.68,-0.00292356202374748
4172.58,-0.0029011871295243517
4173.48,-0.002873824173451412
4174.38,-0.002876368316525123
4175.28,-0.0028955640098855743
4176.18,-0.002940671630256469
4177.08,-0.002974881767719555
4177.98,-0.003033635013778197
4178.88,-0.003078851826904739
4179.78,-0.0031490597321322646
4180.68,-0.003185066342984691
4181.58,-0.0032309919495032654
4182.48,-0.0032595104467332877
4183.38,-0.0032984214411339863
4184.28,-0.0033282580996205195
4185.18,-0.003351506791429328
4186.08,-0.0033602666827580075
4186.98,-0.0033933044979664946
4187.88,-0.0034101535099913226
4188.78,-0.0034430576753720485
4189.68,-0.0034783023645113065
4190.58,-0.003521744045823471
4191.48,-0.0035773975789019433
4192.38,-0.003642302828136383
4193.28,-0.003688037899836193
4194.18,-0.0037223234015570173
4195.08,-0.0037448742010965626
4195.98,-0.00373016155000289
4196.88,-0.0036965756539275064
4197.78,-0.0036600856764259725
4198.68,-0.0036540031496063263
4199.58,-0.0036424780900886564
4200.48,-0.0036378091265917008
4201.38,-0.0036744990825299554
4202.28,-0.0037117155867779795
4203.18,-0.0037537125064380315
4204.08,-0.0038363209338264396
4204.98,-0.0038993027367952866
4205.88,-0.004000362950567813
4206.79,-0.004090625423523381
4207.69,-0.004195879263262575
4208.59,-0.0042736427728218545
4209.49,-0.0043105667331873425
4210.39,-0.0043795993782040615
4211.29,-0.0044343806586858965
4212.19,-0.004454229411896175
4213.09,-0.004464851526040972
4213.99,-0.004473485355661413
4214.89,-0.004475649452277076
4215.79,-0.004473564817806375
4216.69,-0.00448710138573356
4217.59,-0.004540279542990653
4218.49,-0.004632873955517651
4219.39,-0.00470396120117173
4220.29,-0.004792584258294691
4221.19,-0.004840448690446121
4222.09,-0.004830401283339892
4222.99,-0.004780875672298914
4223.89,-0.00469729848470983
4224.79,-0.004541240771608628
4225.69,-0.004407570535109925
4226.59,-0.004293758105194028
4227.49,-0.004285222850473366
4228.39,-0.004358371619910827
4229.29,-0.004527967269283074
4230.19,-0.00472336388752695
4231.09,-0.004920617389712993
4231.99,-0.005098768363266877
4232.89,-0.005202400223463009
4233.79,-0.005284926017317891
4234.69,-0.005293148245194569
4235.59,-0.005285040886410967
4236.49,-0.005280624105109309
4237.39,-0.005299337536578645
4238.29,-0.0053484084115836515
4239.19,-0.005420083869158372
4240.09,-0.005508765093500203
4240.99,-0.005616393694771114
4241.89,-0.005728208715457477
4242.79,-0.00585679079779549
4243.69,-0.005951388903147539
4244.59,-0.006007768054189908
4245.5,-0.0060580383685561075
4246.4,-0.0060684185876891195
4247.3,-0.006059723807575987
4248.2,-0.006038134121181509
4249.1,-0.006016181348976105
4250.0,-0.006001073857191809
4250.9,-0.006015239287324947
4251.8,-0.006098248727577696
4252.7,-0.006154407177539849
4253.6,-0.0062796611945439675
4254.5,-0.006337833454702507
4255.4,-0.0064294201936751635
4256.3,-0.00649131607995703
4257.2,-0.006581520632880271
4258.1,-0.006616022288836854
4259.0,-0.006614694277668673
4259.9,-0.006653313844243884
4260.8,-0.00667270886355799
4261.7,-0.00675787433255423
4262.6,-0.006881195290851655
4263.5,-0.0070566260738993015
4264.4,-0.007243054230323406
4265.3,-0.007430204003418556
4266.2,-0.007547481895705708
4267.1,-0.007612226757765663
4268.0,-0.007601828320348076
4268.9,-0.007528885777893408
4269.8,-0.007396964792890168
4270.7,-0.007264655109144297
4271.6,-0.007126363522195252
4272.5,-0.007064092005049802
4273.4,-0.0070430583210778185
4274.3,-0.0071220926486546725
4275.2,-0.007271404013849012
4276.1,-0.007473952323455768
4277.0,-0.007730905435629118
4277.9,-0.007974104661837445
4278.8,-0.008142739302088354
4279.7,-0.008310315157762458
4280.6,-0.00839067211799021
4281.5,-0.008413802988000239
4282.4,-0.008464664620737887
