wave,flux
3700.85,-5.382803143674172e-07
3701.75,-5.316010324764575e-07
3702.65,-5.12972663671782e-07
3703.55,-4.915607943312505e-07
3704.45,-4.6374807376605634e-07
3705.35,-4.3823885657588284e-07
3706.25,-4.1999376968695405e-07
3707.15,-4.11145113326588e-07
3708.05,-4.104091740004158e-07
3708.96,-4.198331865026331e-07
3709.86,-4.319734183317162e-07
3710.76,-4.5078691993225634e-07
3711.66,-4.776411877024326e-07
3712.56,-5.012177628772939e-07
3713.46,-5.238343012322359e-07
3714.36,-5.44075611098786e-07
3715.26,-5.55139742195181e-07
3716.16,-5.551306211627252e-07
3717.06,-5.392670657462099e-07
3717.96,-5.161039792609121e-07
3718.86,-4.807245193317825e-07
3719.76,-4.4136960248445486e-07
3720.66,-4.089138653444099e-07
3721.56,-3.872261544922797e-07
3722.46,-3.848788325358362e-07
3723.36,-3.989674169912599e-07
3724.26,-4.239771730010889e-07
3725.16,-4.523241886492361e-07
3726.06,-4.764113417238217e-07
3726.96,-4.916918458555425e-07
3727.86,-4.989641195991668e-07
3728.76,-4.997782242965454e-07
3729.66,-4.952271606622003e-07
3730.56,-4.85065075583438e-07
3731.46,-4.688135407522297e-07
3732.36,-4.423976002395795e-07
3733.26,-4.133065394562396e-07
3734.16,-3.7720709917494104e-07
3735.06,-3.5221454030085526e-07
3735.96,-3.3865657461629863e-07
3736.86,-3.4305415334718104e-07
3737.76,-3.6178062016062733e-07
3738.66,-3.926339091801224e-07
3739.56,-4.2763447460541283e-07
3740.46,-4.608129133322677e-07
3741.36,-4.81156781953418e-07
3742.26,-4.874886744206797e-07
3743.16,-4.793443540229632e-07
3744.06,-4.6262115911655615e-07
3744.96,-4.406637141857495e-07
3745.86,-4.1374477567156733e-07
3746.76,-3.9217900681240423e-07
3747.67,-3.7222640308467976e-07
3748.57,-3.595542970117003e-07
3749.47,-3.5529959196225797e-07
3750.37,-3.6377258348960996e-07
3751.27,-3.8921389114266863e-07
3752.17,-4.2479554903333566e-07
3753.07,-4.648440418748885e-07
3753.97,-5.030968096415084e-07
3754.87,-5.304892732668921e-07
3755.77,-5.423585790512729e-07
3756.67,-5.39328200685981e-07
3757.57,-5.215483002890402e-07
3758.47,-5.015464449079858e-07
3759.37,-4.867017902049159e-07
3760.27,-4.794603616888484e-07
3761.17,-4.821337466527254e-07
3762.07,-4.912133572443928e-07
3762.97,-4.965314174323868e-07
3763.87,-5.053046254322576e-07
3764.77,-5.097341123833359e-07
3765.67,-5.091848670927069e-07
3766.57,-5.106498485306449e-07
3767.47,-5.082745813793248e-07
3768.37,-5.074331300347595e-07
3769.27,-5.083221067289261e-07
3770.17,-5.108980167425739e-07
3771.07,-5.186843625505731e-07
3771.97,-5.310679653309092e-07
3772.87,-5.482543780872108e-07
3773.77,-5.661963943520241e-07
3774.67,-5.81993311025447e-07
3775.57,-5.926371389542499e-07
3776.47,-6.012642005905722e-07
3777.37,-6.123318784600746e-07
3778.27,-6.211856704146434e-07
3779.17,-6.321932700357808e-07
3780.07,-6.44436312750648e-07
3780.97,-6.569444326578515e-07
3781.87,-6.674768328392542e-07
3782.77,-6.72614111291083e-07
3783.67,-6.687292820650428e-07
3784.57,-6.588272510053371e-07
3785.47,-6.441632526732604e-07
3786.38,-6.217448171688007e-07
3787.28,-6.009938110369117e-07
3788.18,-5.769194921645498e-07
3789.08,-5.643354202761012e-07
3789.98,-5.553144257535893e-07
3790.88,-5.509970884439317e-07
3791.78,-5.506579534721538e-07
3792.68,-5.470175243147652e-07
3793.58,-5.402640684775596e-07
3794.48,-5.257011234534897e-07
3795.38,-5.098273150359703e-07
3796.28,-4.911065717451249e-07
3797.18,-4.770474631398525e-07
3798.08,-4.6737541704803094e-07
3798.98,-4.702320333135198e-07
3799.88,-4.834086851594083e-07
3800.78,-5.102159618974321e-07
3801.68,-5.431852614158136e-07
3802.58,-5.797462213445342e-07
3803.48,-6.098995668112308e-07
3804.38,-6.322821175719938e-07
3805.28,-6.443285142763369e-07
3806.18,-6.498553339295819e-07
3807.08,-6.443469494394422e-07
3807.98,-6.45280975167992e-07
3808.88,-6.48218965286268e-07
3809.78,-6.541686180836179e-07
3810.68,-6.552633234805193e-07
3811.58,-6.49782945352372e-07
3812.48,-6.404230340748854e-07
3813.38,-6.150520549644586e-07
3814.28,-5.911951661949539e-07
3815.18,-5.689069253196011e-07
3816.08,-5.508140944581602e-07
3816.98,-5.440454584253869e-07
3817.88,-5.368599880129177e-07
3818.78,-5.344146123469974e-07
3819.68,-5.268523246639903e-07
3820.58,-5.19377271155128e-07
3821.48,-5.113305120271151e-07
3822.38,-5.057810717775457e-07
3823.28,-4.993627010136606e-07
3824.18,-4.898663432967038e-07
3825.09,-4.760161264610418e-07
3825.99,-4.601182662574465e-07
3826.89,-4.4656196665250276e-07
3827.79,-4.384665650217339e-07
3828.69,-4.360053421919834e-07
3829.59,-4.35057745866218e-07
3830.49,-4.3024473982545654e-07
3831.39,-4.215096680004798e-07
3832.29,-4.122252543014146e-07
3833.19,-3.97900314068903e-07
3834.09,-3.876678764942359e-07
3834.99,-3.793801749641526e-07
3835.89,-3.764692058470488e-07
3836.79,-3.781257233907728e-07
3837.69,-3.8447047645254067e-07
3838.59,-3.9187388214280534e-07
3839.49,-4.0341136443249895e-07
3840.39,-4.2031919625755545e-07
3841.29,-4.472784334358072e-07
3842.19,-4.796666547288748e-07
3843.09,-5.185404261595482e-07
3843.99,-5.521105994560202e-07
3844.89,-5.82522554087955e-07
3845.79,-6.056619131057842e-07
3846.69,-6.201041966274143e-07
3847.59,-6.265023588058591e-07
3848.49,-6.277005199227966e-07
3849.39,-6.254578625409464e-07
3850.29,-6.245158999539649e-07
3851.19,-6.261323524649173e-07
3852.09,-6.266529724425278e-07
3852.99,-6.272264869959433e-07
3853.89,-6.27538642441626e-07
3854.79,-6.184103791780757e-07
3855.69,-6.037529383929826e-07
3856.59,-5.922734115402855e-07
3857.49,-5.733569959994996e-07
3858.39,-5.547740060438074e-07
3859.29,-5.432168154319672e-07
3860.19,-5.387047818821438e-07
3861.09,-5.47802645350677e-07
3861.99,-5.6743068652376e-07
3862.9,-5.918597700784384e-07
3863.8,-6.178095776473769e-07
3864.7,-6.359656547249242e-07
3865.6,-6.451398735664573e-07
3866.5,-6.493412989520591e-07
3867.4,-6.472812036927943e-07
3868.3,-6.389955038492679e-07
3869.2,-6.321844037567266e-07
3870.1,-6.169433864077892e-07
3871.0,-6.001809551051869e-07
3871.9,-5.873366839779112e-07
3872.8,-5.785282496551976e-07
3873.7,-5.763332812626759e-07
3874.6,-5.830177694578169e-07
3875.5,-5.950708278599013e-07
3876.4,-6.005509296459159e-07
3877.3,-5.985812640594971e-07
3878.2,-5.959630001924517e-07
3879.1,-5.90705082969555e-07
3880.0,-5.840917508402212e-07
3880.9,-5.851682636875984e-07
3881.8,-5.869472364756702e-07
3882.7,-5.841422996441502e-07
3883.6,-5.838703703971584e-07
3884.5,-5.761370177543181e-07
3885.4,-5.673067859348235e-07
3886.3,-5.488191294913166e-07
3887.2,-5.313974912564213e-07
3888.1,-5.197547574737911e-07
3889.0,-5.155200107564855e-07
3889.9,-5.24601151999419e-07
3890.8,-5.421760792231222e-07
3891.7,-5.692921834856082e-07
3892.6,-5.964198390080096e-07
3893.5,-6.207599566073767e-07
3894.4,-6.355873457080477e-07
3895.3,-6.482551737699683e-07
3896.2,-6.563500056328658e-07
3897.1,-6.621044870635844e-07
3898.0,-6.672662002258667e-07
3898.9,-6.711202323172092e-07
3899.8,-6.790996968665817e-07
3900.7,-6.768695221046327e-07
3901.6,-6.801916170615747e-07
3902.51,-6.777441015123425e-07
3903.41,-6.708749350057086e-07
3904.31,-6.65427062871349e-07
3905.21,-6.590850860139477e-07
3906.11,-6.576503038579098e-07
3907.01,-6.652857567264679e-07
3907.91,-6.809091272817962e-07
3908.81,-7.006626606050311e-07
3909.71,-7.256673921750107e-07
3910.61,-7.433324425099606e-07
3911.51,-7.646425963836923e-07
3912.41,-7.726397054888509e-07
3913.31,-7.743030193185865e-07
3914.21,-7.725132115682315e-07
3915.11,-7.669817233849217e-07
3916.01,-7.547944406965514e-07
3916.91,-7.434782887441493e-07
3917.81,-7.273294194054472e-07
3918.71,-7.133898963186238e-07
3919.61,-6.929224085751448e-07
3920.51,-6.755019161773012e-07
3921.41,-6.585539500891002e-07
3922.31,-6.45789358456865e-07
3923.21,-6.386825172658785e-07
3924.11,-6.302106061714042e-07
3925.01,-6.186789896537609e-07
3925.91,-5.979864548825428e-07
3926.81,-5.675992601719106e-07
3927.71,-5.270777964902737e-07
3928.61,-4.797485161525819e-07
3929.51,-4.2584729795455844e-07
3930.41,-3.7192472631638846e-07
3931.31,-3.223149944504222e-07
3932.21,-2.7771733220925995e-07
3933.11,-2.4269267862059143e-07
3934.01,-2.2511278658565875e-07
3934.91,-2.223787327220196e-07
3935.81,-2.3778075447268677e-07
3936.71,-2.690705713716382e-07
3937.61,-3.1384868981913245e-07
3938.51,-3.6540861480291967e-07
3939.42,-4.191512253694716e-07
3940.32,-4.689531708810187e-07
3941.22,-5.109555503284457e-07
3942.12,-5.451995231970896e-07
3943.02,-5.716173332386676e-07
3943.92,-5.93376872603077e-07
3944.82,-6.18265988721179e-07
3945.72,-6.406675577515576e-07
3946.62,-6.647243995656866e-07
3947.52,-6.902680379393052e-07
3948.42,-7.148773230639453e-07
3949.32,-7.290706231523003e-07
3950.22,-7.486124186100232e-07
3951.12,-7.595621752717798e-07
3952.02,-7.674599809036577e-07
3952.92,-7.768804394206834e-07
3953.82,-7.820789378721011e-07
3954.72,-7.824042379446417e-07
3955.62,-7.808679066630223e-07
3956.52,-7.769406187970066e-07
3957.42,-7.69041903031755e-07
3958.32,-7.582107582429236e-07
3959.22,-7.426870609917322e-07
3960.12,-7.183075989284037e-07
3961.02,-6.8574957027955e-07
3961.92,-6.45165701601466e-07
3962.82,-5.997573503040249e-07
3963.72,-5.498806498227639e-07
3964.62,-4.969560285729744e-07
3965.52,-4.4701769528326274e-07
3966.42,-3.937728155575886e-07
3967.32,-3.4502118054165263e-07
3968.22,-3.0443025430263397e-07
3969.12,-2.822186892966164e-07
3970.02,-2.7874546553820166e-07
3970.92,-2.9560038581328784e-07
3971.82,-3.334857062872833e-07
3972.72,-3.8320396052891104e-07
3973.62,-4.44414981306721e-07
3974.52,-5.075565240307326e-07
3975.42,-5.672411708395994e-07
3976.32,-6.241961802835787e-07
3977.22,-6.773248146377278e-07
3978.13,-7.27880459534655e-07
3979.03,-7.698794155632671e-07
3979.93,-8.021110678555634e-07
3980.83,-8.295649042966039e-07
3981.73,-8.45113007805781e-07
3982.63,-8.561419292128466e-07
3983.53,-8.683290916173801e-07
3984.43,-8.717854017974069e-07
3985.33,-8.762077842253904e-07
3986.23,-8.906690362753792e-07
3987.13,-9.014894269114316e-07
3988.03,-9.137739284064157e-07
3988.93,-9.280085567288512e-07
3989.83,-9.332856532782886e-07
3990.73,-9.450295725542554e-07
3991.63,-9.51599962270117e-07
3992.53,-9.591495306395085e-07
3993.43,-9.622340876523754e-07
3994.33,-9.628400672513321e-07
3995.23,-9.570190939303105e-07
3996.13,-9.486980165746698e-07
3997.03,-9.359257357509297e-07
3997.93,-9.37540174880985e-07
3998.83,-9.370267119388974e-07
3999.73,-9.496710331066984e-07
4000.63,-9.65326677047488e-07
4001.53,-9.86321628463798e-07
4002.43,-9.94158835980723e-07
4003.33,-9.898405156755964e-07
4004.23,-9.86247863681554e-07
4005.13,-9.656759306611254e-07
4006.03,-9.557967363150599e-07
4006.93,-9.523436841897277e-07
4007.83,-9.563796124525411e-07
4008.73,-9.708164346967212e-07
4009.63,-9.874961358986619e-07
4010.53,-1.0045148718927216e-06
4011.43,-1.0164459480998624e-06
4012.33,-1.0291397773679037e-06
4013.23,-1.0339472612298612e-06
4014.13,-1.0374642217161345e-06
4015.03,-1.0448256648879206e-06
4015.93,-1.0417273012659287e-06
4016.84,-1.0452084651453151e-06
4017.74,-1.0460146685752176e-06
4018.64,-1.044460036759643e-06
4019.54,-1.0455144069512967e-06
4020.44,-1.0508041402693257e-06
4021.34,-1.0535478456613872e-06
4022.24,-1.0594152506364155e-06
4023.14,-1.0573626872112012e-06
4024.04,-1.0574930822867903e-06
4024.94,-1.0610013610878537e-06
4025.84,-1.0668952077470494e-06
4026.74,-1.077500652290821e-06
4027.64,-1.0759536754989915e-06
4028.54,-1.0770406367793568e-06
4029.44,-1.0651166754049554e-06
4030.34,-1.0392637285538878e-06
4031.24,-1.0192809685968742e-06
4032.14,-9.988811498073793e-07
4033.04,-9.814705689204457e-07
4033.94,-9.77858344634479e-07
4034.84,-9.914346962780517e-07
4035.74,-1.011047976017926e-06
4036.64,-1.0399458580574734e-06
4037.54,-1.077394040970538e-06
4038.44,-1.100253043951268e-06
4039.34,-1.1124829902523496e-06
4040.24,-1.120475371764526e-06
4041.14,-1.1153077848126434e-06
4042.04,-1.0967514021689434e-06
4042.94,-1.07452410514308e-06
4043.84,-1.0452964059624693e-06
4044.74,-1.0091121773116082e-06
4045.64,-9.84880481716062e-07
4046.54,-9.769883650081929e-07
4047.44,-9.82279167164063e-07
4048.34,-1.0015603119717558e-06
4049.24,-1.0374396877541751e-06
4050.14,-1.0665759062009062e-06
4051.04,-1.0931944519960663e-06
4051.94,-1.103897316929759e-06
4052.84,-1.1052760717007901e-06
4053.74,-1.1036250877618144e-06
4054.65,-1.0936530818861332e-06
4055.55,-1.0788670952374393e-06
4056.45,-1.0687742121171579e-06
4057.35,-1.0657837013338556e-06
4058.25,-1.0655087895536337e-06
4059.15,-1.068670907242465e-06
4060.05,-1.068656439375719e-06
4060.95,-1.0693561546849562e-06
4061.85,-1.0580201742524925e-06
4062.75,-1.04946197293815e-06
4063.65,-1.0275886829152703e-06
4064.55,-1.0153294047250833e-06
4065.45,-1.0103606756665161e-06
4066.35,-1.0227710658763413e-06
4067.25,-1.03402670099409e-06
4068.15,-1.0567000913697642e-06
4069.05,-1.0737123800530537e-06
4069.95,-1.0797315579355797e-06
4070.85,-1.0868782252747085e-06
4071.75,-1.0850299022828277e-06
4072.65,-1.0773855467501236e-06
4073.55,-1.075193567022461e-06
4074.45,-1.0697654632263608e-06
4075.35,-1.0627420189886176e-06
4076.25,-1.0501545474986569e-06
4077.15,-1.0361533043574917e-06
4078.05,-1.0296706240156483e-06
4078.95,-1.0366253238333466e-06
4079.85,-1.0473730786167066e-06
4080.75,-1.0699576486755645e-06
4081.65,-1.0935817319758551e-06
4082.55,-1.1206428203344575e-06
4083.45,-1.1305778909523194e-06
4084.35,-1.1407312257140645e-06
4085.25,-1.1479014778745298e-06
4086.15,-1.159024258396699e-06
4087.05,-1.1800594086389748e-06
4087.95,-1.1998631854822081e-06
4088.85,-1.2210436215197693e-06
4089.75,-1.2301986913579177e-06
4090.65,-1.2419201340668005e-06
4091.55,-1.2411716729120798e-06
4092.45,-1.2323539503770886e-06
4093.36,-1.2214454221047806e-06
4094.26,-1.2129264394457504e-06
4095.16,-1.185849605637216e-06
4096.06,-1.1618238520478832e-06
4096.96,-1.1323467421441295e-06
4097.86,-1.1008509155430869e-06
4098.76,-1.0688872453750101e-06
4099.66,-1.0290023236947712e-06
4100.56,-9.94260963626962e-07
4101.46,-9.663072522784297e-07
4102.36,-9.46859562921885e-07
4103.26,-9.509046880207009e-07
4104.16,-9.761963666868883e-07
4105.06,-1.0081460114112735e-06
4105.96,-1.052024855542177e-06
4106.86,-1.0920964199494163e-06
4107.76,-1.1191237379749892e-06
4108.66,-1.1388148504142015e-06
4109.56,-1.156694577362306e-06
4110.46,-1.1674801622662054e-06
4111.36,-1.167446269034563e-06
4112.26,-1.1798409425172445e-06
4113.16,-1.1915714249338312e-06
4114.06,-1.203805433623402e-06
4114.96,-1.2230183208961079e-06
4115.86,-1.229238289879034e-06
4116.76,-1.2367115246777346e-06
4117.66,-1.2324560817264333e-06
4118.56,-1.2238356709585366e-06
4119.46,-1.2125677409951228e-06
4120.36,-1.206818900522923e-06
4121.26,-1.2074373648905866e-06
4122.16,-1.2019481786282271e-06
4123.06,-1.2122879594534318e-06
4123.96,-1.2161098562244812e-06
4124.86,-1.2214697342633252e-06
4125.76,-1.2238429368699616e-06
4126.66,-1.226847568996393e-06
4127.56,-1.2239228808027323e-06
4128.46,-1.2137237727682764e-06
4129.36,-1.2042733418696142e-06
4130.26,-1.1904624151137508e-06
4131.17,-1.1744636809567992e-06
4132.06,-1.163809400721566e-06
4132.97,-1.1595491308741503e-06
4133.87,-1.1530176807908073e-06
4134.77,-1.161741099747025e-06
4135.67,-1.182383386315631e-06
4136.57,-1.209268986337043e-06
4137.47,-1.2335245907141557e-06
4138.37,-1.2529527032922577e-06
4139.27,-1.26103421839215e-06
4140.17,-1.2702629664153168e-06
4141.07,-1.255351075411267e-06
4141.97,-1.2340978466624198e-06
4142.87,-1.2048521377232018e-06
4143.77,-1.1840034816541238e-06
4144.67,-1.1755593430516188e-06
4145.57,-1.1683792324973766e-06
4146.47,-1.1901158167399058e-06
4147.37,-1.2051176997781248e-06
4148.27,-1.2217902245133951e-06
4149.17,-1.2351353979980752e-06
4150.07,-1.2425679960525676e-06
4150.97,-1.2414926882051298e-06
4151.87,-1.2387657062398293e-06
4152.77,-1.234023452646117e-06
4153.67,-1.225823613137366e-06
4154.57,-1.2219920856217454e-06
4155.47,-1.2198791803257856e-06
4156.37,-1.2241719938440093e-06
4157.27,-1.2322215973927503e-06
4158.17,-1.2458433459962353e-06
4159.07,-1.2586239541738166e-06
4159.97,-1.2817696211721755e-06
4160.87,-1.2970697613772123e-06
4161.77,-1.3073994759174854e-06
4162.67,-1.3173858434764108e-06
4163.57,-1.3295687771368548e-06
4164.47,-1.327240677428026e-06
4165.37,-1.320469784308197e-06
4166.27,-1.3155048941773133e-06
4167.17,-1.305062934494939e-06
4168.07,-1.2924837350542483e-06
4168.98,-1.2888022298699388e-06
4169.88,-1.2717941632004486e-06
4170.78,-1.257678542954839e-06
4171.68,-1.2336462674765367e-06
4172.58,-1.2119118618399637e-06
4173.48,-1.1976193263098974e-06
4174.38,-1.1875584297671289e-06
4175.28,-1.1874037073551462e-06
4176.18,-1.1930625624595963e-06
4177.08,-1.2084570725773236e-06
4177.98,-1.2260197418583996e-06
4178.88,-1.2367505815070415e-06
4179.78,-1.253043779964668e-06
4180.68,-1.2678887796347763e-06
4181.58,-1.2775051649555344e-06
4182.48,-1.2691298129025725e-06
4183.38,-1.2811384371678772e-06
4184.28,-1.278540485439561e-06
4185.18,-1.2777204301250736e-06
4186.08,-1.2742935301438993e-06
4186.98,-1.2680286285657363e-06
4187.88,-1.268162014385958e-06
4188.78,-1.2690409626902855e-06
4189.68,-1.2704435788493168e-06
4190.58,-1.2799236881765418e-06
4191.48,-1.2979543213991612e-06
4192.38,-1.3065044012532657e-06
4193.28,-1.3167203121633128e-06
4194.18,-1.3204993046258029e-06
4195.08,-1.313012965801139e-06
4195.98,-1.3061877755614159e-06
4196.88,-1.279395165567437e-06
4197.78,-1.2603868502020379e-06
4198.68,-1.2440558744407997e-06
4199.58,-1.2264077937110467e-06
4200.48,-1.2177949049113737e-06
4201.38,-1.2137797167109955e-06
4202.28,-1.220814003848877e-06
4203.18,-1.2350639306738874e-06
4204.08,-1.2472920532316531e-06
4204.98,-1.2709386000173638e-06
4205.88,-1.2887757504310224e-06
4206.79,-1.3129034428943545e-06
4207.69,-1.3374447426144004e-06
4208.59,-1.3516609535596667e-06
4209.49,-1.3662860604685689e-06
4210.39,-1.3726856019548151e-06
4211.29,-1.3738184558041246e-06
4212.19,-1.3728084339226205e-06
4213.09,-1.3651268334137647e-06
4213.99,-1.34998652507277e-06
4214.89,-1.3400375963921651e-06
4215.79,-1.3237638427202917e-06
4216.69,-1.319846372700816e-06
4217.59,-1.327859882491398e-06
4218.49,-1.350076083331095e-06
4219.39,-1.3626102153382617e-06
4220.29,-1.3777950966366907e-06
4221.19,-1.3776962306359998e-06
4222.09,-1.3616486442712838e-06
4222.99,-1.3382838082059964e-06
4223.89,-1.297495946290795e-06
4224.79,-1.2331766740871245e-06
4225.69,-1.1890918464438747e-06
4226.59,-1.1386941628011276e-06
4227.49,-1.126900708093282e-06
4228.39,-1.1415879031455517e-06
4229.29,-1.1741732073984225e-06
4230.19,-1.2247101102880362e-06
4231.09,-1.2744867806706412e-06
4231.99,-1.3124651296394622e-06
4232.89,-1.3346141196944376e-06
4233.79,-1.344650616765181e-06
4234.69,-1.3438728405161473e-06
4235.59,-1.3269049353594397e-06
4236.49,-1.3214649119096698e-06
4237.39,-1.3168790876777141e-06
4238.29,-1.3208739837175209e-06
4239.19,-1.32724265759415e-06
4240.09,-1.3438895507440676e-06
4240.99,-1.3574856282381989e-06
4241.89,-1.3793374772251572e-06
4242.79,-1.3949743239800634e-06
4243.69,-1.4081833742703348e-06
4244.59,-1.42252890785713e-06
4245.5,-1.422140444853966e-06
4246.4,-1.4107592861788946e-06
4247.3,-1.3968067560069066e-06
4248.2,-1.3731032438172162e-06
4249.1,-1.352302566592879e-06
4250.0,-1.3401625311382765e-06
4250.9,-1.3203240532991411e-06
4251.8,-1.3290075020775406e-06
4252.7,-1.3326617701521597e-06
4253.6,-1.3427357563338866e-06
4254.5,-1.3476127294042028e-06
4255.4,-1.3622985455978598e-06
4256.3,-1.3614937115908664e-06
4257.2,-1.371954801091792e-06
4258.1,-1.370430730873244e-06
4259.0,-1.3695477228809976e-06
4259.9,-1.3586509923024688e-06
4260.8,-1.3522568617278637e-06
4261.7,-1.354019193046954e-06
4262.6,-1.3727080042131203e-06
4263.5,-1.3958914455708952e-06
4264.4,-1.4303986936649638e-06
4265.3,-1.4531972118126255e-06
4266.2,-1.4714061978989014e-06
4267.1,-1.4693046649890256e-06
4268.0,-1.4518821713517264e-06
4268.9,-1.4242299950301066e-06
4269.8,-1.3824807080397729e-06
4270.7,-1.3481637493349848e-06
4271.6,-1.3008531395319838e-06
4272.5,-1.2744065609826358e-06
4273.4,-1.2539706375113507e-06
4274.3,-1.2594176133429734e-06
4275.2,-1.2831060937869644e-06
4276.1,-1.3068412953021984e-06
