wave,flux
3700.85,-5.403390836471291e-07
3701.75,-5.332164752527065e-07
3702.65,-5.192592765426071e-07
3703.55,-4.962025903386039e-07
3704.45,-4.6822758441823695e-07
3705.35,-4.490008035277634e-07
3706.25,-4.339816888829533e-07
3707.15,-4.2772017685173395e-07
3708.05,-4.288914735086622e-07
3708.96,-4.3663969605853334e-07
3709.86,-4.451899150307223e-07
3710.76,-4.650688218430425e-07
3711.66,-4.807474022416131e-07
3712.56,-5.012226442674856e-07
3713.46,-5.226768882873488e-07
3714.36,-5.426944426660563e-07
3715.26,-5.561649401291045e-07
3716.16,-5.585802414076593e-07
3717.06,-5.508866051598211e-07
3717.96,-5.324946988823041e-07
3718.86,-5.017170940797635e-07
3719.76,-4.6943153723824433e-07
3720.66,-4.3705847207377677e-07
3721.56,-4.144290157861504e-07
3722.46,-4.077824844218034e-07
3723.36,-4.214760996652985e-07
3724.26,-4.45647109461094e-07
3725.16,-4.714705890437354e-07
3726.06,-4.95609459547327e-07
3726.96,-5.092202971586568e-07
3727.86,-5.173557822565502e-07
3728.76,-5.204200316133903e-07
3729.66,-5.159442838564541e-07
3730.56,-5.072047954357694e-07
3731.46,-4.895409981608351e-07
3732.36,-4.642199142983913e-07
3733.26,-4.330239453581133e-07
3734.16,-4.01080216703408e-07
3735.06,-3.7789897542689376e-07
3735.96,-3.676012924850134e-07
3736.86,-3.711264368704398e-07
3737.76,-3.923145265518882e-07
3738.66,-4.2514080080180604e-07
3739.56,-4.5947692059512215e-07
3740.46,-4.908781052513885e-07
3741.36,-5.099462516051502e-07
3742.26,-5.197102972861493e-07
3743.16,-5.114968672848625e-07
3744.06,-4.95796826749374e-07
3744.96,-4.768156019106954e-07
3745.86,-4.5512251202715357e-07
3746.76,-4.294616916041795e-07
3747.67,-4.091538487990046e-07
3748.57,-3.904525305533387e-07
3749.47,-3.818859869616685e-07
3750.37,-3.8714914783475563e-07
3751.27,-4.074722877654304e-07
3752.17,-4.391910910610598e-07
3753.07,-4.806200200219606e-07
3753.97,-5.171846056905447e-07
3754.87,-5.500076075782296e-07
3755.77,-5.631307805013813e-07
3756.67,-5.650819512325207e-07
3757.57,-5.505054103212145e-07
3758.47,-5.350087969741634e-07
3759.37,-5.193914746300182e-07
3760.27,-5.120180430112494e-07
3761.17,-5.166798912423849e-07
3762.07,-5.22030088734456e-07
3762.97,-5.318154448189172e-07
3763.87,-5.395735286777108e-07
3764.77,-5.445857181727456e-07
3765.67,-5.438032862796307e-07
3766.57,-5.411864671160514e-07
3767.47,-5.338389794596759e-07
3768.37,-5.269135669026365e-07
3769.27,-5.16705060422183e-07
3770.17,-5.161728301021989e-07
3771.07,-5.186658789006003e-07
3771.97,-5.300011295070696e-07
3772.87,-5.457951090983834e-07
3773.77,-5.645581179352219e-07
3774.67,-5.851082110180833e-07
3775.57,-6.034069962368125e-07
3776.47,-6.119193454655102e-07
3777.37,-6.260043124311789e-07
3778.27,-6.366258577702727e-07
3779.17,-6.521418242860823e-07
3780.07,-6.706449078379025e-07
3780.97,-6.833511477047164e-07
3781.87,-6.910333339350115e-07
3782.77,-6.972767606407288e-07
3783.67,-6.942095953143493e-07
3784.57,-6.881319153560185e-07
3785.47,-6.727045271564324e-07
3786.38,-6.540236317494178e-07
3787.28,-6.337161317727396e-07
3788.18,-6.15149013227766e-07
3789.08,-6.002967854278877e-07
3789.98,-5.908231059843379e-07
3790.88,-5.846738042801533e-07
3791.78,-5.82558764644157e-07
3792.68,-5.752741083911603e-07
3793.58,-5.617526344207277e-07
3794.48,-5.468647004062398e-07
3795.38,-5.303188725861796e-07
3796.28,-5.059664987549698e-07
3797.18,-4.869827162444152e-07
3798.08,-4.801786589318995e-07
3798.98,-4.784960339536348e-07
3799.88,-4.906203912894282e-07
3800.78,-5.195788844573906e-07
3801.68,-5.545741971232912e-07
3802.58,-5.946243597248353e-07
3803.48,-6.263338257435365e-07
3804.38,-6.542288952295186e-07
3805.28,-6.674812115810993e-07
3806.18,-6.75747320724459e-07
3807.08,-6.730610454965601e-07
3807.98,-6.790473779774347e-07
3808.88,-6.827430613908202e-07
3809.78,-6.890725935346408e-07
3810.68,-6.927507598572615e-07
3811.58,-6.906179998181903e-07
3812.48,-6.783648061863612e-07
3813.38,-6.597727784195397e-07
3814.28,-6.37985573262702e-07
3815.18,-6.172346536324885e-07
3816.08,-6.066964645766851e-07
3816.98,-6.013668391744129e-07
3817.88,-5.99395798673175e-07
3818.78,-5.957185404685031e-07
3819.68,-5.928533278885011e-07
3820.58,-5.856207726229608e-07
3821.48,-5.781777087761872e-07
3822.38,-5.715092192499179e-07
3823.28,-5.636114672008282e-07
3824.18,-5.564889018886784e-07
3825.09,-5.423741991355324e-07
3825.99,-5.252929725680759e-07
3826.89,-5.119098225186213e-07
3827.79,-5.035563112403134e-07
3828.69,-4.964437105564238e-07
3829.59,-4.917006826220747e-07
3830.49,-4.833048407005811e-07
3831.39,-4.7310292718401097e-07
3832.29,-4.568753558223831e-07
3833.19,-4.3699723269486356e-07
3834.09,-4.1887783354920116e-07
3834.99,-4.0561680471231744e-07
3835.89,-4.039223447427156e-07
3836.79,-4.04991587484177e-07
3837.69,-4.1033370218955775e-07
3838.59,-4.213631690225241e-07
3839.49,-4.387976025389067e-07
3840.39,-4.606469419975847e-07
3841.29,-4.928846385070106e-07
3842.19,-5.289354333680584e-07
3843.09,-5.64716369022504e-07
3843.99,-6.005624624164135e-07
3844.89,-6.272300778711692e-07
3845.79,-6.475200597051174e-07
3846.69,-6.63266968445274e-07
3847.59,-6.725033273200433e-07
3848.49,-6.801030663142232e-07
3849.39,-6.7883534517603e-07
3850.29,-6.805391487903979e-07
3851.19,-6.829222263018204e-07
3852.09,-6.883228401329449e-07
3852.99,-6.866495081461304e-07
3853.89,-6.893487163413353e-07
3854.79,-6.851597437310048e-07
3855.69,-6.767144709207836e-07
3856.59,-6.636270046850755e-07
3857.49,-6.45407908430967e-07
3858.39,-6.271208349952704e-07
3859.29,-6.199537953917738e-07
3860.19,-6.175871373120404e-07
3861.09,-6.260143746026804e-07
3861.99,-6.453336800837414e-07
3862.9,-6.682896703346012e-07
3863.8,-6.897730693960443e-07
3864.7,-7.057390766422576e-07
3865.6,-7.122243969498904e-07
3866.5,-7.156285779749446e-07
3867.4,-7.163558286360219e-07
3868.3,-7.091660699609289e-07
3869.2,-6.994816798888525e-07
3870.1,-6.893306307751636e-07
3871.0,-6.719110733520858e-07
3871.9,-6.59434530598648e-07
3872.8,-6.475916565419409e-07
3873.7,-6.429959221489261e-07
3874.6,-6.467414791393165e-07
3875.5,-6.553833992862286e-07
3876.4,-6.58799310054159e-07
3877.3,-6.581907777980505e-07
3878.2,-6.554245680328698e-07
3879.1,-6.513997226314563e-07
3880.0,-6.44858513681211e-07
3880.9,-6.458721122299251e-07
3881.8,-6.416514602392188e-07
3882.7,-6.402175306901148e-07
3883.6,-6.35423490993052e-07
3884.5,-6.221148284601779e-07
3885.4,-6.040515982715964e-07
3886.3,-5.80975185041046e-07
3887.2,-5.594702458219322e-07
3888.1,-5.39927625464799e-07
3889.0,-5.31776610403872e-07
3889.9,-5.361399171898574e-07
3890.8,-5.50938576372548e-07
3891.7,-5.798686945573501e-07
3892.6,-6.085696311194118e-07
3893.5,-6.338613171130924e-07
3894.4,-6.532944506585581e-07
3895.3,-6.694717034600841e-07
3896.2,-6.837301260552492e-07
3897.1,-6.908166580634873e-07
3898.0,-7.033458694335384e-07
3898.9,-7.129494145306137e-07
3899.8,-7.154946308138272e-07
3900.7,-7.224215354340676e-07
3901.6,-7.249436726656198e-07
3902.51,-7.240545738045158e-07
3903.41,-7.206219749983637e-07
3904.31,-7.143962344650992e-07
3905.21,-7.0933836071472e-07
3906.11,-7.082788644604421e-07
3907.01,-7.166378842186521e-07
3907.91,-7.283464073271645e-07
3908.81,-7.519909093406572e-07
3909.71,-7.713683180898757e-07
3910.61,-7.908171764910746e-07
3911.51,-8.079264609946422e-07
3912.41,-8.156294418463359e-07
3913.31,-8.172168896673829e-07
3914.21,-8.140791736048011e-07
3915.11,-8.041441639582645e-07
3916.01,-7.982756838515992e-07
3916.91,-7.867140561284214e-07
3917.81,-7.742972473125363e-07
3918.71,-7.599714564186359e-07
3919.61,-7.45328146732399e-07
3920.51,-7.284776133574139e-07
3921.41,-7.179941646734794e-07
3922.31,-7.09237491794475e-07
3923.21,-7.002090353148363e-07
3924.11,-6.927310299941546e-07
3925.01,-6.786332837190487e-07
3925.91,-6.589931251509177e-07
3926.81,-6.303582913725047e-07
3927.71,-5.88824516015439e-07
3928.61,-5.392641584949422e-07
3929.51,-4.826447666625764e-07
3930.41,-4.2430461871291796e-07
3931.31,-3.6967541595377006e-07
3932.21,-3.1837794327282664e-07
3933.11,-2.786282846423203e-07
3934.01,-2.5639308805630806e-07
3934.91,-2.527759923372957e-07
3935.81,-2.70006579232345e-07
3936.71,-3.0481142179012245e-07
3937.61,-3.543706330949754e-07
3938.51,-4.106763088455417e-07
3939.42,-4.7266683574218326e-07
3940.32,-5.263892422232082e-07
3941.22,-5.724182699256122e-07
3942.12,-6.056430893821971e-07
3943.02,-6.351743495321629e-07
3943.92,-6.563495530366097e-07
3944.82,-6.786815054112449e-07
3945.72,-7.03664859871098e-07
3946.62,-7.260447443239256e-07
3947.52,-7.448798897035791e-07
3948.42,-7.6898457734425e-07
3949.32,-7.790242886454747e-07
3950.22,-7.909178879304821e-07
3951.12,-8.013333980397475e-07
3952.02,-8.120306152882113e-07
3952.92,-8.147456465561482e-07
3953.82,-8.213758080022722e-07
3954.72,-8.24103581800801e-07
3955.62,-8.232946931901222e-07
3956.52,-8.196179195313061e-07
3957.42,-8.111025364512156e-07
3958.32,-8.006061024672374e-07
3959.22,-7.880474255095675e-07
3960.12,-7.653587305046339e-07
3961.02,-7.348982619191251e-07
3961.92,-6.989194083722916e-07
3962.82,-6.53041674538869e-07
3963.72,-6.039238421971305e-07
3964.62,-5.478681592484274e-07
3965.52,-4.933433534684546e-07
3966.42,-4.36963007878746e-07
3967.32,-3.8028173390200645e-07
3968.22,-3.3653657951470317e-07
3969.12,-3.0925250522726844e-07
3970.02,-3.016120308853384e-07
3970.92,-3.199255163149788e-07
3971.82,-3.5645001309952233e-07
3972.72,-4.105504612492266e-07
3973.62,-4.7082166090396766e-07
3974.52,-5.367391725745155e-07
3975.42,-5.967039739622555e-07
3976.32,-6.580518402569499e-07
3977.22,-7.095351059444688e-07
3978.13,-7.56263292104303e-07
3979.03,-7.986706734261219e-07
3979.93,-8.340474387528846e-07
3980.83,-8.605557091155326e-07
3981.73,-8.746085247630515e-07
3982.63,-8.866334461107696e-07
3983.53,-8.93288926158669e-07
3984.43,-8.97626876002351e-07
3985.33,-9.112602633959436e-07
3986.23,-9.20873384446265e-07
3987.13,-9.322950400703771e-07
3988.03,-9.402691654175564e-07
3988.93,-9.549671775423027e-07
3989.83,-9.632888837120745e-07
3990.73,-9.727199662557138e-07
3991.63,-9.827158863763547e-07
3992.53,-9.915553501106667e-07
3993.43,-9.92415406218307e-07
3994.33,-9.935902364839885e-07
3995.23,-9.889549849858447e-07
3996.13,-9.77038865140573e-07
3997.03,-9.679714428884366e-07
3997.93,-9.649505642798562e-07
3998.83,-9.701613520474625e-07
3999.73,-9.792478264094815e-07
4000.63,-9.95893697442503e-07
4001.53,-1.0122146834436058e-06
4002.43,-1.0169334254151052e-06
4003.33,-1.018571303792789e-06
4004.23,-1.0112526100088187e-06
4005.13,-1.0000307599983688e-06
4006.03,-9.888266088965095e-07
4006.93,-9.836829002836061e-07
4007.83,-9.892328110017213e-07
4008.73,-9.996518187019771e-07
4009.63,-1.0176249282670458e-06
4010.53,-1.0333967644636117e-06
4011.43,-1.0472805624578125e-06
4012.33,-1.056232308403773e-06
4013.23,-1.0627191188069737e-06
4014.13,-1.0688169387997893e-06
4015.03,-1.0675078977016337e-06
4015.93,-1.0667574797313603e-06
4016.84,-1.0739702846430458e-06
4017.74,-1.07483147836337e-06
4018.64,-1.0750495634106197e-06
4019.54,-1.0807060796824288e-06
4020.44,-1.083993389771937e-06
4021.34,-1.0849047125518652e-06
4022.24,-1.0869482680926486e-06
4023.14,-1.084061142934949e-06
4024.04,-1.0902756328355964e-06
4024.94,-1.0884380909494775e-06
4025.84,-1.093166458547876e-06
4026.74,-1.0995268824504245e-06
4027.64,-1.1048828038988313e-06
4028.54,-1.1029270353135616e-06
4029.44,-1.0963256087066283e-06
4030.34,-1.0746330838045704e-06
4031.24,-1.0539588860005158e-06
4032.14,-1.030876393087099e-06
4033.04,-1.0140426380355625e-06
4033.94,-1.0180382643772108e-06
4034.84,-1.0257258928275483e-06
4035.74,-1.0490836109691015e-06
4036.64,-1.0791721188843492e-06
4037.54,-1.1093584601235247e-06
4038.44,-1.1304359406192386e-06
4039.34,-1.1395395937296975e-06
4040.24,-1.1449947453967896e-06
4041.14,-1.1455130745000276e-06
4042.04,-1.125277902991109e-06
4042.94,-1.104714077537697e-06
4043.84,-1.0821258076239767e-06
4044.74,-1.0520453765780427e-06
4045.64,-1.0294446280225585e-06
4046.54,-1.023880388198202e-06
4047.44,-1.0278491456065849e-06
4048.34,-1.0459474063874073e-06
4049.24,-1.0773010963494428e-06
4050.14,-1.1030542548513688e-06
4051.04,-1.1191083434607782e-06
4051.94,-1.1351090335955482e-06
4052.84,-1.1367404529217964e-06
4053.74,-1.1309379222009789e-06
4054.65,-1.1160610762069448e-06
4055.55,-1.1101002617731322e-06
4056.45,-1.0954962892547629e-06
4057.35,-1.0924383037746212e-06
4058.25,-1.0915565103407324e-06
4059.15,-1.0938236112378022e-06
4060.05,-1.1027816241369668e-06
4060.95,-1.097021334353161e-06
4061.85,-1.0905327944654447e-06
4062.75,-1.0809096459977924e-06
4063.65,-1.0694094834557502e-06
4064.55,-1.0585625940825825e-06
4065.45,-1.0520934662564234e-06
4066.35,-1.059457187279739e-06
4067.25,-1.0719627145894313e-06
4068.15,-1.089497607925647e-06
4069.05,-1.108042181154821e-06
4069.95,-1.1166752697786111e-06
4070.85,-1.1199632643014825e-06
4071.75,-1.1198497432839716e-06
4072.65,-1.1126587756419925e-06
4073.55,-1.108312021972085e-06
4074.45,-1.0959690819192247e-06
4075.35,-1.0878767663426934e-06
4076.25,-1.0782274709735198e-06
4077.15,-1.0608484867938562e-06
4078.05,-1.0510242667378965e-06
4078.95,-1.053240146949967e-06
4079.85,-1.0684761088462962e-06
4080.75,-1.0871807510364939e-06
4081.65,-1.115476049568649e-06
4082.55,-1.1381812564121787e-06
4083.45,-1.1426444364464578e-06
4084.35,-1.1539789302594747e-06
4085.25,-1.1617049717732574e-06
4086.15,-1.166460827945161e-06
4087.05,-1.1896241754803934e-06
4087.95,-1.1987479150551805e-06
4088.85,-1.2224627251815388e-06
4089.75,-1.2355851587848502e-06
4090.65,-1.2382147981639843e-06
4091.55,-1.2410226232896136e-06
4092.45,-1.236563118583716e-06
4093.36,-1.2231284623992203e-06
4094.26,-1.2011459287351882e-06
4095.16,-1.1767179990403118e-06
4096.06,-1.1568317618931016e-06
4096.96,-1.1317429373667338e-06
4097.86,-1.0984143703389989e-06
4098.76,-1.0561645467146505e-06
4099.66,-1.0167721553329755e-06
4100.56,-9.794988666004375e-07
4101.46,-9.430758541890417e-07
4102.36,-9.271785682269656e-07
4103.26,-9.294438888752792e-07
4104.16,-9.497042512369549e-07
4105.06,-9.84083665282425e-07
4105.96,-1.029972287605413e-06
4106.86,-1.0720575075277424e-06
4107.76,-1.1067867060292802e-06
4108.66,-1.1311695175792138e-06
4109.56,-1.1537360241839803e-06
4110.46,-1.161117348928515e-06
4111.36,-1.1705119770194197e-06
4112.26,-1.1834826865210109e-06
4113.16,-1.1970120726562626e-06
4114.06,-1.2126616886254396e-06
4114.96,-1.2259317391920796e-06
4115.86,-1.2368598998274475e-06
4116.76,-1.2425784849327517e-06
4117.66,-1.240566602863821e-06
4118.56,-1.2340263499094592e-06
4119.46,-1.226082669396029e-06
4120.36,-1.2138146224170117e-06
4121.26,-1.218051715767393e-06
4122.16,-1.2169456622519516e-06
4123.06,-1.2198870783464315e-06
4123.96,-1.233555183764701e-06
4124.86,-1.2353893650570194e-06
4125.76,-1.2373164745300644e-06
4126.66,-1.2401952347185136e-06
4127.56,-1.2308224689209134e-06
4128.46,-1.2293074613576786e-06
4129.36,-1.2197226416266992e-06
4130.26,-1.2103449742314138e-06
4131.17,-1.2037306978466097e-06
4132.06,-1.1911228836755962e-06
4132.97,-1.1797891740472687e-06
4133.87,-1.1838107873188116e-06
4134.77,-1.1851956781133644e-06
4135.67,-1.2036006958921954e-06
4136.57,-1.2337323590789355e-06
4137.47,-1.2512133417039773e-06
4138.37,-1.2753169576850746e-06
4139.27,-1.28091606817836e-06
4140.17,-1.2912017795814928e-06
4141.07,-1.277550013162506e-06
4141.97,-1.2590469589950427e-06
4142.87,-1.2390812039928586e-06
4143.77,-1.2195356780006005e-06
4144.67,-1.2060787622181874e-06
4145.57,-1.2121029451641963e-06
4146.47,-1.2249241770223778e-06
4147.37,-1.2403111506707322e-06
4148.27,-1.2499917608448341e-06
4149.17,-1.2641815377584174e-06
4150.07,-1.270334058274003e-06
4150.97,-1.2651782599175916e-06
4151.87,-1.2654909007469312e-06
4152.77,-1.2535318936888024e-06
4153.67,-1.2546227652519086e-06
4154.57,-1.247098727064436e-06
4155.47,-1.2500482858758226e-06
4156.37,-1.2460496001038394e-06
4157.27,-1.255821813077071e-06
4158.17,-1.2701009311288591e-06
4159.07,-1.2862792681701383e-06
4159.97,-1.299209032420518e-06
4160.87,-1.3105219230216281e-06
4161.77,-1.3275828638305522e-06
4162.67,-1.3330235701965704e-06
4163.57,-1.342471799221211e-06
4164.47,-1.3373900097735196e-06
4165.37,-1.3410626135973526e-06
4166.27,-1.336391924014668e-06
4167.17,-1.3269419142602671e-06
4168.07,-1.3173777371086772e-06
4168.98,-1.306057452491073e-06
4169.88,-1.2968779253166509e-06
4170.78,-1.2815165719281635e-06
4171.68,-1.2573452543759673e-06
4172.58,-1.2429101176364014e-06
4173.48,-1.223690949142905e-06
4174.38,-1.2161407626140736e-06
4175.28,-1.2137198407534702e-06
4176.18,-1.2204490783123887e-06
4177.08,-1.2322981911808768e-06
4177.98,-1.2488522967129019e-06
4178.88,-1.258646539232495e-06
4179.78,-1.2764543584775229e-06
4180.68,-1.2877788984373452e-06
4181.58,-1.2904422514548696e-06
4182.48,-1.3010807713425079e-06
4183.38,-1.2997711631544524e-06
4184.28,-1.3062040611367394e-06
4185.18,-1.3004641991611558e-06
4186.08,-1.3042088760233728e-06
4186.98,-1.295413577573985e-06
4187.88,-1.2992069618362622e-06
4188.78,-1.2957542254006733e-06
4189.68,-1.3045869182765213e-06
4190.58,-1.3132423099058791e-06
4191.48,-1.3203135107377026e-06
4192.38,-1.334290751273584e-06
4193.28,-1.3475172086926766e-06
4194.18,-1.3467122159609033e-06
4195.08,-1.341181939242846e-06
4195.98,-1.3330079476858992e-06
4196.88,-1.312425668139785e-06
4197.78,-1.2920945253278052e-06
4198.68,-1.27162427165838e-06
4199.58,-1.2608003244414075e-06
4200.48,-1.2568597308247223e-06
4201.38,-1.2536947515382836e-06
4202.28,-1.2542031157041965e-06
4203.18,-1.2690064407985487e-06
4204.08,-1.2809370273988107e-06
4204.98,-1.2981077607340664e-06
4205.88,-1.3193517516727998e-06
4206.79,-1.3406024262631844e-06
4207.69,-1.3502781257471665e-06
4208.59,-1.3709921376388151e-06
4209.49,-1.382891743252633e-06
4210.39,-1.3955071688495558e-06
4211.29,-1.3895101051403348e-06
4212.19,-1.3969455427176848e-06
4213.09,-1.3864163732722518e-06
4213.99,-1.3792456536260276e-06
4214.89,-1.365888984549669e-06
4215.79,-1.3564398091400515e-06
4216.69,-1.351657763928866e-06
4217.59,-1.3625373765353627e-06
4218.49,-1.36834155092887e-06
4219.39,-1.379957517168117e-06
4220.29,-1.3961010558977537e-06
4221.19,-1.3998983066761565e-06
4222.09,-1.3888042522512866e-06
4222.99,-1.3638287544453613e-06
4223.89,-1.3260862972900851e-06
4224.79,-1.2847456635430715e-06
4225.69,-1.232292325573626e-06
4226.59,-1.1919832802875267e-06
4227.49,-1.1811130253736598e-06
4228.39,-1.1969916757977552e-06
4229.29,-1.2288284070838696e-06
4230.19,-1.2727231721201771e-06
4231.09,-1.3168060229889616e-06
4231.99,-1.3494637854397564e-06
4232.89,-1.3737080055777449e-06
4233.79,-1.3787911865464117e-06
4234.69,-1.3682164596375282e-06
4235.59,-1.3619984096906451e-06
4236.49,-1.3517403078787233e-06
4237.39,-1.3490625284750764e-06
4238.29,-1.3467358123893963e-06
4239.19,-1.3551900858462718e-06
4240.09,-1.3687775312098218e-06
4240.99,-1.3852596824363579e-06
4241.89,-1.410080426730256e-06
4242.79,-1.4198083385267119e-06
4243.69,-1.4302225493393337e-06
4244.59,-1.4339706138359146e-06
4245.5,-1.433313605768685e-06
4246.4,-1.426454091765756e-06
4247.3,-1.4140084483497652e-06
4248.2,-1.3899699647145946e-06
4249.1,-1.3781324051534143e-06
4250.0,-1.3676669789820025e-06
4250.9,-1.3644822308127378e-06
4251.8,-1.3712442053475061e-06
4252.7,-1.3729327762243732e-06
4253.6,-1.3840264216396778e-06
4254.5,-1.3881210958101602e-06
4255.4,-1.4023212728356297e-06
4256.3,-1.4005523999829498e-06
4257.2,-1.4031079800042918e-06
4258.1,-1.401229673023675e-06
4259.0,-1.3979876218089055e-06
4259.9,-1.3872567727554222e-06
4260.8,-1.3892810959411543e-06
4261.7,-1.3958690173732207e-06
4262.6,-1.4091332694535485e-06
4263.5,-1.4272030421549262e-06
4264.4,-1.46045100419875e-06
4265.3,-1.4769223801761912e-06
4266.2,-1.4872088728332688e-06
4267.1,-1.4902369717200167e-06
4268.0,-1.4763237983168287e-06
4268.9,-1.448483122289468e-06
4269.8,-1.4200032301533736e-06
4270.7,-1.379815350854927e-06
4271.6,-1.3459588658455295e-06
4272.5,-1.322750783946945e-06
4273.4,-1.311391893702003e-06
4274.3,-1.3137789351820508e-06
4275.2,-1.3330935173071419e-06
4276.1,-1.3618753992887148e-06
