wave,flux
3700.85,-4.307664684840436e-07
3701.75,-4.263131748902591e-07
3702.65,-4.130647075192963e-07
3703.55,-3.943090341957523e-07
3704.45,-3.7479886679375766e-07
3705.35,-3.555345509855827e-07
3706.25,-3.436240736416722e-07
3707.15,-3.3771699544753625e-07
3708.05,-3.3852218177508355e-07
3708.96,-3.449002890112879e-07
3709.86,-3.558000760505601e-07
3710.76,-3.6951404649611725e-07
3711.66,-3.8597191254001946e-07
3712.56,-4.022535886561188e-07
3713.46,-4.2110447090115776e-07
3714.36,-4.3591391659069776e-07
3715.26,-4.480041961437402e-07
3716.16,-4.4760182566554154e-07
3717.06,-4.4189534572342184e-07
3717.96,-4.259065396548804e-07
3718.86,-4.0008363973771237e-07
3719.76,-3.707620849648153e-07
3720.66,-3.4511319038675157e-07
3721.56,-3.276474505504274e-07
3722.46,-3.223834772141633e-07
3723.36,-3.337899799366792e-07
3724.26,-3.5419445745273804e-07
3725.16,-3.7553775250007606e-07
3726.06,-3.9495180489074006e-07
3726.96,-4.0659971742433464e-07
3727.86,-4.122467611168804e-07
3728.76,-4.1380217042149767e-07
3729.66,-4.123131728431433e-07
3730.56,-4.035198010441752e-07
3731.46,-3.900970692217614e-07
3732.36,-3.7028182992099234e-07
3733.26,-3.4424365379104135e-07
3734.16,-3.20335066834997e-07
3735.06,-2.985908140941133e-07
3735.96,-2.889470563621781e-07
3736.86,-2.93065236633979e-07
3737.76,-3.100027564865707e-07
3738.66,-3.36445821780085e-07
3739.56,-3.6504279877319193e-07
3740.46,-3.8854641024435976e-07
3741.36,-4.0588977312143283e-07
3742.26,-4.1171591964861903e-07
3743.16,-4.0958358193662745e-07
3744.06,-3.9475483565951306e-07
3744.96,-3.762022203278032e-07
3745.86,-3.580790054540119e-07
3746.76,-3.390242821813801e-07
3747.67,-3.221288598361154e-07
3748.57,-3.093147671036812e-07
3749.47,-3.026649913212477e-07
3750.37,-3.085413537188251e-07
3751.27,-3.25336917654923e-07
3752.17,-3.5286513298075984e-07
3753.07,-3.8572526764859037e-07
3753.97,-4.180428562826114e-07
3754.87,-4.408825438602195e-07
3755.77,-4.5241173074571403e-07
3756.67,-4.5228179602501275e-07
3757.57,-4.425386557242243e-07
3758.47,-4.2611252554322494e-07
3759.37,-4.1380159094559514e-07
3760.27,-4.065817644280844e-07
3761.17,-4.1055902099952014e-07
3762.07,-4.166429269694522e-07
3762.97,-4.2640179344947417e-07
3763.87,-4.318633998778959e-07
3764.77,-4.3469138794825866e-07
3765.67,-4.351330079346816e-07
3766.57,-4.3349368861377647e-07
3767.47,-4.288242334252892e-07
3768.37,-4.2520103651577797e-07
3769.27,-4.2145462472161267e-07
3770.17,-4.191314069572784e-07
3771.07,-4.23283583314371e-07
3771.97,-4.3310086984944446e-07
3772.87,-4.462170580484192e-07
3773.77,-4.610032195016025e-07
3774.67,-4.755924353190767e-07
3775.57,-4.900993516721806e-07
3776.47,-4.99672450174842e-07
3777.37,-5.084576017701296e-07
3778.27,-5.187385230414765e-07
3779.17,-5.303754723390642e-07
3780.07,-5.396599117702861e-07
3780.97,-5.504753994672415e-07
3781.87,-5.611117041293826e-07
3782.77,-5.637667837805636e-07
3783.67,-5.648536597029607e-07
3784.57,-5.559056277704275e-07
3785.47,-5.431390085019639e-07
3786.38,-5.283020333773396e-07
3787.28,-5.106418498197806e-07
3788.18,-4.928524182088421e-07
3789.08,-4.8291542036828e-07
3789.98,-4.768918437449442e-07
3790.88,-4.721480472561737e-07
3791.78,-4.6968970407204894e-07
3792.68,-4.659574707386763e-07
3793.58,-4.56431034791603e-07
3794.48,-4.4510909456185955e-07
3795.38,-4.306837577709648e-07
3796.28,-4.1474367775679113e-07
3797.18,-3.9900348733158175e-07
3798.08,-3.909449958134418e-07
3798.98,-3.9074352660403915e-07
3799.88,-4.0178876181027675e-07
3800.78,-4.252219934029553e-07
3801.68,-4.54852909884673e-07
3802.58,-4.860151084405978e-07
3803.48,-5.125856282799918e-07
3804.38,-5.310168739219661e-07
3805.28,-5.464940084213791e-07
3806.18,-5.516872651324205e-07
3807.08,-5.482126022150722e-07
3807.98,-5.526369900413139e-07
3808.88,-5.551144175067865e-07
3809.78,-5.583504331960361e-07
3810.68,-5.624683596839292e-07
3811.58,-5.579560110201062e-07
3812.48,-5.498035139012959e-07
3813.38,-5.347585213353229e-07
3814.28,-5.136457851005511e-07
3815.18,-4.989171263008495e-07
3816.08,-4.862197200916975e-07
3816.98,-4.812793521620869e-07
3817.88,-4.797377901274103e-07
3818.78,-4.794116917471421e-07
3819.68,-4.7371198171534925e-07
3820.58,-4.6735672554977097e-07
3821.48,-4.625159507270532e-07
3822.38,-4.5634625060657007e-07
3823.28,-4.5344305571990726e-07
3824.18,-4.435937767462491e-07
3825.09,-4.3268154369832003e-07
3825.99,-4.2186074117154607e-07
3826.89,-4.101207322383847e-07
3827.79,-4.012833138808624e-07
3828.69,-3.970263400740805e-07
3829.59,-3.9269716269737794e-07
3830.49,-3.8767644939365615e-07
3831.39,-3.8041225215184677e-07
3832.29,-3.6807327273480457e-07
3833.19,-3.543382803247674e-07
3834.09,-3.4047750339416645e-07
3834.99,-3.32624308816146e-07
3835.89,-3.291788479033211e-07
3836.79,-3.2837770894598014e-07
3837.69,-3.3544812183165397e-07
3838.59,-3.4509981631176435e-07
3839.49,-3.5571327653568854e-07
3840.39,-3.745975499067298e-07
3841.29,-3.990819600719708e-07
3842.19,-4.276775500619732e-07
3843.09,-4.58731026658311e-07
3843.99,-4.878406467137342e-07
3844.89,-5.116563490273618e-07
3845.79,-5.296857904894867e-07
3846.69,-5.407072575059093e-07
3847.59,-5.467849426371769e-07
3848.49,-5.536367814040135e-07
3849.39,-5.550792490363386e-07
3850.29,-5.546823311299092e-07
3851.19,-5.537114976592681e-07
3852.09,-5.593278442835662e-07
3852.99,-5.59123932691475e-07
3853.89,-5.586317320892427e-07
3854.79,-5.562847582784559e-07
3855.69,-5.47150648636082e-07
3856.59,-5.351763945954021e-07
3857.49,-5.225642286281823e-07
3858.39,-5.067440350779821e-07
3859.29,-4.991451554717738e-07
3860.19,-4.955496380620192e-07
3861.09,-5.019953255188533e-07
3861.99,-5.187111828348075e-07
3862.9,-5.405744294854393e-07
3863.8,-5.600573049043317e-07
3864.7,-5.731125540907373e-07
3865.6,-5.827956574586936e-07
3866.5,-5.83547254730914e-07
3867.4,-5.829358563544846e-07
3868.3,-5.779650350559163e-07
3869.2,-5.700843821924256e-07
3870.1,-5.60228849974239e-07
3871.0,-5.469556393573992e-07
3871.9,-5.322456244349469e-07
3872.8,-5.240749306188574e-07
3873.7,-5.251848790892603e-07
3874.6,-5.266575255293466e-07
3875.5,-5.336477904904903e-07
3876.4,-5.406211245043117e-07
3877.3,-5.384632184901931e-07
3878.2,-5.355748818336244e-07
3879.1,-5.301065849562987e-07
3880.0,-5.265399302998909e-07
3880.9,-5.266999434954527e-07
3881.8,-5.253041266921845e-07
3882.7,-5.262240474366944e-07
3883.6,-5.177233610941076e-07
3884.5,-5.130550193285076e-07
3885.4,-4.997618986049539e-07
3886.3,-4.826744012023179e-07
3887.2,-4.641458142922637e-07
3888.1,-4.49978101838234e-07
3889.0,-4.4349475243590067e-07
3889.9,-4.490385767299849e-07
3890.8,-4.627002650897866e-07
3891.7,-4.855817259228454e-07
3892.6,-5.089198387700476e-07
3893.5,-5.298591355071253e-07
3894.4,-5.483573424229154e-07
3895.3,-5.619461887704048e-07
3896.2,-5.709791691596698e-07
3897.1,-5.767571054130954e-07
3898.0,-5.841034887065253e-07
3898.9,-5.923468478929802e-07
3899.8,-5.975249344883845e-07
3900.7,-5.996607178471906e-07
3901.6,-6.013252858251518e-07
3902.51,-6.003480121209215e-07
3903.41,-5.938429379860718e-07
3904.31,-5.931178622941923e-07
3905.21,-5.889768237712227e-07
3906.11,-5.896099378762026e-07
3907.01,-5.95581753773549e-07
3907.91,-6.09069596137375e-07
3908.81,-6.198107273705887e-07
3909.71,-6.413250533206282e-07
3910.61,-6.594519401584085e-07
3911.51,-6.734563432045254e-07
3912.41,-6.790156279012427e-07
3913.31,-6.828622343196977e-07
3914.21,-6.799810066952478e-07
3915.11,-6.743252370897816e-07
3916.01,-6.672700919941055e-07
3916.91,-6.570771382339231e-07
3917.81,-6.476574046796101e-07
3918.71,-6.357122901334547e-07
3919.61,-6.19875835770385e-07
3920.51,-6.056728596868773e-07
3921.41,-5.965969242484902e-07
3922.31,-5.853685757557887e-07
3923.21,-5.834819505231863e-07
3924.11,-5.747997905365618e-07
3925.01,-5.659209597275072e-07
3925.91,-5.456173650845645e-07
3926.81,-5.221732517312313e-07
3927.71,-4.838306953482031e-07
3928.61,-4.447618367651841e-07
3929.51,-3.980543866768637e-07
3930.41,-3.478671588003415e-07
3931.31,-3.009516266722109e-07
3932.21,-2.6000162392127487e-07
3933.11,-2.2861656302777325e-07
3934.01,-2.1128910516497242e-07
3934.91,-2.0768293632241182e-07
3935.81,-2.2200348324886456e-07
3936.71,-2.506669632872565e-07
3937.61,-2.92452783706734e-07
3938.51,-3.405612419898424e-07
3939.42,-3.879864235211596e-07
3940.32,-4.356995086035781e-07
3941.22,-4.729274696440581e-07
3942.12,-5.033967618007887e-07
3943.02,-5.268674944110598e-07
3943.92,-5.454346545578852e-07
3944.82,-5.632902905457558e-07
3945.72,-5.852230687298122e-07
3946.62,-6.05332473068049e-07
3947.52,-6.275118960464935e-07
3948.42,-6.429107403014047e-07
3949.32,-6.574048061703916e-07
3950.22,-6.679101696574486e-07
3951.12,-6.774966673140202e-07
3952.02,-6.85906630227022e-07
3952.92,-6.929538998890156e-07
3953.82,-6.954651917284441e-07
3954.72,-6.952106706079758e-07
3955.62,-6.948817172614009e-07
3956.52,-6.917368470107369e-07
3957.42,-6.861317958178968e-07
3958.32,-6.792300720972279e-07
3959.22,-6.660749021127491e-07
3960.12,-6.482596025055067e-07
3961.02,-6.208400167058409e-07
3961.92,-5.914389636907472e-07
3962.82,-5.474064035344157e-07
3963.72,-5.058499255004134e-07
3964.62,-4.5964748630035836e-07
3965.52,-4.141094796893801e-07
3966.42,-3.6439752728738413e-07
3967.32,-3.194152120111698e-07
3968.22,-2.823395261334139e-07
3969.12,-2.5853003655796617e-07
3970.02,-2.5426920117326305e-07
3970.92,-2.688642913627339e-07
3971.82,-3.0212648070589556e-07
3972.72,-3.477174215101125e-07
3973.62,-4.0222990621582087e-07
3974.52,-4.570877096891227e-07
3975.42,-5.102786756528565e-07
3976.32,-5.595443997069843e-07
3977.22,-6.04682489161871e-07
3978.13,-6.471539092617773e-07
3979.03,-6.846337692399738e-07
3979.93,-7.165461231294455e-07
3980.83,-7.37092529230636e-07
3981.73,-7.505796461773334e-07
3982.63,-7.619408689777898e-07
3983.53,-7.656725007513865e-07
3984.43,-7.74307712164237e-07
3985.33,-7.795814829764218e-07
3986.23,-7.891277997892243e-07
3987.13,-8.02543288136524e-07
3988.03,-8.09164542358283e-07
3988.93,-8.200390060799984e-07
3989.83,-8.296392978377944e-07
3990.73,-8.362766853053825e-07
3991.63,-8.474893765744185e-07
3992.53,-8.5477662995117e-07
3993.43,-8.555119096121255e-07
3994.33,-8.519788446521995e-07
3995.23,-8.511701751099238e-07
3996.13,-8.401415715725233e-07
3997.03,-8.340646320348373e-07
3997.93,-8.353537594983473e-07
3998.83,-8.365676525147925e-07
3999.73,-8.452222172385271e-07
4000.63,-8.588233432365144e-07
4001.53,-8.757191071607475e-07
4002.43,-8.782286514708513e-07
4003.33,-8.877123047591782e-07
4004.23,-8.764414160895226e-07
4005.13,-8.641661751659819e-07
4006.03,-8.557674526843214e-07
4006.93,-8.53254853922865e-07
4007.83,-8.510876253675374e-07
4008.73,-8.653864120614781e-07
4009.63,-8.806223793195438e-07
4010.53,-8.924348412923863e-07
4011.43,-9.09550014723247e-07
4012.33,-9.163406005262654e-07
4013.23,-9.170697828818994e-07
4014.13,-9.259385581958925e-07
4015.03,-9.241078548492661e-07
4015.93,-9.299155552680945e-07
4016.84,-9.288094615508985e-07
4017.74,-9.319351683934327e-07
4018.64,-9.348686715050916e-07
4019.54,-9.381266744395237e-07
4020.44,-9.392794749029063e-07
4021.34,-9.442643421337834e-07
4022.24,-9.445064422993563e-07
4023.14,-9.485477897850784e-07
4024.04,-9.484330517831404e-07
4024.94,-9.4691351664806e-07
4025.84,-9.542211310058325e-07
4026.74,-9.619475420928125e-07
4027.64,-9.653856617690086e-07
4028.54,-9.581128583886867e-07
4029.44,-9.520716232149008e-07
4030.34,-9.357544060239958e-07
4031.24,-9.163625710851453e-07
4032.14,-9.007281383145918e-07
4033.04,-8.902029985990986e-07
4033.94,-8.841160340951318e-07
4034.84,-8.95936577836691e-07
4035.74,-9.164528855739449e-07
4036.64,-9.430487890275695e-07
4037.54,-9.655890783183568e-07
4038.44,-9.888782437916191e-07
4039.34,-1.0028997958783907e-06
4040.24,-1.001682250299064e-06
4041.14,-9.950900285271154e-07
4042.04,-9.864690112119854e-07
4042.94,-9.684553003572135e-07
4043.84,-9.418781857822605e-07
4044.74,-9.202603988993074e-07
4045.64,-8.9673171411534e-07
4046.54,-8.851622395390813e-07
4047.44,-8.95686391946537e-07
4048.34,-9.157168829607446e-07
4049.24,-9.447086360273262e-07
4050.14,-9.675867206762128e-07
4051.04,-9.868633020105715e-07
4051.94,-9.94078296178814e-07
4052.84,-9.965606747739372e-07
4053.74,-9.974629279943289e-07
4054.65,-9.834282652038267e-07
4055.55,-9.752398732526777e-07
4056.45,-9.652296129895667e-07
4057.35,-9.62529330148585e-07
4058.25,-9.585619855926165e-07
4059.15,-9.626102548844545e-07
4060.05,-9.6502641521941e-07
4060.95,-9.66183527628649e-07
4061.85,-9.64136552040705e-07
4062.75,-9.50300096250846e-07
4063.65,-9.31987983083284e-07
4064.55,-9.278126377348891e-07
4065.45,-9.246431454841741e-07
4066.35,-9.297412445666286e-07
4067.25,-9.473025385249452e-07
4068.15,-9.655446657500594e-07
4069.05,-9.750974459221283e-07
4069.95,-9.881706294702433e-07
4070.85,-9.865832104340424e-07
4071.75,-9.829807721475687e-07
4072.65,-9.81466099467998e-07
4073.55,-9.781887918841951e-07
4074.45,-9.74215326072708e-07
4075.35,-9.685976329245083e-07
4076.25,-9.506581727290817e-07
4077.15,-9.369810735974091e-07
4078.05,-9.321549285787229e-07
4078.95,-9.341829652906419e-07
4079.85,-9.484965381364477e-07
4080.75,-9.701189861158083e-07
4081.65,-9.913607682360032e-07
4082.55,-1.0111785957155441e-06
4083.45,-1.0195708292406326e-06
4084.35,-1.0295058597003648e-06
4085.25,-1.0384623508761638e-06
4086.15,-1.0455640894904252e-06
4087.05,-1.059933148279114e-06
4087.95,-1.0756926480870838e-06
4088.85,-1.0952123783193485e-06
4089.75,-1.1050024344829455e-06
4090.65,-1.1125329019560924e-06
4091.55,-1.109663750895635e-06
4092.45,-1.1037493775701432e-06
4093.36,-1.095498623156756e-06
4094.26,-1.0792687384233643e-06
4095.16,-1.0631292778348844e-06
4096.06,-1.0420825402385153e-06
4096.96,-1.015445810157416e-06
4097.86,-9.89095616054302e-07
4098.76,-9.528660381336946e-07
4099.66,-9.198782094265929e-07
4100.56,-8.844027688449466e-07
4101.46,-8.57794637314144e-07
4102.36,-8.399535283298224e-07
4103.26,-8.452987793174623e-07
4104.16,-8.60676767573522e-07
4105.06,-8.946354397943677e-07
4105.96,-9.336115903938981e-07
4106.86,-9.66263626458075e-07
4107.76,-9.995362124143338e-07
4108.66,-1.0256888229804854e-06
4109.56,-1.036716562493727e-06
4110.46,-1.0484026025042136e-06
4111.36,-1.052344731241842e-06
4112.26,-1.0658418045827359e-06
4113.16,-1.0814553948081606e-06
4114.06,-1.0916641162455656e-06
4114.96,-1.1039408819694316e-06
4115.86,-1.1145647770911364e-06
4116.76,-1.1182025546652426e-06
4117.66,-1.1171982331295839e-06
4118.56,-1.109662789142749e-06
4119.46,-1.1057630526742089e-06
4120.36,-1.102721482428996e-06
4121.26,-1.1024198741383498e-06
4122.16,-1.1007398250792523e-06
4123.06,-1.10208573756871e-06
4123.96,-1.10950455500014e-06
4124.86,-1.1107239940147306e-06
4125.76,-1.118999651193156e-06
4126.66,-1.1211546835000904e-06
4127.56,-1.116934687826276e-06
4128.46,-1.110712373433165e-06
4129.36,-1.097706905400087e-06
4130.26,-1.0956640638557558e-06
4131.17,-1.0829441471175425e-06
4132.06,-1.073276795490904e-06
4132.97,-1.0665016425723898e-06
4133.87,-1.062910748065838e-06
4134.77,-1.0760734011364673e-06
4135.67,-1.092213701135273e-06
4136.57,-1.1089553680208563e-06
4137.47,-1.1320661950999014e-06
4138.37,-1.1509632921654456e-06
4139.27,-1.1653485514512495e-06
4140.17,-1.1666880449873914e-06
4141.07,-1.1571934105479066e-06
4141.97,-1.1377667876260353e-06
4142.87,-1.1178169339781084e-06
4143.77,-1.0993282401655424e-06
4144.67,-1.0914928959382828e-06
4145.57,-1.097528349895303e-06
4146.47,-1.104717125913041e-06
4147.37,-1.1256602010613648e-06
4148.27,-1.1382784892387832e-06
4149.17,-1.145875981160353e-06
4150.07,-1.1543979620985166e-06
4150.97,-1.147699309122317e-06
4151.87,-1.1473923565961905e-06
4152.77,-1.1434907093453339e-06
4153.67,-1.1368918555271021e-06
4154.57,-1.135701069272811e-06
4155.47,-1.1348423393392573e-06
4156.37,-1.1386498883148113e-06
4157.27,-1.1449723545477143e-06
4158.17,-1.1546398958412908e-06
4159.07,-1.1720148737230964e-06
4159.97,-1.1813515677629679e-06
4160.87,-1.2001103033673272e-06
4161.77,-1.2143066189075135e-06
4162.67,-1.2221742015189701e-06
4163.57,-1.225196497906359e-06
4164.47,-1.2245723931847724e-06
4165.37,-1.2239938475675388e-06
4166.27,-1.2192132501062485e-06
4167.17,-1.2123655225013098e-06
4168.07,-1.2066734619253945e-06
4168.98,-1.196129955590109e-06
4169.88,-1.1866203219887036e-06
4170.78,-1.1694189963982358e-06
4171.68,-1.1522704120574267e-06
4172.58,-1.1340417352761638e-06
4173.48,-1.1166526964788444e-06
4174.38,-1.113541207148042e-06
4175.28,-1.1095300638064476e-06
4176.18,-1.1170450337416128e-06
4177.08,-1.1271065367852247e-06
4177.98,-1.1436960391604516e-06
4178.88,-1.1546100424592546e-06
4179.78,-1.1708763649258929e-06
4180.68,-1.1780128409702114e-06
4181.58,-1.1821221098137663e-06
4182.48,-1.188538817616078e-06
4183.38,-1.1932694395411004e-06
4184.28,-1.1980106576595147e-06
4185.18,-1.1932322865491648e-06
4186.08,-1.1948686392800817e-06
4186.98,-1.1931383102277946e-06
4187.88,-1.1898409942235967e-06
4188.78,-1.1915753816101673e-06
4189.68,-1.1928583105072442e-06
4190.58,-1.2017756893640078e-06
4191.48,-1.2148141276578347e-06
4192.38,-1.2262628849345518e-06
4193.28,-1.2331218826325888e-06
4194.18,-1.239996943046952e-06
4195.08,-1.2313713176445133e-06
4195.98,-1.2211426169797785e-06
4196.88,-1.2059892681284788e-06
4197.78,-1.1893140583608754e-06
4198.68,-1.1672246644938415e-06
4199.58,-1.1616667127301847e-06
4200.48,-1.1505556445825792e-06
4201.38,-1.1546099047014283e-06
4202.28,-1.157388035311327e-06
4203.18,-1.168201031280207e-06
4204.08,-1.1835756213639215e-06
4204.98,-1.194395797353497e-06
4205.88,-1.2181080978079429e-06
4206.79,-1.2371899764386327e-06
4207.69,-1.2537636851200164e-06
4208.59,-1.2702749279829452e-06
4209.49,-1.2836070889666035e-06
4210.39,-1.2896392847494676e-06
4211.29,-1.2930296586331448e-06
4212.19,-1.2971570572792884e-06
4213.09,-1.2890244542167041e-06
4213.99,-1.2805030644546906e-06
4214.89,-1.2750984527662378e-06
4215.79,-1.2563654588462787e-06
4216.69,-1.2526963179149484e-06
4217.59,-1.2560573931523267e-06
4218.49,-1.270159246202741e-06
4219.39,-1.2842433633500433e-06
4220.29,-1.298520632319478e-06
4221.19,-1.3030612500909655e-06
4222.09,-1.298673421575914e-06
4222.99,-1.272665013946099e-06
4223.89,-1.234973984579926e-06
4224.79,-1.1901742857658271e-06
4225.69,-1.1408434612719714e-06
4226.59,-1.1054899752341665e-06
4227.49,-1.0908317597146823e-06
4228.39,-1.1014866666713294e-06
4229.29,-1.1347211894827641e-06
4230.19,-1.1760143752202101e-06
4231.09,-1.2263621103671075e-06
4231.99,-1.2569342149465451e-06
4232.89,-1.281889746117121e-06
4233.79,-1.2785058133719463e-06
4234.69,-1.2781276534478152e-06
4235.59,-1.2714364981914081e-06
4236.49,-1.2649421366295963e-06
4237.39,-1.2580505457609087e-06
4238.29,-1.2576908159217665e-06
4239.19,-1.2705571805509747e-06
4240.09,-1.2828040133219111e-06
4240.99,-1.2983969719177749e-06
4241.89,-1.3168592735172716e-06
4242.79,-1.3251765274906505e-06
4243.69,-1.3406626301290682e-06
4244.59,-1.350012777978317e-06
4245.5,-1.352237605282891e-06
4246.4,-1.3468313202828521e-06
4247.3,-1.3265971162247357e-06
4248.2,-1.3103729090599963e-06
4249.1,-1.2949843913775443e-06
4250.0,-1.2780667001884915e-06
4250.9,-1.2778124133923928e-06
4251.8,-1.281200174587532e-06
4252.7,-1.2860326473148352e-06
4253.6,-1.2937549804664076e-06
4254.5,-1.3040459127439505e-06
4255.4,-1.3131963712252907e-06
4256.3,-1.3154767986417516e-06
4257.2,-1.3232713186360057e-06
4258.1,-1.3239512014362762e-06
4259.0,-1.3138054228314713e-06
4259.9,-1.308995178706635e-06
4260.8,-1.3005337772356119e-06
4261.7,-1.3064460967559462e-06
4262.6,-1.3231426497375566e-06
4263.5,-1.3516770510038462e-06
4264.4,-1.3718481298545336e-06
4265.3,-1.3987722979005163e-06
4266.2,-1.4117801955460597e-06
4267.1,-1.4087274505769057e-06
4268.0,-1.3992190233096242e-06
4268.9,-1.3734349231287147e-06
4269.8,-1.345199897557152e-06
4270.7,-1.3043434459094143e-06
4271.6,-1.2717327731539353e-06
4272.5,-1.2462623961374353e-06
4273.4,-1.2340586398518345e-06
4274.3,-1.2347176321681231e-06
4275.2,-1.2513188239687096e-06
4276.1,-1.2782610065590613e-06
4277.0,-1.3126632299556718e-06
