wave,flux
3700.85,-4.905782818665889e-05
3701.75,-4.858716294232914e-05
3702.65,-4.675641231864569e-05
3703.55,-4.383655233804605e-05
3704.45,-4.092898732521965e-05
3705.35,-3.7872075333224616e-05
3706.25,-3.553659176132446e-05
3707.15,-3.4249992378484804e-05
3708.05,-3.3999190572113514e-05
3708.96,-3.515366110420464e-05
3709.86,-3.735392338488769e-05
3710.76,-4.029849168402642e-05
3711.66,-4.407670357989848e-05
3712.56,-4.7791406158068234e-05
3713.46,-5.101763611566962e-05
3714.36,-5.314472201974717e-05
3715.26,-5.387560136453218e-05
3716.16,-5.273431094453876e-05
3717.06,-5.002354532099988e-05
3717.96,-4.648672543408651e-05
3718.86,-4.195331993501825e-05
3719.76,-3.7559854108834234e-05
3720.66,-3.394840095933092e-05
3721.56,-3.2066086571632656e-05
3722.46,-3.2367413950483466e-05
3723.36,-3.4424163494231426e-05
3724.26,-3.7427830687605534e-05
3725.16,-4.071555571569975e-05
3726.06,-4.332202940243167e-05
3726.96,-4.482271886894145e-05
3727.86,-4.5214641855374736e-05
3728.76,-4.510766642767704e-05
3729.66,-4.49616928802563e-05
3730.56,-4.366112292917479e-05
3731.46,-4.184016728131751e-05
3732.36,-3.9256333001118e-05
3733.26,-3.567464111877007e-05
3734.16,-3.2366100219168266e-05
3735.06,-2.9654111506947113e-05
3735.96,-2.833634201978348e-05
3736.86,-2.8711996266088473e-05
3737.76,-3.090822249272426e-05
3738.66,-3.4573592338458694e-05
3739.56,-3.872791216165745e-05
3740.46,-4.247710354240481e-05
3741.36,-4.504621491023845e-05
3742.26,-4.544908010082339e-05
3743.16,-4.429205842304872e-05
3744.06,-4.172805232660786e-05
3744.96,-3.884540412064557e-05
3745.86,-3.602517962229636e-05
3746.76,-3.372919245336142e-05
3747.67,-3.212465173987392e-05
3748.57,-3.1470083807202824e-05
3749.47,-3.2056252871925696e-05
3750.37,-3.4079042076126725e-05
3751.27,-3.7807239397536224e-05
3752.17,-4.26017806061107e-05
3753.07,-4.794323904925438e-05
3753.97,-5.244380259607942e-05
3754.87,-5.588015381077759e-05
3755.77,-5.7255499202852185e-05
3756.67,-5.6394603307679716e-05
3757.57,-5.387570768645146e-05
3758.47,-5.0745713486044405e-05
3759.37,-4.852460770865374e-05
3760.27,-4.7406154051767436e-05
3761.17,-4.7661826915797206e-05
3762.07,-4.856707945223165e-05
3762.97,-4.946138476404265e-05
3763.87,-5.030972847971908e-05
3764.77,-5.075079733078042e-05
3765.67,-5.1212467152942276e-05
3766.57,-5.1480696508207306e-05
3767.47,-5.2643107183263815e-05
3768.37,-5.394572178409471e-05
3769.27,-5.60979673954461e-05
3770.17,-5.86689571179268e-05
3771.07,-6.143464642947616e-05
3771.97,-6.420918718945236e-05
3772.87,-6.666848521992123e-05
3773.77,-6.909713803113533e-05
3774.67,-7.059856482448042e-05
3775.57,-7.128706538845195e-05
3776.47,-7.192624990997034e-05
3777.37,-7.267157682000358e-05
3778.27,-7.406820862553771e-05
3779.17,-7.530466334874165e-05
3780.07,-7.714150614260228e-05
3780.97,-7.903256802777992e-05
3781.87,-8.024853374584968e-05
3782.77,-8.168153390952573e-05
3783.67,-8.158459587320761e-05
3784.57,-8.011732062118182e-05
3785.47,-7.744639954772786e-05
3786.38,-7.385136562982654e-05
3787.28,-6.960187312885935e-05
3788.18,-6.610677619430067e-05
3789.08,-6.322355787038392e-05
3789.98,-6.203445249972929e-05
3790.88,-6.20538571232616e-05
3791.78,-6.236652569626726e-05
3792.68,-6.281810707240045e-05
3793.58,-6.248190671983956e-05
3794.48,-6.170002565098762e-05
3795.38,-6.001502181181758e-05
3796.28,-5.8645719357164695e-05
3797.18,-5.7268818535415034e-05
3798.08,-5.680704385622509e-05
3798.98,-5.745726558095985e-05
3799.88,-5.9255451908949675e-05
3800.78,-6.239827789064128e-05
3801.68,-6.741126313347738e-05
3802.58,-7.246861972241902e-05
3803.48,-7.646599583037861e-05
3804.38,-7.945453877164882e-05
3805.28,-8.127396988679394e-05
3806.18,-8.152907782962603e-05
3807.08,-8.107929407907744e-05
3807.98,-8.095885675475925e-05
3808.88,-8.164593114860273e-05
3809.78,-8.289668447221503e-05
3810.68,-8.354980096595237e-05
3811.58,-8.324282411677698e-05
3812.48,-8.10834185200498e-05
3813.38,-7.795305302415853e-05
3814.28,-7.334055896437825e-05
3815.18,-6.892378038270884e-05
3816.08,-6.561472160747909e-05
3816.98,-6.349086033148784e-05
3817.88,-6.245494826309228e-05
3818.78,-6.155990433444897e-05
3819.68,-6.0263980846659815e-05
3820.58,-5.898586609392582e-05
3821.48,-5.7940771562589844e-05
3822.38,-5.724823442477909e-05
3823.28,-5.660481003840534e-05
3824.18,-5.539602044211864e-05
3825.09,-5.377336473863567e-05
3825.99,-5.205349171859039e-05
3826.89,-5.036389164354956e-05
3827.79,-4.982893930748758e-05
3828.69,-4.9827420008638386e-05
3829.59,-5.092422171528625e-05
3830.49,-5.136608938408838e-05
3831.39,-5.166518615261743e-05
3832.29,-5.129671188699239e-05
3833.19,-5.093333588038083e-05
3834.09,-5.033626590290291e-05
3834.99,-5.083115781055025e-05
3835.89,-5.156700717015079e-05
3836.79,-5.240608547530476e-05
3837.69,-5.303519699456516e-05
3838.59,-5.3232921938464456e-05
3839.49,-5.407175744010337e-05
3840.39,-5.5732725127050515e-05
3841.29,-5.909467456394289e-05
3842.19,-6.424112335067411e-05
3843.09,-7.01199591371312e-05
3843.99,-7.568406092486783e-05
3844.89,-8.047353472540762e-05
3845.79,-8.436808934984816e-05
3846.69,-8.646174262637257e-05
3847.59,-8.719611523634207e-05
3848.49,-8.739523112437886e-05
3849.39,-8.71555767952672e-05
3850.29,-8.613605164631893e-05
3851.19,-8.614217973067151e-05
3852.09,-8.635406319680618e-05
3852.99,-8.635554597452108e-05
3853.89,-8.619732124690489e-05
3854.79,-8.478463287474303e-05
3855.69,-8.300332655665721e-05
3856.59,-8.013977445731559e-05
3857.49,-7.730134518349086e-05
3858.39,-7.454583591501761e-05
3859.29,-7.250961404704075e-05
3860.19,-7.279118306328046e-05
3861.09,-7.489312728886642e-05
3861.99,-7.9281665532003e-05
3862.9,-8.535011928841952e-05
3863.8,-9.066104105023959e-05
3864.7,-9.409678584498029e-05
3865.6,-9.667100776941595e-05
3866.5,-9.685046180082521e-05
3867.4,-9.616436293668365e-05
3868.3,-9.434325646910384e-05
3869.2,-9.170848118127634e-05
3870.1,-8.894017406179399e-05
3871.0,-8.692250031493722e-05
3871.9,-8.60327106028195e-05
3872.8,-8.693941503363604e-05
3873.7,-8.98905297455902e-05
3874.6,-9.455652658338797e-05
3875.5,-9.867958173545708e-05
3876.4,-0.00010150517256731901
3877.3,-0.00010213753258186911
3878.2,-0.00010089314211187516
3879.1,-9.878407022271192e-05
3880.0,-9.710770731121715e-05
3880.9,-9.684811588803064e-05
3881.8,-9.762789185903067e-05
3882.7,-9.908449775334504e-05
3883.6,-0.00010007356472469937
3884.5,-0.00010155230193434208
3885.4,-0.00010199686221135112
3886.3,-0.00010124649610021271
3887.2,-0.00010070319494646137
3888.1,-0.00010148154770865875
3889.0,-0.00010446770318399255
3889.9,-0.00010976299162986555
3890.8,-0.00011795823057391787
3891.7,-0.00012565752878848389
3892.6,-0.0001333903568448901
3893.5,-0.00013947823351027596
3894.4,-0.00014273678707667114
3895.3,-0.0001446440024713918
3896.2,-0.00014580005255649734
3897.1,-0.00014665589020374162
3898.0,-0.00014763114006987224
3898.9,-0.00014832326676433134
3899.8,-0.00014877324574904543
3900.7,-0.00014994488877590771
3901.6,-0.00014989973573078526
3902.51,-0.00014934801594125696
3903.41,-0.00014804934413448247
3904.31,-0.00014569084048077943
3905.21,-0.0001448743712382125
3906.11,-0.00014598490608833667
3907.01,-0.00014976289290142194
3907.91,-0.00015555037257979995
3908.81,-0.00016330935386491566
3909.71,-0.00017131176181529867
3910.61,-0.0001794264655906499
3911.51,-0.00018552589840006194
3912.41,-0.00018924522785424502
3913.31,-0.00019199066104862435
3914.21,-0.00019319268813757596
3915.11,-0.0001926496843198234
3916.01,-0.00019024794727643651
3916.91,-0.00018789895794749
3917.81,-0.00018282207760326956
3918.71,-0.00017630403623981696
3919.61,-0.00017078624763542565
3920.51,-0.00016378763485093244
3921.41,-0.0001582633211378978
3922.31,-0.00015448836259806268
3923.21,-0.00015234407629760813
3924.11,-0.00015136635538188915
3925.01,-0.00014938943812304475
3925.91,-0.00014558310044867956
3926.81,-0.0001388566705775936
3927.71,-0.0001296763795703565
3928.61,-0.0001175819546905873
3929.51,-0.00010499215264136163
3930.41,-9.212412636489027e-05
3931.31,-8.054072542278704e-05
3932.21,-7.097998883293212e-05
3933.11,-6.408958594525601e-05
3934.01,-6.05700884501424e-05
3934.91,-6.063028958821245e-05
3935.81,-6.488028978590655e-05
3936.71,-7.330359189935459e-05
3937.61,-8.4940644288888e-05
3938.51,-9.810004124502026e-05
3939.42,-0.00011233122810525205
3940.32,-0.00012485786553223857
3941.22,-0.0001364099889713495
3942.12,-0.00014451695856066386
3943.02,-0.00015144492641929868
3943.92,-0.00015715266197001586
3944.82,-0.00016481201548569394
3945.72,-0.0001738110023066358
3946.62,-0.00018444595268552288
3947.52,-0.00019635780775771177
3948.42,-0.00020763073712475676
3949.32,-0.00021785400568580628
3950.22,-0.00022709375405923342
3951.12,-0.0002341822748290204
3952.02,-0.00023974951050878825
3952.92,-0.00024357800613115628
3953.82,-0.0002464835309940851
3954.72,-0.0002487672034894392
3955.62,-0.0002481305102995294
3956.52,-0.00024774873170807065
3957.42,-0.0002459786249688359
3958.32,-0.00024143922750225648
3959.22,-0.00023603953973355704
3960.12,-0.00022621874997052533
3961.02,-0.00021408461024526897
3961.92,-0.00019848697653500002
3962.82,-0.00018227403138021392
3963.72,-0.0001662190691528737
3964.62,-0.00015129741571054154
3965.52,-0.00013662364706567851
3966.42,-0.00012242476840862895
3967.32,-0.00010991404083420996
3968.22,-9.928382351405537e-05
3969.12,-9.364784708412526e-05
3970.02,-9.393577763528328e-05
3970.92,-0.00010068085651219108
3971.82,-0.00011412755910342259
3972.72,-0.00013121447354916472
3973.62,-0.00015215093835508896
3974.52,-0.00017472413712006066
3975.42,-0.00019763753648227114
3976.32,-0.00022031867066211767
3977.22,-0.00024271622015691597
3978.13,-0.0002647751551529665
3979.03,-0.0002837087848802267
3979.93,-0.00030088611112717896
3980.83,-0.00031499026671026793
3981.73,-0.0003239835622835732
3982.63,-0.0003304221919984728
3983.53,-0.0003359050042765405
3984.43,-0.0003403193163664724
3985.33,-0.00034395922409625367
3986.23,-0.00035188080893790147
3987.13,-0.0003587429599621215
3988.03,-0.0003665148680169079
3988.93,-0.0003780883322900167
3989.83,-0.0003826118986499664
3990.73,-0.0003890122324573329
3991.63,-0.00039508587522911096
3992.53,-0.0003998981139694809
3993.43,-0.0004034908566806075
3994.33,-0.00040560528939193556
3995.23,-0.00040847578342978225
3996.13,-0.0004047059086091591
3997.03,-0.00040720261407493533
3997.93,-0.0004081332234584251
3998.83,-0.000415853687533077
3999.73,-0.0004257866836606392
4000.63,-0.0004374828123680028
4001.53,-0.0004484668518552511
4002.43,-0.00045637704653228773
4003.33,-0.00045750238960724093
4004.23,-0.0004531511375672451
4005.13,-0.0004457907172652379
4006.03,-0.0004404713278805914
4006.93,-0.00043807822119285847
4007.83,-0.00044129339575587647
4008.73,-0.00045123104550007345
4009.63,-0.00046379088223019087
4010.53,-0.00047668644425437416
4011.43,-0.00048783661374617444
4012.33,-0.0004985040767313248
4013.23,-0.0005113684342779418
4014.13,-0.0005157952676067949
4015.03,-0.0005214683595004181
4015.93,-0.0005263738739028048
4016.84,-0.0005317182449820252
4017.74,-0.0005378688973809677
4018.64,-0.0005416025954393337
4019.54,-0.0005461702149153264
4020.44,-0.000548267035813521
4021.34,-0.000553999352445258
4022.24,-0.0005601562315172997
4023.14,-0.000559145422187247
4024.04,-0.000560636628920051
4024.94,-0.0005613314767178684
4025.84,-0.0005682919234678282
4026.74,-0.0005737544424906456
4027.64,-0.0005773043242996846
4028.54,-0.0005797624336848444
4029.44,-0.0005703783122958199
4030.34,-0.0005572329916687287
4031.24,-0.0005363071314595226
4032.14,-0.0005200678170641114
4033.04,-0.000505679353642864
4033.94,-0.0005040032055680318
4034.84,-0.0005112893103705985
4035.74,-0.0005332470355210674
4036.64,-0.0005621405338219484
4037.54,-0.0005933301103667802
4038.44,-0.0006197842319495789
4039.34,-0.0006391695897048571
4040.24,-0.0006464200740443164
4041.14,-0.0006501107625474511
4042.04,-0.0006395774285183562
4042.94,-0.0006222303483825726
4043.84,-0.0005986068154847137
4044.74,-0.0005731858297871231
4045.64,-0.0005506666233401165
4046.54,-0.0005422128957214553
4047.44,-0.0005481628574902211
4048.34,-0.0005722961353705167
4049.24,-0.0006034529221925178
4050.14,-0.0006412185378382751
4051.04,-0.0006666693587651341
4051.94,-0.0006843071860460626
4052.84,-0.0006903122217675446
4053.74,-0.0006872965895922854
4054.65,-0.000678676737848373
4055.55,-0.0006670198300642278
4056.45,-0.0006601520828442127
4057.35,-0.0006528970092066951
4058.25,-0.0006507749160121339
4059.15,-0.0006500022538650374
4060.05,-0.000656319562676228
4060.95,-0.0006587535821826202
4061.85,-0.0006538038490651257
4062.75,-0.0006433167444828799
4063.65,-0.0006354542540023479
4064.55,-0.0006274006526151673
4065.45,-0.000631058765656333
4066.35,-0.0006432477370163662
4067.25,-0.0006647193916510277
4068.15,-0.0006912665948252029
4069.05,-0.0007137256546314411
4069.95,-0.0007261394446876593
4070.85,-0.0007326687468869271
4071.75,-0.0007378902979537311
4072.65,-0.000733866362765084
4073.55,-0.0007397721181432962
4074.45,-0.000740079003839193
4075.35,-0.0007404205283899404
4076.25,-0.0007442479758848967
4077.15,-0.0007364953221029986
4078.05,-0.0007389122224893282
4078.95,-0.0007505814588066438
4079.85,-0.0007771471998299546
4080.75,-0.0008103083744126864
4081.65,-0.0008428114338160326
4082.55,-0.0008688143862289907
4083.45,-0.000886676764240848
4084.35,-0.0009018013029151515
4085.25,-0.0009079151000745534
4086.15,-0.0009228629448063263
4087.05,-0.0009439496858267521
4087.95,-0.0009731944809900416
4088.85,-0.0010002305845054548
4089.75,-0.0010198035350192074
4090.65,-0.0010260961344059415
4091.55,-0.0010298646617544413
4092.45,-0.0010265081131968505
4093.36,-0.0010153903641198336
4094.26,-0.0009973171610982332
4095.16,-0.000984515000671741
4096.06,-0.0009606180129565199
4096.96,-0.0009403221137867538
4097.86,-0.0009207878521952431
4098.76,-0.0009005638688665279
4099.66,-0.0008774162059379098
4100.56,-0.0008594155144905565
4101.46,-0.0008451737000292871
4102.36,-0.0008428719833948462
4103.26,-0.0008527711905064913
4104.16,-0.0008805106031081791
4105.06,-0.0009207541637593992
4105.96,-0.0009675390363569636
4106.86,-0.001005939166122518
4107.76,-0.0010363979909040577
4108.66,-0.0010625580818115407
4109.56,-0.001072295063840322
4110.46,-0.001080752943873491
4111.36,-0.0010900991300958358
4112.26,-0.0010994507879799485
4113.16,-0.0011173089979923168
4114.06,-0.0011385380181165266
4114.96,-0.0011590219070726385
4115.86,-0.0011795853295898954
4116.76,-0.001192068457934774
4117.66,-0.0011970611336423835
4118.56,-0.0011975014004792805
4119.46,-0.0011879017556700954
4120.36,-0.0011872072285760054
4121.26,-0.0011877698566184964
4122.16,-0.001199121333174964
4123.06,-0.0012057538159736425
4123.96,-0.0012229745528111089
4124.86,-0.0012368528147283276
4125.76,-0.0012495990317584447
4126.66,-0.0012534450231082397
4127.56,-0.0012534828070419962
4128.46,-0.0012429861057880736
4129.36,-0.001237362200266641
4130.26,-0.0012221019426996713
4131.17,-0.0012062721613102015
4132.06,-0.0011935116733403966
4132.97,-0.001184294091938071
4133.87,-0.0011881818550717135
4134.77,-0.001215526337360984
4135.67,-0.001248089858650393
4136.57,-0.001290588261785432
4137.47,-0.0013366901206405192
4138.37,-0.001383119901849137
4139.27,-0.0014084944309072259
4140.17,-0.0014115054269216785
4141.07,-0.001401821381432978
4141.97,-0.001376642145298094
4142.87,-0.0013397296834472766
4143.77,-0.0013139832855654677
4144.67,-0.0012975220928128897
4145.57,-0.0013049088737290993
4146.47,-0.0013240828834053997
4147.37,-0.001356408113315941
4148.27,-0.0013941271476507946
4149.17,-0.0014224584736035964
4150.07,-0.0014321054116673538
4150.97,-0.0014327965746613392
4151.87,-0.00143683997753926
4152.77,-0.0014306701860775284
4153.67,-0.0014362327676907087
4154.57,-0.0014411104713171962
4155.47,-0.0014397733498027535
4156.37,-0.0014564299549950633
4157.27,-0.0014864941277170135
4158.17,-0.001518509675686319
4159.07,-0.0015620750113341196
4159.97,-0.0016123335739055887
4160.87,-0.0016575173000279604
4161.77,-0.0016971292688928198
4162.67,-0.001733778153390428
4163.57,-0.0017648741752237635
4164.47,-0.0017724137605245526
4165.37,-0.0017695070161933499
4166.27,-0.0017583541123529975
4167.17,-0.0017452485936130721
4168.07,-0.0017392983089379315
4168.98,-0.001740693315457268
4169.88,-0.0017365539484640396
4170.78,-0.0017254320989658165
4171.68,-0.0017068943972393092
4172.58,-0.0016790004371650552
4173.48,-0.001655646927653836
4174.38,-0.0016576636379466091
4175.28,-0.0016575363432806472
4176.18,-0.0016766814678452608
4177.08,-0.0017093349802549981
4177.98,-0.0017360024944682241
4178.88,-0.0017684615014246317
4179.78,-0.0018020674533140552
4180.68,-0.0018272092256012029
4181.58,-0.0018535372908136097
4182.48,-0.0018822629335269762
4183.38,-0.0019140378291200902
4184.28,-0.0019359722922679293
4185.18,-0.00196255862224876
4186.08,-0.001984566179881933
4186.98,-0.0019867561317309782
4187.88,-0.001997584769181366
4188.78,-0.0020251021550318836
4189.68,-0.002040463759351912
4190.58,-0.0020801847887493923
4191.48,-0.0021249325902244075
4192.38,-0.002160247627501963
4193.28,-0.002191608189030904
4194.18,-0.002221217083927671
4195.08,-0.002203731326397907
4195.98,-0.0021660997537274822
4196.88,-0.0021343088880226902
4197.78,-0.002087938483621064
4198.68,-0.0020638287530780988
4199.58,-0.002045254901861487
4200.48,-0.002048557768920583
4201.38,-0.00207059018449496
4202.28,-0.0021089796421740054
4203.18,-0.0021694810199167384
4204.08,-0.0022380548720987072
4204.98,-0.0023232378324479297
4205.88,-0.0024045722618094554
4206.79,-0.002498963238346877
4207.69,-0.0025683244627055317
4208.59,-0.002626497483250624
4209.49,-0.002675273311464047
4210.39,-0.0026974404409128307
4211.29,-0.0027169357530789366
4212.19,-0.00271294908385587
4213.09,-0.0027108868135192724
4213.99,-0.002698974017771215
4214.89,-0.002679548953690956
4215.79,-0.002685889923205767
4216.69,-0.002705109820605471
4217.59,-0.0027678900054170412
4218.49,-0.0028500524109905593
4219.39,-0.0029338430577310233
4220.29,-0.0030157376179211805
4221.19,-0.003044690571320629
4222.09,-0.003022961949254661
4222.99,-0.0029464800025641885
4223.89,-0.0028134303918479946
4224.79,-0.002656600042082776
4225.69,-0.002511444888882743
4226.59,-0.002370979161703192
4227.49,-0.002324960457187969
4228.39,-0.002371091213757871
4229.29,-0.0025021876944992553
4230.19,-0.002696116983741423
4231.09,-0.002877944116287662
4231.99,-0.0030400960806472995
4232.89,-0.0031430003654795776
4233.79,-0.003205975492685612
4234.69,-0.0032248662377693063
4235.59,-0.003218791203806396
4236.49,-0.0032014601904500795
4237.39,-0.003228050368791969
4238.29,-0.0032477192062049204
4239.19,-0.003321454483559917
4240.09,-0.003405325700321324
4240.99,-0.003525747046178898
4241.89,-0.0036383037523190003
4242.79,-0.0037634447297439314
4243.69,-0.00385950696566365
4244.59,-0.003959893117623668
4245.5,-0.00400593486655797
4246.4,-0.004027518750275037
4247.3,-0.003986327691443467
4248.2,-0.003902222071264404
4249.1,-0.003817757182792772
4250.0,-0.0037351582730206843
4250.9,-0.003681326900048454
4251.8,-0.003670575361379174
4252.7,-0.0036730474941723194
4253.6,-0.0037255430777684596
4254.5,-0.003778724207898387
4255.4,-0.0038507087900424837
4256.3,-0.003902208168708701
4257.2,-0.003983201280937107
4258.1,-0.004029083577036527
4259.0,-0.0040334568983370475
4259.9,-0.004043133405821843
4260.8,-0.004071499974075005
4261.7,-0.0041404993113276925
4262.6,-0.004254980199196767
4263.5,-0.00444367444924878
4264.4,-0.00461535679536351
4265.3,-0.00479883847783691
4266.2,-0.0049092690691014676
4267.1,-0.004960704525075041
4268.0,-0.004899918248583436
4268.9,-0.004772264194917163
4269.8,-0.004580995009131092
4270.7,-0.00437777309100157
4271.6,-0.004189409872609894
4272.5,-0.004038850452762256
4273.4,-0.003978156493149706
4274.3,-0.004020742541130097
4275.2,-0.004160914728095168
4276.1,-0.004372988881843467
4277.0,-0.004617985936067157
4277.9,-0.004862777678014283
4278.8,-0.005070424466980151
4279.7,-0.005209701744221913
4280.6,-0.0053207530287014545
4281.5,-0.005372062073018442
4282.4,-0.0053753447908807825
