wave,flux
3700.85,-0.023080622282406864
3701.75,-0.023061305079114774
3702.65,-0.02275224070862881
3703.55,-0.021924584180224544
3704.45,-0.021068294100352686
3705.35,-0.020243756642645685
3706.25,-0.019616424709249715
3707.15,-0.0196138881249642
3708.05,-0.01982556726071063
3708.96,-0.020594146422526258
3709.86,-0.021577753189595344
3710.76,-0.022805620057700825
3711.66,-0.02439920474355291
3712.56,-0.026145750438793428
3713.46,-0.027732571537927728
3714.36,-0.029265950003519274
3715.26,-0.030344037426966942
3716.16,-0.0308736545429276
3717.06,-0.03068001333421234
3717.96,-0.029839626826554378
3718.86,-0.028370480967123038
3719.76,-0.02658024849961675
3720.66,-0.025168435834623068
3721.56,-0.024135395177073703
3722.46,-0.024292517255744436
3723.36,-0.025523268812057888
3724.26,-0.027590203685998405
3725.16,-0.029945221839584226
3726.06,-0.03193040606930979
3726.96,-0.03345330749439685
3727.86,-0.03446917057330161
3728.76,-0.035070976757501794
3729.66,-0.035448672790571734
3730.56,-0.03546664205205162
3731.46,-0.03460367375046979
3732.36,-0.033299489912949995
3733.26,-0.03147092703924431
3734.16,-0.029407956754808305
3735.06,-0.028064303270390122
3735.96,-0.027465058653198784
3736.86,-0.028296008404530282
3737.76,-0.030310026083795103
3738.66,-0.03371801749092619
3739.56,-0.0373257166408785
3740.46,-0.04082846896059594
3741.36,-0.043499217643462776
3742.26,-0.04499990588042545
3743.16,-0.0449839771357359
3744.06,-0.0439736865049711
3744.96,-0.042726265523721704
3745.86,-0.04103313043803113
3746.76,-0.03976081926922542
3747.67,-0.0383754902856931
3748.57,-0.03743413520855606
3749.47,-0.03758297460578178
3750.37,-0.03915966420770809
3751.27,-0.0424699187867669
3752.17,-0.04708627880328649
3753.07,-0.05289922881216162
3753.97,-0.05794195427646722
3754.87,-0.06265572302958007
3755.77,-0.0653705410648668
3756.67,-0.06657553642464165
3757.57,-0.06627514989737164
3758.47,-0.06467350290823523
3759.37,-0.06380830958234496
3760.27,-0.0638860872671615
3761.17,-0.06556648745157856
3762.07,-0.06778264920206518
3762.97,-0.0707063496409905
3763.87,-0.07311053489705081
3764.77,-0.0756156875617407
3765.67,-0.07712156600567532
3766.57,-0.07862963020913574
3767.47,-0.07909536394539304
3768.37,-0.08029343887546911
3769.27,-0.08192664560949166
3770.17,-0.08368716076303688
3771.07,-0.08687929992473309
3771.97,-0.09073555836308424
3772.87,-0.09567723078326537
3773.77,-0.10144631215988256
3774.67,-0.10680683622198714
3775.57,-0.11185920861422052
3776.47,-0.11604981216069458
3777.37,-0.12061585932949022
3778.27,-0.12557995549861783
3779.17,-0.13141198112820723
3780.07,-0.1369747014721173
3780.97,-0.14279561891827816
3781.87,-0.14887971727536636
3782.77,-0.1537903702475405
3783.67,-0.15753307676652797
3784.57,-0.159058128450744
3785.47,-0.15846543861622941
3786.38,-0.15734654399249098
3787.28,-0.15612696700794135
3788.18,-0.15351410257880088
3789.08,-0.15289496162634283
3789.98,-0.15426289110337846
3790.88,-0.15742942870215446
3791.78,-0.16071678917534118
3792.68,-0.16416406129383126
3793.58,-0.16544074679335902
3794.48,-0.16510837169975207
3795.38,-0.16495876436328588
3796.28,-0.16308545165231508
3797.18,-0.16169546561747614
3798.08,-0.16252474372942508
3798.98,-0.16757973077503704
3799.88,-0.1774455801599974
3800.78,-0.19277864984259716
3801.68,-0.2130220170612488
3802.58,-0.23476066760000527
3803.48,-0.2547813623911565
3804.38,-0.27315414402141314
3805.28,-0.2879571256247894
3806.18,-0.29816151102641786
3807.08,-0.30791957308132595
3807.98,-0.31854948352383744
3808.88,-0.33142088988353463
3809.78,-0.34478728797403413
3810.68,-0.3602685896965466
3811.58,-0.36935359691170905
3812.48,-0.37673548991363887
3813.38,-0.37799248603662555
3814.28,-0.37557924123809294
3815.18,-0.3741960820719645
3816.08,-0.3794281951872882
3816.98,-0.38837075598351256
3817.88,-0.40152843075855
3818.78,-0.4174017007974874
3819.68,-0.43101695789057637
3820.58,-0.4420701829707907
3821.48,-0.45444512924170716
3822.38,-0.4696856143006906
3823.28,-0.4853053276965001
3824.18,-0.49716440914264104
3825.09,-0.5102784049629333
3825.99,-0.5183114157614532
3826.89,-0.5303642117141814
3827.79,-0.5465853834198031
3828.69,-0.5706516974399821
3829.59,-0.6033031882711246
3830.49,-0.6301447104853344
3831.39,-0.6583107565221291
3832.29,-0.6803151792771791
3833.19,-0.7000233919419993
3834.09,-0.7313252912476234
3834.99,-0.7709043072461282
3835.89,-0.8235536184879956
3836.79,-0.8996302362507531
3837.69,-0.9978891643388442
3838.59,-1.1290150780510784
3839.49,-1.2956591981305077
3840.39,-1.5292218893383989
3841.29,-1.8373294962269076
3842.19,-2.288986318295214
3843.09,-2.9054105433504707
3843.99,-3.75104753622634
3844.89,-4.964168431065387
3845.79,-6.91960921717556
3846.69,-10.660787144379022
3847.59,-21.443269320499883
3848.49,-557.4183550453656
3849.39,24.006107816958085
3850.29,11.825927898278836
3851.19,7.9238262041396395
3852.09,6.0220034489834084
3852.99,4.850277054062437
3853.89,4.072331385221559
3854.79,3.4938471770112955
3855.69,3.0409833335286085
3856.59,2.6591694024930614
3857.49,2.351881692673976
3858.39,2.10463683504359
3859.29,1.90620797285148
3860.19,1.7755634949763515
3861.09,1.6823689970517548
3861.99,1.6455699733216536
3862.9,1.6210488465016135
3863.8,1.603719448531029
3864.7,1.572918203912016
3865.6,1.5263623284388828
3866.5,1.4634338051685867
3867.4,1.4067793642648159
3868.3,1.3503966021708083
3869.2,1.283482763790946
3870.1,1.2182480747584097
3871.0,1.1507694572408274
3871.9,1.0888396391864992
3872.8,1.047987996852101
3873.7,1.0202789365198384
3874.6,1.0080061548253234
3875.5,0.9969967600040023
3876.4,0.9873896224185867
3877.3,0.9618618768168298
3878.2,0.9379328941246154
3879.1,0.904395125784434
3880.0,0.8860359002861796
3880.9,0.8680510916969333
3881.8,0.8498739898624393
3882.7,0.8399964158187945
3883.6,0.8198573196232573
3884.5,0.7968862865859185
3885.4,0.7646055157240929
3886.3,0.7273116563452554
3887.2,0.6960445471761606
3888.1,0.6699242133711051
3889.0,0.6546835042944898
3889.9,0.6560782639326744
3890.8,0.6731816109640216
3891.7,0.6992706539472586
3892.6,0.7262294901843381
3893.5,0.7503940948176928
3894.4,0.7664838428012591
3895.3,0.7735599126982279
3896.2,0.7804621438042578
3897.1,0.7832237506458714
3898.0,0.781605427265392
3898.9,0.7855766052652008
3899.8,0.7851572018332146
3900.7,0.7843397512741787
3901.6,0.7795111028546295
3902.51,0.7733717777241385
3903.41,0.7644480968859858
3904.31,0.7542109317508485
3905.21,0.7428937761708002
3906.11,0.7382148257648009
3907.01,0.7405627862579313
3907.91,0.7497090877026825
3908.81,0.7696192514131025
3909.71,0.7944698726092653
3910.61,0.8087478588481689
3911.51,0.8205387988835524
3912.41,0.8308266243022713
3913.31,0.8290706664904525
3914.21,0.827154541189027
3915.11,0.8171601981081471
3916.01,0.802707918075237
3916.91,0.7865194289055583
3917.81,0.7698351941080749
3918.71,0.7514134655209724
3919.61,0.7298095898697415
3920.51,0.7114396023345194
3921.41,0.6920820205588646
3922.31,0.679640907920155
3923.21,0.6698944931032232
3924.11,0.6590715476967858
3925.01,0.6456551459456037
3925.91,0.6249380697460025
3926.81,0.5914762257154182
3927.71,0.5498750605466076
3928.61,0.49825795822265967
3929.51,0.4420410622044234
3930.41,0.3870097067665439
3931.31,0.3354676541720063
3932.21,0.2891713970825708
3933.11,0.25393080312743355
3934.01,0.23308064378432825
3934.91,0.22999792565174298
3935.81,0.2439128179072685
3936.71,0.27658895795808386
3937.61,0.3219564266676603
3938.51,0.37426664310684676
3939.42,0.42784191438642516
3940.32,0.47738524536613236
3941.22,0.5204937065406683
3942.12,0.5528279194784897
3943.02,0.5774354697075147
3943.92,0.5994939086514509
3944.82,0.6230997407580722
3945.72,0.6469597950664038
3946.62,0.671201685154813
3947.52,0.6936520423951559
3948.42,0.711797134601016
3949.32,0.7326693089966486
3950.22,0.74747130401151
3951.12,0.7580799500499048
3952.02,0.7684749140701121
3952.92,0.7726910929270354
3953.82,0.7773978726319879
3954.72,0.7802818557379644
3955.62,0.7764974538044837
3956.52,0.7733154397141258
3957.42,0.7649604123594637
3958.32,0.7569872407890333
3959.22,0.7407806100411949
3960.12,0.7203326292633808
3961.02,0.6876775278140929
3961.92,0.6464640666425399
3962.82,0.6021754470546365
3963.72,0.5507285540210245
3964.62,0.5014421118890879
3965.52,0.44977232846896414
3966.42,0.39768851603244215
3967.32,0.3489986745259395
3968.22,0.30828485368493885
3969.12,0.2837569037910989
3970.02,0.28021918210468916
3970.92,0.2971010994125702
3971.82,0.3324007773744802
3972.72,0.3830632111039736
3973.62,0.4419822461083979
3974.52,0.5014819761805964
3975.42,0.5616155954612858
3976.32,0.618856882577271
3977.22,0.6705707847483385
3978.13,0.7202379879756095
3979.03,0.7627023872010992
3979.93,0.794711046823942
3980.83,0.8199916830255759
3981.73,0.8389561629655926
3982.63,0.8472978920637846
3983.53,0.8537850530998906
3984.43,0.8630528139888608
3985.33,0.8709397369312162
3986.23,0.8812666217904497
3987.13,0.8956918275947385
3988.03,0.901162941645165
3988.93,0.9175287159992491
3989.83,0.9298548401757756
3990.73,0.935030578994769
3991.63,0.9450523880986683
3992.53,0.9515791137683279
3993.43,0.958365991596361
3994.33,0.9515254910714824
3995.23,0.9512795223951738
3996.13,0.9406633125887891
3997.03,0.9336164231426537
3997.93,0.928432687047327
3998.83,0.930042047099157
3999.73,0.9450606109182167
4000.63,0.9627699207536192
4001.53,0.9757285613376014
4002.43,0.987805043091167
4003.33,0.9827586454990662
4004.23,0.9715945447211525
4005.13,0.9622101373991644
4006.03,0.9488616720503944
4006.93,0.9418055027184068
4007.83,0.9441068804682509
4008.73,0.9586149614481807
4009.63,0.9742285190764861
4010.53,0.990238501679784
4011.43,1.006644724220518
4012.33,1.013995330634784
4013.23,1.0215993032273547
4014.13,1.0219960652213986
4015.03,1.0269053774985966
4015.93,1.0291318176630142
4016.84,1.0308552573096648
4017.74,1.0302426161946763
4018.64,1.0353046998369393
4019.54,1.0368347271565468
4020.44,1.0359858325596614
4021.34,1.0367203398143041
4022.24,1.038905171335296
4023.14,1.043611145680511
4024.04,1.0397881569786236
4024.94,1.0412925796474415
4025.84,1.038408972293826
4026.74,1.0493286916709241
4027.64,1.0594744722967218
4028.54,1.0520302322777801
4029.44,1.0441186530760302
4030.34,1.0176722118501134
4031.24,0.9923636171176077
4032.14,0.9662758507484965
4033.04,0.9553843598735186
4033.94,0.9513918266314598
4034.84,0.9627784805325287
4035.74,0.9821807489812622
4036.64,1.0109365350350692
4037.54,1.043779424607987
4038.44,1.0662952913365384
4039.34,1.0772361270902933
4040.24,1.0807092177990112
4041.14,1.0729689830194393
4042.04,1.0552242177999818
4042.94,1.0267211694956166
4043.84,1.0019116558640273
4044.74,0.970096839895352
4045.64,0.9481737871935254
4046.54,0.9327968136861994
4047.44,0.9391555846969691
4048.34,0.9585059754114974
4049.24,0.9903941631093023
4050.14,1.022031712119631
4051.04,1.043359030970522
4051.94,1.0526027274730743
4052.84,1.0520415103960161
4053.74,1.0450646245010395
4054.65,1.0309178171075224
4055.55,1.0125053912633075
4056.45,1.0015581535680314
4057.35,0.995138793785531
4058.25,0.9926210405783887
4059.15,0.9910717727085231
4060.05,0.9943950040029316
4060.95,0.9966865748719007
4061.85,0.9913861525897946
4062.75,0.9714998982816185
4063.65,0.9572476196310129
4064.55,0.9445048311610118
4065.45,0.9440713353052074
4066.35,0.9486755540241157
4067.25,0.9639284294224739
4068.15,0.9823887994245432
4069.05,0.9973364072650064
4069.95,1.0038275125513318
4070.85,1.0048768538110573
4071.75,0.995593096905593
4072.65,0.9935024007816597
4073.55,0.9859416115759518
4074.45,0.9817327565289121
4075.35,0.9680092436172857
4076.25,0.9570684444264246
4077.15,0.9406337710109915
4078.05,0.9332290947427437
4078.95,0.9308401483203542
4079.85,0.9484883811902993
4080.75,0.9684010158187472
4081.65,0.9900039921811722
4082.55,1.0093453782577888
4083.45,1.0216934436537874
4084.35,1.0227621977617734
4085.25,1.0273777764430805
4086.15,1.0395189966990273
4087.05,1.0494157566407176
4087.95,1.0688390144264865
4088.85,1.0803286280460243
4089.75,1.093860715107751
4090.65,1.0963722399658962
4091.55,1.095258860362503
4092.45,1.0846780951489199
4093.36,1.0705269545751674
4094.26,1.0547844407950402
4095.16,1.036836980701106
4096.06,1.0120278287197906
4096.96,0.9865052472556225
4097.86,0.9529175518947185
4098.76,0.9265398099364752
4099.66,0.890584139480513
4100.56,0.858010861459875
4101.46,0.8300309194410098
4102.36,0.811629237114781
4103.26,0.8142460503558022
4104.16,0.8294827458288255
4105.06,0.8589691166125303
4105.96,0.8965776620535313
4106.86,0.9357591637584614
4107.76,0.9624433728962616
4108.66,0.975739203220115
4109.56,0.9830167914318363
4110.46,0.9943564129135545
4111.36,0.9976114279712939
4112.26,1.0070463137659595
4113.16,1.015269976193559
4114.06,1.0300970268746394
4114.96,1.0425881544280122
4115.86,1.0471840765923492
4116.76,1.0505330996456952
4117.66,1.0452245978072203
4118.56,1.040874569309374
4119.46,1.0300333079329158
4120.36,1.022865209283345
4121.26,1.0177321725389463
4122.16,1.0190192227498942
4123.06,1.0212589281900029
4123.96,1.0225588399886003
4124.86,1.027217578604306
4125.76,1.030936326950459
4126.66,1.0253412503867052
4127.56,1.025082130573804
4128.46,1.0171902036285325
4129.36,1.005921161998339
4130.26,0.99071992341254
4131.17,0.9793058910155829
4132.06,0.9681692218646321
4132.97,0.9606843749833922
4133.87,0.9576280532757664
4134.77,0.9682925346622951
4135.67,0.9847004987955921
4136.57,1.0008528729819663
4137.47,1.0227024788589576
4138.37,1.0372319776175638
4139.27,1.0509942908758907
4140.17,1.049696649496807
4141.07,1.0381826208382472
4141.97,1.0193233236081478
4142.87,0.9915383815322293
4143.77,0.9753182057184913
4144.67,0.9691611006159087
4145.57,0.9703256741257766
4146.47,0.9752186905218179
4147.37,0.9916616036198682
4148.27,1.0011002780066933
4149.17,1.0122984697826385
4150.07,1.0107253849038065
4150.97,1.013178695665727
4151.87,1.0028641960946767
4152.77,0.9982423783550426
4153.67,0.9926049060035085
4154.57,0.9898391820540468
4155.47,0.9865274167380867
4156.37,0.9843359226524901
4157.27,0.9933894127967909
4158.17,1.0033067664907391
4159.07,1.013959416029934
4159.97,1.0277835023707662
4160.87,1.0426002435006148
4161.77,1.0581533698988337
4162.67,1.0594441820462113
4163.57,1.063564697471785
4164.47,1.0620965852107407
4165.37,1.063030463876068
4166.27,1.0520901649021484
4167.17,1.0414136029741115
4168.07,1.0361733489646423
4168.98,1.0259816941451283
4169.88,1.0167790049970182
4170.78,1.0002253186762566
4171.68,0.9837185792310578
4172.58,0.9667446574711803
4173.48,0.9541804810461008
4174.38,0.9417910145307457
4175.28,0.9405327965592477
4176.18,0.9448032478232957
4177.08,0.953106925074509
4177.98,0.9660455778745655
4178.88,0.9747988537366412
4179.78,0.9878032339572785
4180.68,0.9904935097062922
4181.58,0.9988064085559643
4182.48,1.0033571314265237
4183.38,1.0060301908561116
4184.28,1.006823840951189
4185.18,1.0064657769487164
4186.08,1.004355246468275
4186.98,0.9998028835338139
4187.88,0.9981308492285024
4188.78,1.000156580065554
4189.68,0.9990111189669468
4190.58,1.008912239346442
4191.48,1.0203287710776463
4192.38,1.0241053441415262
4193.28,1.0382957113893552
4194.18,1.0369711629421476
4195.08,1.029368391571087
4195.98,1.0163432279344793
4196.88,0.9981908653800904
4197.78,0.9820557045475009
4198.68,0.96927523638573
4199.58,0.9571795420072144
4200.48,0.9472349036885487
4201.38,0.9485435614769309
4202.28,0.9480013723263084
4203.18,0.9568694686208604
4204.08,0.9760650712699943
4204.98,0.9903530360248957
4205.88,1.0051727638254229
4206.79,1.0242446987179097
4207.69,1.039135737739514
4208.59,1.0504506221686853
4209.49,1.0621222387221654
4210.39,1.0653214910821702
4211.29,1.06982425235956
4212.19,1.0633743635452917
4213.09,1.0622941241684336
4213.99,1.0534562764643545
4214.89,1.0384998427627732
4215.79,1.0378898998073227
4216.69,1.0282113397960928
4217.59,1.0318525683710411
4218.49,1.0434429840461137
4219.39,1.0583871010057933
4220.29,1.067171613658708
4221.19,1.0682249094438763
4222.09,1.0583628296949072
4222.99,1.0369212401827166
4223.89,0.9988813262554177
4224.79,0.9562840703701814
4225.69,0.9191852250749752
4226.59,0.8823188196125253
4227.49,0.8721850428802052
4228.39,0.8800928903026878
4229.29,0.9070665118036956
4230.19,0.9508131466100952
4231.09,0.987823051780847
4231.99,1.0158633656996336
4232.89,1.0287629719887832
4233.79,1.0320563097744138
4234.69,1.0272181605977655
4235.59,1.0243412050165404
4236.49,1.0120542213159833
4237.39,1.0036927676628156
4238.29,1.0036390808538327
4239.19,1.0123816444428655
4240.09,1.0229222544802197
4240.99,1.0348231497336908
4241.89,1.0504529142872145
4242.79,1.064552779429369
4243.69,1.0754986896815926
4244.59,1.0783297705992378
4245.5,1.0802826221677277
4246.4,1.0727016146607893
4247.3,1.0581285917136773
4248.2,1.045165635697862
4249.1,1.024412661674743
4250.0,1.0139696055711909
4250.9,1.0061511819863442
4251.8,1.0068967537586977
4252.7,1.0100542736611984
4253.6,1.0130307852222518
4254.5,1.0220293143802293
4255.4,1.028867649458426
4256.3,1.0317399152412678
4257.2,1.0364547788154732
4258.1,1.0327957086539143
4259.0,1.0258668399897093
4259.9,1.0176498189412737
4260.8,1.0116241444030123
4261.7,1.0213660797565924
4262.6,1.025680417976077
4263.5,1.0488127326387533
4264.4,1.0738386912786515
4265.3,1.0877488361034486
4266.2,1.09600629947566
4267.1,1.09622837900715
4268.0,1.08382142056329
4268.9,1.0581649372399269
4269.8,1.0327578618912194
4270.7,0.9963476169498597
4271.6,0.9661441203712016
4272.5,0.9436060350799842
4273.4,0.9311192791492096
4274.3,0.9345551255876544
4275.2,0.9506497034854066
4276.1,0.9700897812312796
4277.0,0.9971990316373314
4277.9,1.0181627951066612
4278.8,1.042071501901594
4279.7,1.047869872703528
4280.6,1.049154652984057
4281.5,1.0455275423160484
4282.4,1.0398578686675732
4283.31,1.033514203273277
4284.21,1.026321271598511
4285.11,1.0203526796651499
4286.01,1.0012708164036799
4286.91,0.9912233756413236
4287.81,0.9735796785144101
4288.71,0.9564142759784454
4289.61,0.9441365688800164
4290.51,0.9361704711599317
4291.41,0.9335290412555697
4292.31,0.9409676063208098
4293.21,0.9518713142484018
4294.11,0.9593227530577281
4295.01,0.9620020748631422
4295.91,0.9548929324275374
4296.81,0.9365072942469392
4297.71,0.9149507318057191
4298.61,0.8760180773933374
4299.51,0.8448369350905668
4300.41,0.8171360198253114
4301.31,0.7954640343699645
4302.21,0.7826692193588446
4303.11,0.7791841215119574
4304.01,0.7748121178993602
4304.91,0.7791219462256783
4305.81,0.7782416747259984
4306.71,0.7711246813650237
4307.61,0.7646164396166854
4308.51,0.754336025575395
4309.41,0.7580230449740896
4310.31,0.7648912477829385
4311.21,0.7860047581144405
4312.11,0.812728089317866
4313.01,0.8544909844479881
4313.91,0.9024898862186499
4314.81,0.9560138038481324
4315.71,1.0088115876545491
4316.61,1.067336930197738
4317.51,1.1094358995006466
4318.41,1.1431506672413345
4319.31,1.159699354882445
4320.21,1.1616809265680361
4321.12,1.1380265221816404
4322.02,1.1126995162475513
4322.92,1.0765780184845455
4323.82,1.033372582095734
4324.72,0.9965866106996583
4325.62,0.9695006683986159
4326.52,0.9655629221130784
4327.42,0.9754645043116942
4328.32,0.9958892298493446
4329.22,1.0402484173723499
4330.12,1.0666968497613576
4331.02,1.093995024333608
4331.92,1.112787237052224
4332.82,1.1205084842376887
4333.72,1.1235109940276622
4334.62,1.117764493080194
4335.52,1.0962875032516979
4336.42,1.0619536491152588
4337.32,1.0193446262631924
4338.22,0.9730678404094156
4339.12,0.9257474860125334
4340.02,0.8859860208729197
4340.92,0.8666708802232952
4341.82,0.8620249998900884
4342.72,0.8780666363457543
4343.62,0.9106021494709209
4344.52,0.9446823134831456
4345.42,0.9858730336591395
4346.32,1.024634268801637
4347.22,1.0465804505869905
4348.12,1.0620668577173347
4349.02,1.072383333385625
4349.92,1.0681072893080612
4350.82,1.0539766792386076
4351.72,1.0431580188524883
4352.62,1.0313791296720318
4353.52,1.0207099493581442
4354.42,1.0227654270112385
4355.32,1.0291365811707236
4356.22,1.0426660246720034
4357.12,1.0551888613667204
4358.02,1.0688878167828972
4358.92,1.077186274687414
4359.83,1.0853566751024628
4360.73,1.0932189227546891
4361.63,1.1008435183646335
