wave,flux
3700.85,-5.950211616961205e-07
3701.75,-5.855857948660539e-07
3702.65,-5.596409456956758e-07
3703.55,-5.258455672560467e-07
3704.45,-4.871736493068241e-07
3705.35,-4.4877005685978826e-07
3706.25,-4.1965252272543154e-07
3707.15,-4.013419436533458e-07
3708.05,-4.010438503578393e-07
3708.96,-4.116009278805444e-07
3709.86,-4.389341820827698e-07
3710.76,-4.7344560452272747e-07
3711.66,-5.180361356068777e-07
3712.56,-5.645795475713276e-07
3713.46,-6.02087836610679e-07
3714.36,-6.267461803785911e-07
3715.26,-6.2798170632412e-07
3716.16,-6.1264212513673e-07
3717.06,-5.810379632556969e-07
3717.96,-5.345879341029027e-07
3718.86,-4.822087528688287e-07
3719.76,-4.269946516668638e-07
3720.66,-3.8816591018006073e-07
3721.56,-3.6304438020012896e-07
3722.46,-3.6574676996828543e-07
3723.36,-3.881562534236681e-07
3724.26,-4.231296455728163e-07
3725.16,-4.592236411089024e-07
3726.06,-4.880098108688014e-07
3726.96,-5.023354555904208e-07
3727.86,-5.059496633405127e-07
3728.76,-5.033489574966119e-07
3729.66,-4.962641785646766e-07
3730.56,-4.833716135976162e-07
3731.46,-4.6405836456736933e-07
3732.36,-4.302153730187439e-07
3733.26,-3.913224670221242e-07
3734.16,-3.5183877214503586e-07
3735.06,-3.2125123079114477e-07
3735.96,-3.0650034938758464e-07
3736.86,-3.1208610380731016e-07
3737.76,-3.351632353158019e-07
3738.66,-3.739948920022497e-07
3739.56,-4.1763701542126617e-07
3740.46,-4.5886624745765775e-07
3741.36,-4.84569813719696e-07
3742.26,-4.937451936617037e-07
3743.16,-4.769426739765896e-07
3744.06,-4.465884751009712e-07
3744.96,-4.1343795093573535e-07
3745.86,-3.8088730734948896e-07
3746.76,-3.5585760934575543e-07
3747.67,-3.367880444572528e-07
3748.57,-3.309264458762725e-07
3749.47,-3.357851527376798e-07
3750.37,-3.5927488126954583e-07
3751.27,-3.9797105096335837e-07
3752.17,-4.4933930188878736e-07
3753.07,-5.031981421833154e-07
3753.97,-5.527875449199991e-07
3754.87,-5.874189333825593e-07
3755.77,-5.960062875113358e-07
3756.67,-5.855442362993504e-07
3757.57,-5.597580829126303e-07
3758.47,-5.239164602489554e-07
3759.37,-4.966271864691479e-07
3760.27,-4.873920578129079e-07
3761.17,-4.846298321435324e-07
3762.07,-4.944968112074173e-07
3762.97,-5.034703804530619e-07
3763.87,-5.090915304969142e-07
3764.77,-5.10883516256059e-07
3765.67,-5.15674341207244e-07
3766.57,-5.182187481921016e-07
3767.47,-5.268466214012925e-07
3768.37,-5.423909512880442e-07
3769.27,-5.644630770274935e-07
3770.17,-5.878506563633842e-07
3771.07,-6.181616462286831e-07
3771.97,-6.448841318169627e-07
3772.87,-6.722999989916672e-07
3773.77,-6.893238883550058e-07
3774.67,-7.024687810234815e-07
3775.57,-7.074400745558532e-07
3776.47,-7.126431076595962e-07
3777.37,-7.189963558293625e-07
3778.27,-7.22760124519337e-07
3779.17,-7.37731111960261e-07
3780.07,-7.519384794860759e-07
3780.97,-7.682134002632942e-07
3781.87,-7.847057213582689e-07
3782.77,-7.913583639962528e-07
3783.67,-7.894979919771983e-07
3784.57,-7.728100684420344e-07
3785.47,-7.461253075056061e-07
3786.38,-7.072639933406992e-07
3787.28,-6.637658148685196e-07
3788.18,-6.212221214974632e-07
3789.08,-5.979100764243182e-07
3789.98,-5.823247720296273e-07
3790.88,-5.817890604089269e-07
3791.78,-5.868576857102631e-07
3792.68,-5.892428992298936e-07
3793.58,-5.824915125342357e-07
3794.48,-5.717606676402234e-07
3795.38,-5.574334781881069e-07
3796.28,-5.425002215275355e-07
3797.18,-5.295318432715119e-07
3798.08,-5.237289392151502e-07
3798.98,-5.282943969664867e-07
3799.88,-5.434724087223764e-07
3800.78,-5.72867875844394e-07
3801.68,-6.132342877945809e-07
3802.58,-6.574398304573083e-07
3803.48,-6.942724419456472e-07
3804.38,-7.203323933165643e-07
3805.28,-7.32023349816605e-07
3806.18,-7.310529221154642e-07
3807.08,-7.272903107678364e-07
3807.98,-7.233327882873246e-07
3808.88,-7.282816237720892e-07
3809.78,-7.370478190839861e-07
3810.68,-7.415629581385234e-07
3811.58,-7.352693018027752e-07
3812.48,-7.1609746524271e-07
3813.38,-6.817926056701644e-07
3814.28,-6.398049570912681e-07
3815.18,-5.998727346349132e-07
3816.08,-5.671212990379568e-07
3816.98,-5.472998508133979e-07
3817.88,-5.356312446877353e-07
3818.78,-5.232683856847904e-07
3819.68,-5.118508550771114e-07
3820.58,-5.012027250209716e-07
3821.48,-4.900643635478178e-07
3822.38,-4.817045686418227e-07
3823.28,-4.7594305771401737e-07
3824.18,-4.671236086562951e-07
3825.09,-4.521014886344097e-07
3825.99,-4.3474204334224227e-07
3826.89,-4.226500714966553e-07
3827.79,-4.162489411827782e-07
3828.69,-4.184359231218237e-07
3829.59,-4.2320383430344375e-07
3830.49,-4.294426905310467e-07
3831.39,-4.294067010304115e-07
3832.29,-4.259315702852729e-07
3833.19,-4.201680201354279e-07
3834.09,-4.1856502369729867e-07
3834.99,-4.2171882938082626e-07
3835.89,-4.270082934402413e-07
3836.79,-4.328400558084625e-07
3837.69,-4.3536234683439695e-07
3838.59,-4.3673394054187685e-07
3839.49,-4.419206162244685e-07
3840.39,-4.5128960979708323e-07
3841.29,-4.756948092732198e-07
3842.19,-5.15010323951942e-07
3843.09,-5.617553530127514e-07
3843.99,-6.01374736096842e-07
3844.89,-6.397755701867194e-07
3845.79,-6.65000826801302e-07
3846.69,-6.813656903127815e-07
3847.59,-6.868716762185465e-07
3848.49,-6.843981709327868e-07
3849.39,-6.786891727052779e-07
3850.29,-6.721507053534662e-07
3851.19,-6.671153201871145e-07
3852.09,-6.66014285051201e-07
3852.99,-6.631113247807587e-07
3853.89,-6.56820574386836e-07
3854.79,-6.485944249484719e-07
3855.69,-6.313453409675722e-07
3856.59,-6.080482024811438e-07
3857.49,-5.879220193914579e-07
3858.39,-5.628208652621997e-07
3859.29,-5.492024650685405e-07
3860.19,-5.47514084927868e-07
3861.09,-5.610756159641082e-07
3861.99,-5.932875524858934e-07
3862.9,-6.367793947847768e-07
3863.8,-6.753946553233612e-07
3864.7,-7.052716585397954e-07
3865.6,-7.208955227331658e-07
3866.5,-7.194347050286346e-07
3867.4,-7.110218446927097e-07
3868.3,-6.942726952436074e-07
3869.2,-6.725655442514474e-07
3870.1,-6.474797218859361e-07
3871.0,-6.315289612930968e-07
3871.9,-6.25034085004408e-07
3872.8,-6.347807210504368e-07
3873.7,-6.562714307997135e-07
3874.6,-6.93353948878551e-07
3875.5,-7.254202185064706e-07
3876.4,-7.437221664365352e-07
3877.3,-7.424878078668623e-07
3878.2,-7.320751997742448e-07
3879.1,-7.19612038834737e-07
3880.0,-7.019735846317703e-07
3880.9,-6.932817272888119e-07
3881.8,-6.982817497550873e-07
3882.7,-7.050651276406994e-07
3883.6,-7.157623245222839e-07
3884.5,-7.258712046084161e-07
3885.4,-7.294481484379931e-07
3886.3,-7.27016624557328e-07
3887.2,-7.210634500709548e-07
3888.1,-7.28325870723705e-07
3889.0,-7.476671750163909e-07
3889.9,-7.817004716220213e-07
3890.8,-8.390332457691645e-07
3891.7,-8.976307214222855e-07
3892.6,-9.535770938705891e-07
3893.5,-9.887838383152936e-07
3894.4,-1.014560381779474e-06
3895.3,-1.0301868411836367e-06
3896.2,-1.0295122821523276e-06
3897.1,-1.0299964321956973e-06
3898.0,-1.0286492761999008e-06
3898.9,-1.0294867550162338e-06
3899.8,-1.0355230390779172e-06
3900.7,-1.031619812547317e-06
3901.6,-1.0307217826299557e-06
3902.51,-1.0223930322503146e-06
3903.41,-1.0092510361736482e-06
3904.31,-9.98347655397716e-07
3905.21,-9.840186688166062e-07
3906.11,-9.877855234429019e-07
3907.01,-1.0120109639575331e-06
3907.91,-1.0498439580315095e-06
3908.81,-1.1016032191653276e-06
3909.71,-1.1585850326450153e-06
3910.61,-1.2023093124669909e-06
3911.51,-1.2446501703573607e-06
3912.41,-1.2710374157842016e-06
3913.31,-1.283597265149711e-06
3914.21,-1.2867102423489227e-06
3915.11,-1.2826760490897991e-06
3916.01,-1.2680301508138344e-06
3916.91,-1.2405801064459987e-06
3917.81,-1.2017052923728317e-06
3918.71,-1.1583423246705746e-06
3919.61,-1.1101711093010837e-06
3920.51,-1.058925996496247e-06
3921.41,-1.0258132838659192e-06
3922.31,-9.970576798925521e-07
3923.21,-9.761307653360116e-07
3924.11,-9.680338464791103e-07
3925.01,-9.551693882704709e-07
3925.91,-9.313372764310111e-07
3926.81,-8.889176986369558e-07
3927.71,-8.223467385698114e-07
3928.61,-7.453295558782527e-07
3929.51,-6.62067900618337e-07
3930.41,-5.828016067427188e-07
3931.31,-5.103792178762071e-07
3932.21,-4.4640728499916444e-07
3933.11,-4.006733180247815e-07
3934.01,-3.759669824880587e-07
3934.91,-3.76627174410701e-07
3935.81,-4.031820695838296e-07
3936.71,-4.542076822466948e-07
3937.61,-5.246055701213805e-07
3938.51,-6.064162071345456e-07
3939.42,-6.924365375750097e-07
3940.32,-7.723694450582879e-07
3941.22,-8.315529128060135e-07
3942.12,-8.740983549996091e-07
3943.02,-9.092708419542164e-07
3943.92,-9.419400283292818e-07
3944.82,-9.88842894643249e-07
3945.72,-1.0352177906702762e-06
3946.62,-1.101914664008378e-06
3947.52,-1.1717278641521851e-06
3948.42,-1.2348948174254458e-06
3949.32,-1.2882111016922416e-06
3950.22,-1.3444302290251641e-06
3951.12,-1.381351492315257e-06
3952.02,-1.410725185438549e-06
3952.92,-1.4354617188636326e-06
3953.82,-1.4434437123699418e-06
3954.72,-1.4501716856025153e-06
3955.62,-1.4469976998851781e-06
3956.52,-1.436732348771595e-06
3957.42,-1.4265514839719075e-06
3958.32,-1.3946077600161914e-06
3959.22,-1.3545726676379136e-06
3960.12,-1.298669420814609e-06
3961.02,-1.2207705261647846e-06
3961.92,-1.1283950141944904e-06
3962.82,-1.0328141876359807e-06
3963.72,-9.41591760674983e-07
3964.62,-8.490409894667798e-07
3965.52,-7.711425357355006e-07
3966.42,-6.893657885318932e-07
3967.32,-6.156016454585894e-07
3968.22,-5.537133224122866e-07
3969.12,-5.205899954853263e-07
3970.02,-5.205978217549763e-07
3970.92,-5.568057086912619e-07
3971.82,-6.298085941764961e-07
3972.72,-7.201383031127675e-07
3973.62,-8.364351545449987e-07
3974.52,-9.549214810380183e-07
3975.42,-1.0752451096031956e-06
3976.32,-1.197837426178337e-06
3977.22,-1.3145638375646562e-06
3978.13,-1.4254624407009569e-06
3979.03,-1.5291644172166732e-06
3979.93,-1.6155076399590684e-06
3980.83,-1.6818950532174417e-06
3981.73,-1.735773375492444e-06
3982.63,-1.7588638595857613e-06
3983.53,-1.782559002397359e-06
3984.43,-1.7889080935638107e-06
3985.33,-1.8214229676979266e-06
3986.23,-1.851087800463153e-06
3987.13,-1.88060180581255e-06
3988.03,-1.9173639490216896e-06
3988.93,-1.9485297828053694e-06
3989.83,-1.9861884594214267e-06
3990.73,-2.016758015025355e-06
3991.63,-2.036261096642827e-06
3992.53,-2.0594646518780667e-06
3993.43,-2.0744357091660454e-06
3994.33,-2.0796163438310656e-06
3995.23,-2.0782134729155575e-06
3996.13,-2.067186443821885e-06
3997.03,-2.06055477008591e-06
3997.93,-2.0651874781065168e-06
3998.83,-2.0905452565736725e-06
3999.73,-2.1398394800612543e-06
4000.63,-2.1874086409646617e-06
4001.53,-2.250266127790016e-06
4002.43,-2.2612322457331934e-06
4003.33,-2.2776782202348996e-06
4004.23,-2.2373554846059685e-06
4005.13,-2.19539347273516e-06
4006.03,-2.1579442971335095e-06
4006.93,-2.1386264986780557e-06
4007.83,-2.1488168983889903e-06
4008.73,-2.1787660279429238e-06
4009.63,-2.2418439666404966e-06
4010.53,-2.3059976737341933e-06
4011.43,-2.3550016025398577e-06
4012.33,-2.3881851896216568e-06
4013.23,-2.4282337772016323e-06
4014.13,-2.4560035215346458e-06
4015.03,-2.482160420062939e-06
4015.93,-2.5073978435038396e-06
4016.84,-2.5127593512150493e-06
4017.74,-2.5191154807783686e-06
4018.64,-2.5399922704961605e-06
4019.54,-2.572115284639721e-06
4020.44,-2.574691511159041e-06
4021.34,-2.5830458002501595e-06
4022.24,-2.5791011505398617e-06
4023.14,-2.5754729136517974e-06
4024.04,-2.568332289779755e-06
4024.94,-2.5832736257173232e-06
4025.84,-2.5872695437501133e-06
4026.74,-2.6063747203938986e-06
4027.64,-2.6181867826034e-06
4028.54,-2.609101540158054e-06
4029.44,-2.5579021741031226e-06
4030.34,-2.488628265732571e-06
4031.24,-2.3827648387949214e-06
4032.14,-2.2895358628353483e-06
4033.04,-2.219990913165e-06
4033.94,-2.2030838665026038e-06
4034.84,-2.226240328395803e-06
4035.74,-2.3176123772096986e-06
4036.64,-2.435306926033093e-06
4037.54,-2.5677072318760854e-06
4038.44,-2.6798121125551306e-06
4039.34,-2.7477290942678054e-06
4040.24,-2.7897757353078826e-06
4041.14,-2.773518822119329e-06
4042.04,-2.741379089063883e-06
4042.94,-2.645400342375927e-06
4043.84,-2.5342959317410287e-06
4044.74,-2.403406096998704e-06
4045.64,-2.3000210023136217e-06
4046.54,-2.257612608674105e-06
4047.44,-2.2741946848327583e-06
4048.34,-2.358493395081993e-06
4049.24,-2.500985374294019e-06
4050.14,-2.637167519821024e-06
4051.04,-2.7501044914829985e-06
4051.94,-2.8043074616816754e-06
4052.84,-2.832759891260203e-06
4053.74,-2.803372967969877e-06
4054.65,-2.7600355979026878e-06
4055.55,-2.6934318302575704e-06
4056.45,-2.6405019260653752e-06
4057.35,-2.6048727187085432e-06
4058.25,-2.5887745618060455e-06
4059.15,-2.5721353147053822e-06
4060.05,-2.5837833718282204e-06
4060.95,-2.574257103062348e-06
4061.85,-2.5443942513643717e-06
4062.75,-2.5061457591206193e-06
4063.65,-2.4499747544415794e-06
4064.55,-2.4269365763665494e-06
4065.45,-2.430164486160291e-06
4066.35,-2.4618248667665124e-06
4067.25,-2.5581715412130905e-06
4068.15,-2.6335518101533083e-06
4069.05,-2.7046855230052065e-06
4069.95,-2.75411714303007e-06
4070.85,-2.758556740309049e-06
4071.75,-2.7662457443019886e-06
4072.65,-2.751818472001092e-06
4073.55,-2.7649299395532182e-06
4074.45,-2.7501351557748423e-06
4075.35,-2.7569197033627997e-06
4076.25,-2.7291961609063618e-06
4077.15,-2.71384262384197e-06
4078.05,-2.7149656692797916e-06
4078.95,-2.7498277879314178e-06
4079.85,-2.8372533315026558e-06
4080.75,-2.9511564682626144e-06
4081.65,-3.055238862659304e-06
4082.55,-3.149175901956706e-06
4083.45,-3.207807542540734e-06
4084.35,-3.2432404908619584e-06
4085.25,-3.2736501858843e-06
4086.15,-3.3181359172832324e-06
4087.05,-3.3745483837935474e-06
4087.95,-3.4524123517779098e-06
4088.85,-3.504511167362924e-06
4089.75,-3.5809430220405702e-06
4090.65,-3.6019950921484967e-06
4091.55,-3.6075745959115348e-06
4092.45,-3.556238924319831e-06
4093.36,-3.5142555908085743e-06
4094.26,-3.4464708757324703e-06
4095.16,-3.3784419148542094e-06
4096.06,-3.296931371292529e-06
4096.96,-3.1973017931859677e-06
4097.86,-3.0960315729158123e-06
4098.76,-3.0212766109350683e-06
4099.66,-2.9450403679817914e-06
4100.56,-2.868271531291413e-06
4101.46,-2.812907072348878e-06
4102.36,-2.805044848935029e-06
4103.26,-2.832780855435896e-06
4104.16,-2.911566462077914e-06
4105.06,-3.0196764460807464e-06
4105.96,-3.1510273062077464e-06
4106.86,-3.2935507158974574e-06
4107.76,-3.373082339272333e-06
4108.66,-3.4313250209212256e-06
4109.56,-3.454154318844066e-06
4110.46,-3.451184180291868e-06
4111.36,-3.4834183259552828e-06
4112.26,-3.492251567368334e-06
4113.16,-3.5282958421708556e-06
4114.06,-3.5880346042104868e-06
4114.96,-3.6428167005042015e-06
4115.86,-3.7014893443194487e-06
4116.76,-3.7214901617476498e-06
4117.66,-3.716507052775557e-06
4118.56,-3.6850052760688866e-06
4119.46,-3.662275350099887e-06
4120.36,-3.6463381092105684e-06
4121.26,-3.625071652324435e-06
4122.16,-3.6314742893474534e-06
4123.06,-3.6431073606516266e-06
4123.96,-3.6678830613548165e-06
4124.86,-3.708299064311726e-06
4125.76,-3.736026956041545e-06
4126.66,-3.7276501093902265e-06
4127.56,-3.7165258094891326e-06
4128.46,-3.705024445380629e-06
4129.36,-3.6247114947084573e-06
4130.26,-3.5835176874818618e-06
4131.17,-3.506082015651306e-06
4132.06,-3.4526696193354475e-06
4132.97,-3.40508284592113e-06
4133.87,-3.410565880672688e-06
4134.77,-3.471695922217409e-06
4135.67,-3.549351905007497e-06
4136.57,-3.6703357084973784e-06
4137.47,-3.7954074668502977e-06
4138.37,-3.887836128602728e-06
4139.27,-3.959215322838132e-06
4140.17,-3.9531066557756564e-06
4141.07,-3.888271349853638e-06
4141.97,-3.8075471209165763e-06
4142.87,-3.6823773623919496e-06
4143.77,-3.5935619440158393e-06
4144.67,-3.5527967079512545e-06
4145.57,-3.5440991106759425e-06
4146.47,-3.5794811343014664e-06
4147.37,-3.6611073063136144e-06
4148.27,-3.7441128630333147e-06
4149.17,-3.775535708469436e-06
4150.07,-3.8019351879389985e-06
4150.97,-3.7852875360387082e-06
4151.87,-3.7815771383597004e-06
4152.77,-3.7652551032309817e-06
4153.67,-3.725358252057713e-06
4154.57,-3.7306952478115354e-06
4155.47,-3.720111001646858e-06
4156.37,-3.7351547663140615e-06
4157.27,-3.794789933428305e-06
4158.17,-3.889643353613284e-06
4159.07,-3.965978789697174e-06
4159.97,-4.083881395360672e-06
4160.87,-4.177273208726179e-06
4161.77,-4.270356724376067e-06
4162.67,-4.3434327751377765e-06
4163.57,-4.398421394530164e-06
4164.47,-4.396393298560923e-06
4165.37,-4.386654753735674e-06
4166.27,-4.340255120489807e-06
4167.17,-4.295650629258195e-06
4168.07,-4.24822244882424e-06
4168.98,-4.215791416409653e-06
4169.88,-4.1798181659660545e-06
4170.78,-4.138868295442173e-06
4171.68,-4.0809773506230204e-06
4172.58,-4.034916380370571e-06
4173.48,-3.966082812394192e-06
4174.38,-3.902436637227097e-06
4175.28,-3.903475813250452e-06
4176.18,-3.912775648207879e-06
4177.08,-3.962108240774735e-06
4177.98,-3.987332240374582e-06
4178.88,-4.0768233185360674e-06
4179.78,-4.116765891624581e-06
4180.68,-4.164081858657269e-06
4181.58,-4.208752028901035e-06
4182.48,-4.251727879599795e-06
4183.38,-4.298892483618933e-06
4184.28,-4.360816710791497e-06
4185.18,-4.394401814231983e-06
4186.08,-4.431156471598569e-06
4186.98,-4.444516750621349e-06
4187.88,-4.47427055116574e-06
4188.78,-4.448614937165336e-06
4189.68,-4.493950339345988e-06
4190.58,-4.545285110874801e-06
4191.48,-4.623314237615257e-06
4192.38,-4.696407786532463e-06
4193.28,-4.73998773718339e-06
4194.18,-4.757161891428124e-06
4195.08,-4.700663787981756e-06
4195.98,-4.607927683794094e-06
4196.88,-4.498263489641944e-06
4197.78,-4.367684737283493e-06
4198.68,-4.290404362988309e-06
4199.58,-4.258259288731018e-06
4200.48,-4.240204301393751e-06
4201.38,-4.282428224730326e-06
4202.28,-4.3379520342470025e-06
4203.18,-4.44513653186817e-06
4204.08,-4.568296918646589e-06
4204.98,-4.72862487588924e-06
4205.88,-4.897538151663786e-06
4206.79,-5.041581950743719e-06
4207.69,-5.168744267619325e-06
4208.59,-5.279758206676044e-06
4209.49,-5.3164183148058305e-06
4210.39,-5.333625664546052e-06
4211.29,-5.322773537444662e-06
4212.19,-5.312888322221603e-06
4213.09,-5.297727744048959e-06
4213.99,-5.2096885517058325e-06
4214.89,-5.15319949362055e-06
4215.79,-5.124507887882211e-06
4216.69,-5.1522595657231285e-06
4217.59,-5.251651767496766e-06
4218.49,-5.381367430143707e-06
4219.39,-5.5488872465590045e-06
4220.29,-5.646030046238874e-06
4221.19,-5.688370102795509e-06
4222.09,-5.64484378694194e-06
4222.99,-5.4820400026633295e-06
4223.89,-5.2071359166593405e-06
4224.79,-4.879400212458089e-06
4225.69,-4.5454235920036945e-06
4226.59,-4.2838709816480576e-06
4227.49,-4.1815278032489056e-06
4228.39,-4.2596233562277175e-06
4229.29,-4.462860406385299e-06
4230.19,-4.761497120646673e-06
4231.09,-5.092205077048722e-06
4231.99,-5.356287453900744e-06
4232.89,-5.546265140581429e-06
4233.79,-5.584343776383156e-06
4234.69,-5.602615339248294e-06
4235.59,-5.559885216545987e-06
4236.49,-5.532918353379064e-06
4237.39,-5.5218848467354845e-06
4238.29,-5.5635047558194025e-06
4239.19,-5.64896864626659e-06
4240.09,-5.781198816146465e-06
4240.99,-5.96479827830188e-06
4241.89,-6.140172285115734e-06
4242.79,-6.296478376245144e-06
4243.69,-6.462962647224087e-06
4244.59,-6.559371477434987e-06
4245.5,-6.6462173869599934e-06
4246.4,-6.611734777405775e-06
4247.3,-6.528531807089046e-06
4248.2,-6.358493926371566e-06
4249.1,-6.153252326074532e-06
4250.0,-6.0068760921158344e-06
4250.9,-5.838460150703547e-06
4251.8,-5.813593026857095e-06
4252.7,-5.791492567827644e-06
4253.6,-5.826998451091534e-06
4254.5,-5.884351570445053e-06
4255.4,-5.9755232263298795e-06
4256.3,-6.033695552840137e-06
4257.2,-6.0974745283054956e-06
4258.1,-6.1713129954360554e-06
4259.0,-6.145513572725269e-06
4259.9,-6.123442119863673e-06
4260.8,-6.1109143075106505e-06
4261.7,-6.157961528712216e-06
4262.6,-6.341286663778644e-06
4263.5,-6.572116856101211e-06
4264.4,-6.840146758822015e-06
4265.3,-7.086074045133944e-06
4266.2,-7.241110304858954e-06
4267.1,-7.240937788223649e-06
4268.0,-7.11175189712265e-06
4268.9,-6.866373004818654e-06
4269.8,-6.5574216004120516e-06
4270.7,-6.189297605230873e-06
4271.6,-5.876872191509329e-06
4272.5,-5.6468373156039665e-06
4273.4,-5.515989850525505e-06
4274.3,-5.552482189825361e-06
4275.2,-5.6823698296502025e-06
4276.1,-5.95910712670574e-06
4277.0,-6.286156247371001e-06
