wave,flux
3700.85,-4.146726483626331e-07
3701.75,-4.103266222656746e-07
3702.65,-3.999684621261233e-07
3703.55,-3.8614719690497825e-07
3704.45,-3.7464385426201866e-07
3705.35,-3.653127886332609e-07
3706.25,-3.628234206392005e-07
3707.15,-3.64631988877598e-07
3708.05,-3.7131038789323106e-07
3708.96,-3.7380363803719395e-07
3709.86,-3.763889535182265e-07
3710.76,-3.7999861127857977e-07
3711.66,-3.8266696827357564e-07
3712.56,-3.877627607177592e-07
3713.46,-3.99315899958012e-07
3714.36,-4.1344539575178913e-07
3715.26,-4.269189262834304e-07
3716.16,-4.3802154996684513e-07
3717.06,-4.4040438154863643e-07
3717.96,-4.355941451247479e-07
3718.86,-4.1972967458864295e-07
3719.76,-3.976680495326088e-07
3720.66,-3.784038983397079e-07
3721.56,-3.5920379551511424e-07
3722.46,-3.537171325106637e-07
3723.36,-3.5835051529157277e-07
3724.26,-3.750624077003822e-07
3725.16,-3.950070875827041e-07
3726.06,-4.1653752819447837e-07
3726.96,-4.317755538791709e-07
3727.86,-4.415242157694114e-07
3728.76,-4.4779571002642963e-07
3729.66,-4.459816351638346e-07
3730.56,-4.360103991245993e-07
3731.46,-4.2072168751558636e-07
3732.36,-3.975989396268119e-07
3733.26,-3.7154269085083043e-07
3734.16,-3.4848380297610783e-07
3735.06,-3.33210659433955e-07
3735.96,-3.3239505317303055e-07
3736.86,-3.4330544279550736e-07
3737.76,-3.653334979957016e-07
3738.66,-3.964118392218671e-07
3739.56,-4.254843005762558e-07
3740.46,-4.520232894880719e-07
3741.36,-4.6786816459230275e-07
3742.26,-4.774203394211012e-07
3743.16,-4.757806798115562e-07
3744.06,-4.6408062740163296e-07
3744.96,-4.5132922794411315e-07
3745.86,-4.31641696645503e-07
3746.76,-4.108232923582086e-07
3747.67,-3.845979851159527e-07
3748.57,-3.6400973277679334e-07
3749.47,-3.4618343929664187e-07
3750.37,-3.4143162592479695e-07
3751.27,-3.481235970732873e-07
3752.17,-3.7002002334118514e-07
3753.07,-3.995429151383521e-07
3753.97,-4.319306951188892e-07
3754.87,-4.613898571411506e-07
3755.77,-4.818632573750645e-07
3756.67,-4.976101550156639e-07
3757.57,-5.003627066342071e-07
3758.47,-4.988541722494427e-07
3759.37,-4.978362283649109e-07
3760.27,-4.980930283975669e-07
3761.17,-5.018951219806986e-07
3762.07,-5.104284657140899e-07
3762.97,-5.137911219364433e-07
3763.87,-5.146802117465695e-07
3764.77,-5.108975213602379e-07
3765.67,-4.996756276439544e-07
3766.57,-4.875549381071395e-07
3767.47,-4.675981408253549e-07
3768.37,-4.44881524951738e-07
3769.27,-4.2659760133056345e-07
3770.17,-4.093625859824988e-07
3771.07,-4.0079451492973316e-07
3771.97,-4.0694186874850694e-07
3772.87,-4.1816872619325864e-07
3773.77,-4.4140926326300374e-07
3774.67,-4.650561762274452e-07
3775.57,-4.911174258902469e-07
3776.47,-5.155886108851765e-07
3777.37,-5.386220252668911e-07
3778.27,-5.615661769384639e-07
3779.17,-5.832959748925291e-07
3780.07,-6.008626038043723e-07
3780.97,-6.158401426163455e-07
3781.87,-6.257756182131312e-07
3782.77,-6.362406590454456e-07
3783.67,-6.397083113783935e-07
3784.57,-6.355874635459228e-07
3785.47,-6.297081278141748e-07
3786.38,-6.165912188804801e-07
3787.28,-6.026591358700511e-07
3788.18,-5.900079945700476e-07
3789.08,-5.794075147176424e-07
3789.98,-5.685890591613736e-07
3790.88,-5.578365940340373e-07
3791.78,-5.439248152171956e-07
3792.68,-5.264805206309206e-07
3793.58,-5.042798497967718e-07
3794.48,-4.800726399320337e-07
3795.38,-4.5183266939730243e-07
3796.28,-4.2408658624449033e-07
3797.18,-4.011178109205445e-07
3798.08,-3.863855020125642e-07
3798.98,-3.845022315669091e-07
3799.88,-3.9883526360917753e-07
3800.78,-4.2349375984708194e-07
3801.68,-4.5915481646568805e-07
3802.58,-4.937690510147864e-07
3803.48,-5.28271812926048e-07
3804.38,-5.560619513628565e-07
3805.28,-5.816531440048156e-07
3806.18,-5.989170888898695e-07
3807.08,-6.116112336771818e-07
3807.98,-6.276338548124669e-07
3808.88,-6.409898113565737e-07
3809.78,-6.527981708029515e-07
3810.68,-6.627576239340749e-07
3811.58,-6.707752411513588e-07
3812.48,-6.715770083523789e-07
3813.38,-6.630851964208547e-07
3814.28,-6.601606473203812e-07
3815.18,-6.554466741843743e-07
3816.08,-6.533846027370756e-07
3816.98,-6.552658418267814e-07
3817.88,-6.56368030819285e-07
3818.78,-6.598677866966709e-07
3819.68,-6.56465147455359e-07
3820.58,-6.475322876644717e-07
3821.48,-6.42138716675993e-07
3822.38,-6.376024777834368e-07
3823.28,-6.229441860316679e-07
3824.18,-6.13398644012297e-07
3825.09,-5.957234591450366e-07
3825.99,-5.829324499976043e-07
3826.89,-5.694450363173494e-07
3827.79,-5.535213749945769e-07
3828.69,-5.378981924542596e-07
3829.59,-5.208283231791121e-07
3830.49,-5.01371012662794e-07
3831.39,-4.774996092893162e-07
3832.29,-4.4876034941684265e-07
3833.19,-4.201752759295959e-07
3834.09,-3.9372215739807107e-07
3834.99,-3.754964620972596e-07
3835.89,-3.621962763610457e-07
3836.79,-3.63547833427685e-07
3837.69,-3.7485217138751084e-07
3838.59,-3.949143185700665e-07
3839.49,-4.21158425519227e-07
3840.39,-4.5306571223922384e-07
3841.29,-4.867307019071213e-07
3842.19,-5.217538629340122e-07
3843.09,-5.554805049336822e-07
3843.99,-5.841008328285173e-07
3844.89,-6.121093614261499e-07
3845.79,-6.314022691094371e-07
3846.69,-6.50982376987542e-07
3847.59,-6.653409789830199e-07
3848.49,-6.774453962137886e-07
3849.39,-6.879986380826504e-07
3850.29,-6.949861408042678e-07
3851.19,-7.060665519462567e-07
3852.09,-7.147445269575402e-07
3852.99,-7.214644960935214e-07
3853.89,-7.289018537240198e-07
3854.79,-7.335279197012476e-07
3855.69,-7.350521930411841e-07
3856.59,-7.317682475534082e-07
3857.49,-7.280529054965847e-07
3858.39,-7.267399319719511e-07
3859.29,-7.218770920946982e-07
3860.19,-7.268744383552859e-07
3861.09,-7.368554384895843e-07
3861.99,-7.407367041724682e-07
3862.9,-7.523221148900195e-07
3863.8,-7.6313687213073e-07
3864.7,-7.661957262938441e-07
3865.6,-7.687599246489521e-07
3866.5,-7.716142118902636e-07
3867.4,-7.686791964715527e-07
3868.3,-7.625879366792018e-07
3869.2,-7.614297134289146e-07
3870.1,-7.558215625312068e-07
3871.0,-7.428074792316858e-07
3871.9,-7.332900982281834e-07
3872.8,-7.265598572334866e-07
3873.7,-7.185135384699386e-07
3874.6,-7.131541876725806e-07
3875.5,-7.123285847506479e-07
3876.4,-7.042957910611869e-07
3877.3,-6.963199018540483e-07
3878.2,-6.828316791492935e-07
3879.1,-6.685578233915957e-07
3880.0,-6.581483760313225e-07
3880.9,-6.472839927507612e-07
3881.8,-6.357964527350902e-07
3882.7,-6.185756326736228e-07
3883.6,-6.011333326980894e-07
3884.5,-5.789116438718316e-07
3885.4,-5.525603991865214e-07
3886.3,-5.206313083200537e-07
3887.2,-4.878395277398559e-07
3888.1,-4.6343356124128635e-07
3889.0,-4.465152824940786e-07
3889.9,-4.403926088784232e-07
3890.8,-4.4864951039936964e-07
3891.7,-4.697785399041245e-07
3892.6,-5.008424054109573e-07
3893.5,-5.322870151976507e-07
3894.4,-5.603403545014313e-07
3895.3,-5.897190728760686e-07
3896.2,-6.120046283076677e-07
3897.1,-6.333945800389221e-07
3898.0,-6.527790517619135e-07
3898.9,-6.707435269331186e-07
3899.8,-6.865813849550105e-07
3900.7,-6.984285360608062e-07
3901.6,-7.094081174810554e-07
3902.51,-7.205708815676228e-07
3903.41,-7.315090547091362e-07
3904.31,-7.36998243695748e-07
3905.21,-7.440441595625537e-07
3906.11,-7.50842155694073e-07
3907.01,-7.6078188449131e-07
3907.91,-7.767062719170011e-07
3908.81,-7.894497915782005e-07
3909.71,-8.049812771772158e-07
3910.61,-8.165024505762119e-07
3911.51,-8.301407059134059e-07
3912.41,-8.393829063678119e-07
3913.31,-8.37916585884223e-07
3914.21,-8.374979541271794e-07
3915.11,-8.376791003375988e-07
3916.01,-8.326703942315835e-07
3916.91,-8.29985499999652e-07
3917.81,-8.244316219603195e-07
3918.71,-8.204506730521323e-07
3919.61,-8.198589200118584e-07
3920.51,-8.120869121535238e-07
3921.41,-8.125439885515115e-07
3922.31,-8.143640617971699e-07
3923.21,-8.152018909492668e-07
3924.11,-8.133102274301097e-07
3925.01,-8.080740580624438e-07
3925.91,-7.943167162730646e-07
3926.81,-7.757412378570826e-07
3927.71,-7.561178606919444e-07
3928.61,-7.229387504118867e-07
3929.51,-6.827712110470939e-07
3930.41,-6.3407637591109e-07
3931.31,-5.801697937564946e-07
3932.21,-5.331604461768883e-07
3933.11,-4.832067998114162e-07
3934.01,-4.609537746337863e-07
3934.91,-4.547206167618411e-07
3935.81,-4.7287506105293666e-07
3936.71,-5.14840262250316e-07
3937.61,-5.657067520681235e-07
3938.51,-6.214342831898279e-07
3939.42,-6.767105799892525e-07
3940.32,-7.183994162581289e-07
3941.22,-7.508235825276052e-07
3942.12,-7.710046385920975e-07
3943.02,-7.910451924937334e-07
3943.92,-7.962797551299781e-07
3944.82,-8.07801258975473e-07
3945.72,-8.145342513536708e-07
3946.62,-8.243076090923556e-07
3947.52,-8.260935577815307e-07
3948.42,-8.319275758870451e-07
3949.32,-8.320877048846771e-07
3950.22,-8.356769341428779e-07
3951.12,-8.356837096114249e-07
3952.02,-8.368612250098908e-07
3952.92,-8.303024550656956e-07
3953.82,-8.298330310870383e-07
3954.72,-8.259948909156862e-07
3955.62,-8.229327564557002e-07
3956.52,-8.115479451781242e-07
3957.42,-8.001410880896693e-07
3958.32,-7.853714786037952e-07
3959.22,-7.728157700604849e-07
3960.12,-7.543923941119971e-07
3961.02,-7.284057564347228e-07
3961.92,-6.992766090323824e-07
3962.82,-6.653139261907355e-07
3963.72,-6.22377658163138e-07
3964.62,-5.765746227914043e-07
3965.52,-5.279522255205717e-07
3966.42,-4.7123082320307015e-07
3967.32,-4.1973411157151007e-07
3968.22,-3.723730284193866e-07
3969.12,-3.394863878290592e-07
3970.02,-3.268765548791381e-07
3970.92,-3.3257006416819744e-07
3971.82,-3.6003910194039806e-07
3972.72,-3.997933317972425e-07
3973.62,-4.5261042572215565e-07
3974.52,-5.05071508892271e-07
3975.42,-5.59728335888026e-07
3976.32,-6.07335104638349e-07
3977.22,-6.51126940208303e-07
3978.13,-6.917823472887887e-07
3979.03,-7.244501798959073e-07
3979.93,-7.554426321410828e-07
3980.83,-7.824932594517791e-07
3981.73,-7.98710901029574e-07
3982.63,-8.176600925351481e-07
3983.53,-8.279598869975027e-07
3984.43,-8.40379191017617e-07
3985.33,-8.557326850705887e-07
3986.23,-8.670675506170168e-07
3987.13,-8.823933314374052e-07
3988.03,-8.922329827729437e-07
3988.93,-9.051753241865039e-07
3989.83,-9.188728841693592e-07
3990.73,-9.277161100404511e-07
3991.63,-9.382036101765391e-07
3992.53,-9.452066049735504e-07
3993.43,-9.527116133483739e-07
3994.33,-9.527194948819426e-07
3995.23,-9.533804421098793e-07
3996.13,-9.487253773828415e-07
3997.03,-9.479087388484278e-07
3997.93,-9.464342751125947e-07
3998.83,-9.460226864860723e-07
3999.73,-9.59157056010126e-07
4000.63,-9.65905433754408e-07
4001.53,-9.831132572046399e-07
4002.43,-9.877550995690875e-07
4003.33,-9.921578294584816e-07
4004.23,-9.885660007669094e-07
4005.13,-9.851317680500897e-07
4006.03,-9.804504596413104e-07
4006.93,-9.814681341176127e-07
4007.83,-9.868761091804302e-07
4008.73,-9.968527306046223e-07
4009.63,-1.0076773899151087e-06
4010.53,-1.0129576641621067e-06
4011.43,-1.0205749095508267e-06
4012.33,-1.0223813873565097e-06
4013.23,-1.0261062039194542e-06
4014.13,-1.0318382199701825e-06
4015.03,-1.0330743116665122e-06
4015.93,-1.0344790783478816e-06
4016.84,-1.0346426720001908e-06
4017.74,-1.042159327222694e-06
4018.64,-1.0454174735399017e-06
4019.54,-1.0522026983550469e-06
4020.44,-1.0501038113777929e-06
4021.34,-1.0558969056272294e-06
4022.24,-1.0488348029289174e-06
4023.14,-1.0560671335941636e-06
4024.04,-1.0497483905564713e-06
4024.94,-1.0520184598073975e-06
4025.84,-1.0570776794253863e-06
4026.74,-1.0624837990164724e-06
4027.64,-1.063670879149703e-06
4028.54,-1.061811932055723e-06
4029.44,-1.0563050528735157e-06
4030.34,-1.0460371451828513e-06
4031.24,-1.035833680086389e-06
4032.14,-1.0252699713742848e-06
4033.04,-1.0231912842034056e-06
4033.94,-1.0230661314877536e-06
4034.84,-1.0320589324796033e-06
4035.74,-1.0459306683040347e-06
4036.64,-1.0623045246428155e-06
4037.54,-1.0793073531143324e-06
4038.44,-1.091722291119004e-06
4039.34,-1.0965389025705852e-06
4040.24,-1.0945924183144494e-06
4041.14,-1.0928129925733323e-06
4042.04,-1.0829565574635196e-06
4042.94,-1.077894322430275e-06
4043.84,-1.063700687310956e-06
4044.74,-1.0540437889665173e-06
4045.64,-1.0383327228442091e-06
4046.54,-1.0357937237069965e-06
4047.44,-1.040591178278805e-06
4048.34,-1.0524868961833561e-06
4049.24,-1.0647509369793448e-06
4050.14,-1.0736593630797332e-06
4051.04,-1.080503113635788e-06
4051.94,-1.0872724717513902e-06
4052.84,-1.090405211637077e-06
4053.74,-1.0835426011985326e-06
4054.65,-1.074762468247577e-06
4055.55,-1.0691768138122823e-06
4056.45,-1.0674170328171815e-06
4057.35,-1.0650419841821367e-06
4058.25,-1.070351252269773e-06
4059.15,-1.07182143511969e-06
4060.05,-1.0737314283079848e-06
4060.95,-1.071963610511446e-06
4061.85,-1.0665073245513797e-06
4062.75,-1.0644641207209968e-06
4063.65,-1.0560002047894803e-06
4064.55,-1.0493666280950256e-06
4065.45,-1.0434239348667708e-06
4066.35,-1.0469005180835152e-06
4067.25,-1.0570885666135712e-06
4068.15,-1.0646460750652888e-06
4069.05,-1.0661177445695668e-06
4069.95,-1.07228126934566e-06
4070.85,-1.0696872804823964e-06
4071.75,-1.0677080859945246e-06
4072.65,-1.0669666838771804e-06
4073.55,-1.0575177460098553e-06
4074.45,-1.0523176757510073e-06
4075.35,-1.0405206144215254e-06
4076.25,-1.0271854216735882e-06
4077.15,-1.0165880236872143e-06
4078.05,-1.0122175818917842e-06
4078.95,-1.005782926193535e-06
4079.85,-1.0114980620347634e-06
4080.75,-1.0225052574211493e-06
4081.65,-1.0287838573338316e-06
4082.55,-1.0357017422912506e-06
4083.45,-1.0411060042310137e-06
4084.35,-1.0346573307357828e-06
4085.25,-1.032693156986894e-06
4086.15,-1.030004055078376e-06
4087.05,-1.0322661477322826e-06
4087.95,-1.0355242691104596e-06
4088.85,-1.0336405211913213e-06
4089.75,-1.0337410006065667e-06
4090.65,-1.02995020409745e-06
4091.55,-1.017818882968111e-06
4092.45,-1.0043033413868762e-06
4093.36,-9.846006854270845e-07
4094.26,-9.61487192220058e-07
4095.16,-9.369641400685976e-07
4096.06,-9.089523985111307e-07
4096.96,-8.74453745447027e-07
4097.86,-8.401699283124784e-07
4098.76,-7.991371561049395e-07
4099.66,-7.548442682897508e-07
4100.56,-7.167383496793997e-07
4101.46,-6.80351888758176e-07
4102.36,-6.657120330322226e-07
4103.26,-6.68864973629092e-07
4104.16,-6.836286972622864e-07
4105.06,-7.177937175004153e-07
4105.96,-7.592646352951052e-07
4106.86,-8.027956836936135e-07
4107.76,-8.38078806439869e-07
4108.66,-8.719909158883937e-07
4109.56,-9.011386164257532e-07
4110.46,-9.23779216886485e-07
4111.36,-9.416979620159261e-07
4112.26,-9.646618861705931e-07
4113.16,-9.855375753496338e-07
4114.06,-1.0052468909226613e-06
4114.96,-1.0275021320075687e-06
4115.86,-1.0404086467293187e-06
4116.76,-1.0479412252231736e-06
4117.66,-1.0587485934490036e-06
4118.56,-1.0580123182803303e-06
4119.46,-1.0648350938474834e-06
4120.36,-1.0668115114292382e-06
4121.26,-1.0704745706891414e-06
4122.16,-1.0803231557084601e-06
4123.06,-1.086066744450627e-06
4123.96,-1.0869427972528108e-06
4124.86,-1.0972096428855546e-06
4125.76,-1.1032661896276505e-06
4126.66,-1.11328526581213e-06
4127.56,-1.1121162845875706e-06
4128.46,-1.1097186877972169e-06
4129.36,-1.1100519876325218e-06
4130.26,-1.106418088737117e-06
4131.17,-1.107231909914185e-06
4132.06,-1.1045207279492822e-06
4132.97,-1.1024906047706486e-06
4133.87,-1.1085037166792584e-06
4134.77,-1.1167109128397781e-06
4135.67,-1.1256934748691544e-06
4136.57,-1.1360242967435368e-06
4137.47,-1.1540855994389228e-06
4138.37,-1.163319416130835e-06
4139.27,-1.1746689785117725e-06
4140.17,-1.1751553633397976e-06
4141.07,-1.1782222758368425e-06
4141.97,-1.1710579702081432e-06
4142.87,-1.1624422563369743e-06
4143.77,-1.1540004051471584e-06
4144.67,-1.1490911825623015e-06
4145.57,-1.146956687965062e-06
4146.47,-1.1585649155233674e-06
4147.37,-1.164613602981626e-06
4148.27,-1.174430107007499e-06
4149.17,-1.178286844212545e-06
4150.07,-1.1821502814168847e-06
4150.97,-1.1843780100997025e-06
4151.87,-1.18167710726506e-06
4152.77,-1.1761626682779341e-06
4153.67,-1.1759658900296826e-06
4154.57,-1.173827929589439e-06
4155.47,-1.1687721406940417e-06
4156.37,-1.177311516007518e-06
4157.27,-1.1806136230834077e-06
4158.17,-1.1841160995447528e-06
4159.07,-1.1938629267097074e-06
4159.97,-1.2018718260074494e-06
4160.87,-1.2064772909338466e-06
4161.77,-1.214023826464767e-06
4162.67,-1.2193335696931305e-06
4163.57,-1.2276895255348936e-06
4164.47,-1.2218433192387163e-06
4165.37,-1.229823802590935e-06
4166.27,-1.2232785103243577e-06
4167.17,-1.21868621085024e-06
4168.07,-1.2214670207751987e-06
4168.98,-1.217368020278441e-06
4169.88,-1.207032321867127e-06
4170.78,-1.1998347550726192e-06
4171.68,-1.1916336659995846e-06
4172.58,-1.1722361732585198e-06
4173.48,-1.1617119572129459e-06
4174.38,-1.1632595143292504e-06
4175.28,-1.160641762666545e-06
4176.18,-1.163282087879816e-06
4177.08,-1.1675175061214036e-06
4177.98,-1.1753431773173661e-06
4178.88,-1.1863712961897433e-06
4179.78,-1.189343179560037e-06
4180.68,-1.1995068979469875e-06
4181.58,-1.200097874896716e-06
4182.48,-1.2142912334713965e-06
4183.38,-1.2154968849263902e-06
4184.28,-1.2176059151722365e-06
4185.18,-1.2212228980154574e-06
4186.08,-1.2261514961547868e-06
4186.98,-1.2198314284523317e-06
4187.88,-1.2200377093458068e-06
4188.78,-1.217826326410283e-06
4189.68,-1.2277072166829752e-06
4190.58,-1.2305428432080963e-06
4191.48,-1.238534874441477e-06
4192.38,-1.2408794240714224e-06
4193.28,-1.2455556229642034e-06
4194.18,-1.2503414754374833e-06
4195.08,-1.2464140259463001e-06
4195.98,-1.240751970216482e-06
4196.88,-1.2338582301903366e-06
4197.78,-1.2213551675119482e-06
4198.68,-1.214120944257244e-06
4199.58,-1.2046290346025425e-06
4200.48,-1.197361791031009e-06
4201.38,-1.2010066358950485e-06
4202.28,-1.1999553091641477e-06
4203.18,-1.210054935359582e-06
4204.08,-1.2165886382780993e-06
4204.98,-1.2219040138654406e-06
4205.88,-1.2350294437303127e-06
4206.79,-1.242337749535155e-06
4207.69,-1.2553023263364697e-06
4208.59,-1.2666446868171845e-06
4209.49,-1.2673947114225825e-06
4210.39,-1.2730965097782925e-06
4211.29,-1.2723036611159094e-06
4212.19,-1.275022388578446e-06
4213.09,-1.2757797842565428e-06
4213.99,-1.265249141399209e-06
4214.89,-1.2637155594535756e-06
4215.79,-1.2532535225077205e-06
4216.69,-1.2526377456231104e-06
4217.59,-1.2553470944419494e-06
4218.49,-1.2642018189368762e-06
4219.39,-1.2725523391517116e-06
4220.29,-1.275078210213098e-06
4221.19,-1.2782345124037886e-06
4222.09,-1.2803511127024198e-06
4222.99,-1.2698136001570375e-06
4223.89,-1.2515053369905424e-06
4224.79,-1.2236211083057092e-06
4225.69,-1.2031293589738392e-06
4226.59,-1.185221190333343e-06
4227.49,-1.1786303493042239e-06
4228.39,-1.1888632716875024e-06
4229.29,-1.2046989554247311e-06
4230.19,-1.230372184460844e-06
4231.09,-1.2515571675626615e-06
4231.99,-1.2608441036769234e-06
4232.89,-1.271735191922845e-06
4233.79,-1.275130197181778e-06
4234.69,-1.2736559738029966e-06
4235.59,-1.2656004649561947e-06
4236.49,-1.2650673874509971e-06
4237.39,-1.2616621543178096e-06
4238.29,-1.26112201781423e-06
4239.19,-1.2709115328768607e-06
4240.09,-1.2708040731368598e-06
4240.99,-1.2855304752337177e-06
4241.89,-1.2927002362566064e-06
4242.79,-1.2969959601873696e-06
4243.69,-1.306009495855238e-06
4244.59,-1.301966897799233e-06
4245.5,-1.3094071872813782e-06
4246.4,-1.2969824582555813e-06
4247.3,-1.2902282441568236e-06
4248.2,-1.2803392168923323e-06
4249.1,-1.2775374122052096e-06
4250.0,-1.266535472683389e-06
4250.9,-1.276554192573649e-06
4251.8,-1.2792463240995137e-06
4252.7,-1.2856194566645552e-06
4253.6,-1.2907054896679866e-06
4254.5,-1.2935253280880126e-06
4255.4,-1.2990613941678285e-06
4256.3,-1.303304726874542e-06
4257.2,-1.3097292266008234e-06
4258.1,-1.310290886239031e-06
4259.0,-1.3079122699101241e-06
4259.9,-1.3007312574199239e-06
4260.8,-1.296153600769748e-06
4261.7,-1.295934935805823e-06
4262.6,-1.3014006158918411e-06
4263.5,-1.3224187188017876e-06
4264.4,-1.3309879600126576e-06
4265.3,-1.3405605500619621e-06
4266.2,-1.3499318666078012e-06
4267.1,-1.3484412268181882e-06
4268.0,-1.3404559589067787e-06
4268.9,-1.3295902968911639e-06
4269.8,-1.3105443864508717e-06
4270.7,-1.2947690987580636e-06
4271.6,-1.2748739266182624e-06
4272.5,-1.2649989778152937e-06
4273.4,-1.2622971192375027e-06
4274.3,-1.2650175345476873e-06
4275.2,-1.2724004037108698e-06
4276.1,-1.2794641729204362e-06
