wave,flux
3700.85,-0.00012035670044510743
3701.75,-0.00011950160982933406
3702.65,-0.00011653770093570379
3703.55,-0.00011254752981978031
3704.45,-0.000107939786971676
3705.35,-0.00010444905226069302
3706.25,-0.00010209223218040961
3707.15,-0.00010198998563916566
3708.05,-0.00010313223946878889
3708.96,-0.00010494508158475144
3709.86,-0.00010759990655998059
3710.76,-0.00011030375246664144
3711.66,-0.00011411364418173909
3712.56,-0.00011846074748686768
3713.46,-0.00012331925455228056
3714.36,-0.0001279112994365454
3715.26,-0.000132275018647028
3716.16,-0.00013393356145134433
3717.06,-0.00013369458968029316
3717.96,-0.0001305389668522094
3718.86,-0.00012539246673543277
3719.76,-0.00011820798115016562
3720.66,-0.00011114112448719843
3721.56,-0.00010681283469856091
3722.46,-0.0001056004298896199
3723.36,-0.00010878493583346661
3724.26,-0.00011435424203669244
3725.16,-0.00012122345158700995
3726.06,-0.00012777189694531307
3726.96,-0.00013194760848025575
3727.86,-0.00013471547064493352
3728.76,-0.00013631004364282078
3729.66,-0.00013629965604233045
3730.56,-0.00013500177526680577
3731.46,-0.00013120813057744727
3732.36,-0.00012576766482635374
3733.26,-0.00011843984511193698
3734.16,-0.00011086526231684353
3735.06,-0.00010547617890742633
3735.96,-0.00010335411729815768
3736.86,-0.0001055831359119292
3737.76,-0.00011165242251079059
3738.66,-0.00012021817147286514
3739.56,-0.00012923801916909524
3740.46,-0.00013781954246275954
3741.36,-0.00014293107288604204
3742.26,-0.00014645335721976294
3743.16,-0.00014582223316029325
3744.06,-0.00014255913176502188
3744.96,-0.00013846769839390846
3745.86,-0.00013291093332758652
3746.76,-0.0001277598766142456
3747.67,-0.00012159320254677563
3748.57,-0.00011758301184500871
3749.47,-0.00011413553240835497
3750.37,-0.00011553814067503373
3751.27,-0.00012125300367872943
3752.17,-0.00013038601356882268
3753.07,-0.00014089064549875358
3753.97,-0.0001531039456179034
3754.87,-0.00016218481655739178
3755.77,-0.0001677535653892168
3756.67,-0.00016914455754697732
3757.57,-0.00016641112106942992
3758.47,-0.00016376461416009816
3759.37,-0.0001606952357125767
3760.27,-0.00015979942294850726
3761.17,-0.00016073743465436593
3762.07,-0.00016467601154126636
3762.97,-0.00016904051930595804
3763.87,-0.0001712470810848489
3764.77,-0.0001730349816886771
3765.67,-0.00017387860989422082
3766.57,-0.00017368373012916497
3767.47,-0.00017124856330576814
3768.37,-0.00016891001403073882
3769.27,-0.00016618601098264196
3770.17,-0.00016539796074969631
3771.07,-0.0001660177459496529
3771.97,-0.00016971719148623822
3772.87,-0.0001746746131448331
3773.77,-0.00018186715977935262
3774.67,-0.00018829907399480644
3775.57,-0.00019432824944404887
3776.47,-0.00020053637661282151
3777.37,-0.00020563408776486713
3778.27,-0.0002113267819713312
3779.17,-0.00021692810548022882
3780.07,-0.00022209283042838986
3780.97,-0.00022756573512939707
3781.87,-0.00023109566533585806
3782.77,-0.00023271378864139644
3783.67,-0.0002342057163948174
3784.57,-0.0002335043906823205
3785.47,-0.00023010658681018938
3786.38,-0.00022536978915233658
3787.28,-0.00022087068654223963
3788.18,-0.0002173730546407588
3789.08,-0.0002147251000428861
3789.98,-0.00021339554684656473
3790.88,-0.00021280455239704993
3791.78,-0.0002129508778945766
3792.68,-0.00021100704522449435
3793.58,-0.0002081079957552294
3794.48,-0.00020333100951801562
3795.38,-0.00019699514640996132
3796.28,-0.00019027642180653457
3797.18,-0.00018414565097321558
3798.08,-0.00017948538633170662
3798.98,-0.0001809254212020375
3799.88,-0.00018582170369453783
3800.78,-0.00019704221838856762
3801.68,-0.00021156825760096034
3802.58,-0.00022607731422919262
3803.48,-0.00023944173766115702
3804.38,-0.0002485421390541097
3805.28,-0.0002548598966549291
3806.18,-0.00025877863948685435
3807.08,-0.00026109344821463127
3807.98,-0.0002629929253519151
3808.88,-0.00026572064946841047
3809.78,-0.00026924606574350683
3810.68,-0.0002715830488640415
3811.58,-0.00027107181411685174
3812.48,-0.00026791853166358254
3813.38,-0.0002638877797859684
3814.28,-0.00025819960303651
3815.18,-0.0002535604676589029
3816.08,-0.0002502915592701062
3816.98,-0.000249758874471878
3817.88,-0.0002521147612701168
3818.78,-0.0002525610790369662
3819.68,-0.0002517646515158577
3820.58,-0.00025142111799180783
3821.48,-0.00024979695797096443
3822.38,-0.0002490633444753958
3823.28,-0.00024760178888198764
3824.18,-0.0002456236372411064
3825.09,-0.00024140388173468972
3825.99,-0.0002365040115243314
3826.89,-0.00023350536385469147
3827.79,-0.00023116848937733024
3828.69,-0.00022879993874430686
3829.59,-0.00022707491824728337
3830.49,-0.00022477830819029847
3831.39,-0.00021941879105073046
3832.29,-0.00021195094239814482
3833.19,-0.0002035192815251427
3834.09,-0.00019529390969671935
3834.99,-0.00019187660655646963
3835.89,-0.00018867328206618924
3836.79,-0.00019025033866805737
3837.69,-0.00019575253911480474
3838.59,-0.00020263373925887655
3839.49,-0.0002124393827817918
3840.39,-0.00022403828323540903
3841.29,-0.00023866313672970684
3842.19,-0.0002546726707536254
3843.09,-0.000273019496111878
3843.99,-0.00028839638408236396
3844.89,-0.0003015485387372853
3845.79,-0.00031365680999839826
3846.69,-0.0003209330527418533
3847.59,-0.0003253563582022767
3848.49,-0.00033017211559246675
3849.39,-0.0003335444186095885
3850.29,-0.0003363094268335302
3851.19,-0.0003383814319994832
3852.09,-0.000341016381227555
3852.99,-0.0003432341423430057
3853.89,-0.00034588859681986196
3854.79,-0.00034710117221471606
3855.69,-0.0003452605794993743
3856.59,-0.00033959518249045096
3857.49,-0.0003337000342943299
3858.39,-0.00032839830340485336
3859.29,-0.0003268671032597355
3860.19,-0.00032648391907279045
3861.09,-0.0003314915828962088
3861.99,-0.0003410959931306806
3862.9,-0.0003517937784511699
3863.8,-0.0003632739857272014
3864.7,-0.00037256118987749474
3865.6,-0.00037904062595692494
3866.5,-0.0003836783616635318
3867.4,-0.00038594270320870206
3868.3,-0.0003875310767942159
3869.2,-0.00038617811946586736
3870.1,-0.00038308321759307804
3871.0,-0.0003763207394988127
3871.9,-0.00036910617482014096
3872.8,-0.00036524623525398866
3873.7,-0.0003620469707708564
3874.6,-0.0003632251335711805
3875.5,-0.0003678479601155628
3876.4,-0.0003691627714301624
3877.3,-0.00037103660853390126
3878.2,-0.00037144985984573795
3879.1,-0.00037248534265878235
3880.0,-0.00037212378777370654
3880.9,-0.00037517304210503855
3881.8,-0.00037840659158580673
3882.7,-0.00037817871701381335
3883.6,-0.00037595255727679733
3884.5,-0.0003691168643439767
3885.4,-0.00035952979759100564
3886.3,-0.00034759041053621564
3887.2,-0.0003330933832968713
3888.1,-0.0003231694789390781
3889.0,-0.00031493678879499415
3889.9,-0.00031714924417589453
3890.8,-0.00032689566988398347
3891.7,-0.0003415357441261998
3892.6,-0.00035892881509792866
3893.5,-0.00037575210507843015
3894.4,-0.00038959446576242976
3895.3,-0.00040373670918702646
3896.2,-0.00041185061166897487
3897.1,-0.0004198965162066123
3898.0,-0.0004250617813931297
3898.9,-0.0004340958219332348
3899.8,-0.00043794556654590044
3900.7,-0.00044388931556539667
3901.6,-0.0004462609639233506
3902.51,-0.00045204030637888685
3903.41,-0.0004513928415278405
3904.31,-0.0004506716288100365
3905.21,-0.0004525823747128415
3906.11,-0.0004531942393103493
3907.01,-0.0004598684407731649
3907.91,-0.00046744528701229054
3908.81,-0.0004813199361958494
3909.71,-0.0004959733407867027
3910.61,-0.0005087788488989494
3911.51,-0.0005219148035036526
3912.41,-0.000527874730920337
3913.31,-0.0005296080600130211
3914.21,-0.000531402379814078
3915.11,-0.0005292091958717525
3916.01,-0.0005272872051798189
3916.91,-0.0005224320201816119
3917.81,-0.000518742531517266
3918.71,-0.0005124122429655703
3919.61,-0.0005073908410303075
3920.51,-0.0005010319088628834
3921.41,-0.0004951718583702645
3922.31,-0.0004951066625945944
3923.21,-0.0004924859993846636
3924.11,-0.0004912012731948708
3925.01,-0.0004851086709422926
3925.91,-0.0004736958865455977
3926.81,-0.00045490915076974817
3927.71,-0.00042781606601892917
3928.61,-0.0003952414989095805
3929.51,-0.0003554687474890118
3930.41,-0.0003157680043490455
3931.31,-0.0002736121505220432
3932.21,-0.0002366505029929727
3933.11,-0.0002067622642442874
3934.01,-0.0001908096462306694
3934.91,-0.0001880506280659107
3935.81,-0.00020361486335111005
3936.71,-0.00023230389032732838
3937.61,-0.000274496954377621
3938.51,-0.0003220444880324841
3939.42,-0.00037079652154699126
3940.32,-0.000415168709648553
3941.22,-0.00045434002667790865
3942.12,-0.00048505716275962696
3943.02,-0.0005077756688187629
3943.92,-0.0005294520063986892
3944.82,-0.000547370905952595
3945.72,-0.0005654228545157469
3946.62,-0.0005844827331026434
3947.52,-0.0006019994448202685
3948.42,-0.0006151112822413372
3949.32,-0.0006302166985176979
3950.22,-0.0006410092886006485
3951.12,-0.0006513015329864298
3952.02,-0.0006592332752117145
3952.92,-0.0006687016156028273
3953.82,-0.0006741892314325726
3954.72,-0.0006827157908094368
3955.62,-0.000682812050064532
3956.52,-0.0006826627226186974
3957.42,-0.0006827902922608028
3958.32,-0.0006788066989914373
3959.22,-0.0006738746946587898
3960.12,-0.0006623786625291098
3961.02,-0.0006448912283106345
3961.92,-0.0006204476119308167
3962.82,-0.0005873569841785887
3963.72,-0.0005482903880428553
3964.62,-0.0005028624236232891
3965.52,-0.00045251013062694116
3966.42,-0.00040191182452849097
3967.32,-0.0003500967382301049
3968.22,-0.0003097730519863005
3969.12,-0.000283671934975883
3970.02,-0.0002799332801116297
3970.92,-0.00029749360862174737
3971.82,-0.0003367010620587905
3972.72,-0.00039063571932253526
3973.62,-0.00045350003375931876
3974.52,-0.0005180548820667737
3975.42,-0.0005800831811171393
3976.32,-0.0006338664094663502
3977.22,-0.0006853736509724845
3978.13,-0.0007340862953116157
3979.03,-0.0007682124115687147
3979.93,-0.0008049906303750605
3980.83,-0.0008294096096246566
3981.73,-0.0008454643747625273
3982.63,-0.0008572541344680776
3983.53,-0.0008715120191616611
3984.43,-0.0008805614737405641
3985.33,-0.0008927134281422993
3986.23,-0.0009044838113882957
3987.13,-0.0009219298137432888
3988.03,-0.0009359326921969736
3988.93,-0.0009526619321129712
3989.83,-0.0009652778084549649
3990.73,-0.000977262076801884
3991.63,-0.0009913262675587398
3992.53,-0.0010067876776519303
3993.43,-0.0010172803351503766
3994.33,-0.001019344258956746
3995.23,-0.0010181616957864951
3996.13,-0.0010151013160388416
3997.03,-0.0010087359648177148
3997.93,-0.0010148029026475626
3998.83,-0.0010202581097798666
3999.73,-0.001033700012430438
4000.63,-0.0010511030781760735
4001.53,-0.0010706446073616563
4002.43,-0.0010831719863568902
4003.33,-0.0010909375956899739
4004.23,-0.0010968294297086438
4005.13,-0.0010929115705223572
4006.03,-0.0010934080343565987
4006.93,-0.001091950872455286
4007.83,-0.0011058453864120584
4008.73,-0.0011232866397641874
4009.63,-0.001138576575150391
4010.53,-0.00116437447351304
4011.43,-0.0011817607866117799
4012.33,-0.0011952827748518025
4013.23,-0.0012086038849130904
4014.13,-0.0012157609059699147
4015.03,-0.0012256832188445477
4015.93,-0.001238994366925501
4016.84,-0.0012443863692341293
4017.74,-0.0012520779644238117
4018.64,-0.0012665050982650587
4019.54,-0.001281602622788925
4020.44,-0.0012896718488521863
4021.34,-0.0013002292973400772
4022.24,-0.0013050931425833536
4023.14,-0.001317477529715333
4024.04,-0.001318615237961315
4024.94,-0.0013286009330372222
4025.84,-0.0013427731432531208
4026.74,-0.00136109135308269
4027.64,-0.001375817182708431
4028.54,-0.0013766929936405068
4029.44,-0.0013689744452527292
4030.34,-0.0013570479503869047
4031.24,-0.0013426785660946865
4032.14,-0.0013280646336708876
4033.04,-0.0013199212733519747
4033.94,-0.0013335330893443536
4034.84,-0.0013495030518832594
4035.74,-0.0013889024369179868
4036.64,-0.0014286477632134689
4037.54,-0.001466938089104378
4038.44,-0.001503739585943047
4039.34,-0.0015279141464557718
4040.24,-0.0015361341999135085
4041.14,-0.0015459843064536778
4042.04,-0.0015431261963793344
4042.94,-0.0015200662875725927
4043.84,-0.0014985935242304183
4044.74,-0.0014790253093828944
4045.64,-0.0014598416362276577
4046.54,-0.001462351073909869
4047.44,-0.0014744073084842326
4048.34,-0.0015093913928570085
4049.24,-0.0015538398601480363
4050.14,-0.0015958984564264313
4051.04,-0.0016291538185180764
4051.94,-0.0016551326322300911
4052.84,-0.001663411660204407
4053.74,-0.0016733229889710466
4054.65,-0.0016693716022978245
4055.55,-0.0016725922574042595
4056.45,-0.0016777932319469566
4057.35,-0.0016819897017455365
4058.25,-0.0016932067181931766
4059.15,-0.0017106457088136317
4060.05,-0.0017212872620983928
4060.95,-0.0017257061675876179
4061.85,-0.0017289114601006714
4062.75,-0.0017283710441870557
4063.65,-0.001713829227428064
4064.55,-0.001711148273591866
4065.45,-0.001711579164950004
4066.35,-0.0017275743337294871
4067.25,-0.0017538509345997532
4068.15,-0.001796776247100921
4069.05,-0.0018218933497887975
4069.95,-0.0018511336024896411
4070.85,-0.001863319696598671
4071.75,-0.0018729988533623275
4072.65,-0.0018725230185702264
4073.55,-0.0018774118574274505
4074.45,-0.0018752976456426085
4075.35,-0.0018680825816106068
4076.25,-0.0018553901991424943
4077.15,-0.001849491304286041
4078.05,-0.001835145600956692
4078.95,-0.0018477493263547742
4079.85,-0.0018876920590381
4080.75,-0.001935095956379706
4081.65,-0.001982810447094764
4082.55,-0.0020341374068236265
4083.45,-0.002063122805855575
4084.35,-0.0020946332114027974
4085.25,-0.0021177365411529287
4086.15,-0.0021485498007922294
4087.05,-0.002191144234839735
4087.95,-0.002228545850744146
4088.85,-0.0022625214575008774
4089.75,-0.002308067393067295
4090.65,-0.002326819049378504
4091.55,-0.002347156550342326
4092.45,-0.0023395339040847797
4093.36,-0.0023481164526142455
4094.26,-0.0023282822084279725
4095.16,-0.0023128527427087276
4096.06,-0.002285445947647687
4096.96,-0.0022414700417101537
4097.86,-0.0021983543978426998
4098.76,-0.0021353147590442807
4099.66,-0.0020698593196065555
4100.56,-0.0020028150719070695
4101.46,-0.0019435835834231785
4102.36,-0.001908796016844207
4103.26,-0.0019245737574201162
4104.16,-0.0019645806966669286
4105.06,-0.0020689525563516143
4105.96,-0.002167029958054184
4106.86,-0.0022746906115753227
4107.76,-0.0023622605693078653
4108.66,-0.002420803243920674
4109.56,-0.0024660529389110308
4110.46,-0.0025249418005693146
4111.36,-0.002563444640223288
4112.26,-0.00260766159693343
4113.16,-0.002650363117355654
4114.06,-0.0027023145838840257
4114.96,-0.0027347318879497205
4115.86,-0.0027734164915739997
4116.76,-0.0027990185701309866
4117.66,-0.0028203697726699698
4118.56,-0.0028233917296215105
4119.46,-0.002830894747675831
4120.36,-0.0028359482211277147
4121.26,-0.0028506026931571058
4122.16,-0.002864433816129907
4123.06,-0.002900557250865452
4123.96,-0.0029341874813615864
4124.86,-0.0029610188255896177
4125.76,-0.002999607116564287
4126.66,-0.0030263783283955258
4127.56,-0.0030428256364665117
4128.46,-0.003057871678356716
4129.36,-0.0030548196177910673
4130.26,-0.003054627462561176
4131.17,-0.003054819900002171
4132.06,-0.0030511150118840975
4132.97,-0.003045307329686639
4133.87,-0.003058310308292365
4134.77,-0.0030955677845977162
4135.67,-0.00315632322808151
4136.57,-0.0032279420024042254
4137.47,-0.0032910614882491595
4138.37,-0.0033638925870901615
4139.27,-0.0034143277965333093
4140.17,-0.003453907249749312
4141.07,-0.0034608029478655753
4141.97,-0.003425382455393126
4142.87,-0.003408839222919426
4143.77,-0.003390940189682622
4144.67,-0.0033891995308069326
4145.57,-0.0034170922575050703
4146.47,-0.003470054042520156
4147.37,-0.003525582291303788
4148.27,-0.0035906735008046265
4149.17,-0.003644547962478192
4150.07,-0.0036838212398704697
4150.97,-0.0037178982168515474
4151.87,-0.003717342295208335
4152.77,-0.003734714625084126
4153.67,-0.0037575793448706763
4154.57,-0.0037529966701791667
4155.47,-0.003785252589608807
4156.37,-0.0038155677681793324
4157.27,-0.0038519177667390788
4158.17,-0.003920636339064334
4159.07,-0.0039757000233896014
4159.97,-0.00405177895848415
4160.87,-0.004103647072412221
4161.77,-0.004183505776469551
4162.67,-0.004228391840433922
4163.57,-0.004275607057474515
4164.47,-0.004325943286490559
4165.37,-0.004339231063168405
4166.27,-0.004366270510200377
4167.17,-0.004383242067615278
4168.07,-0.0043877962779102705
4168.98,-0.004368045556117964
4169.88,-0.004360207747356987
4170.78,-0.004355545283961848
4171.68,-0.004326447101043833
4172.58,-0.004293862519920838
4173.48,-0.004262335875880673
4174.38,-0.004266533576929071
4175.28,-0.004300580038968459
4176.18,-0.004341937178908908
4177.08,-0.004416290720465176
4177.98,-0.004487208922074021
4178.88,-0.0045975960802591255
4179.78,-0.0046508709786718646
4180.68,-0.004732379821488063
4181.58,-0.004784288829242376
4182.48,-0.004839821818194817
4183.38,-0.0048659309914261435
4184.28,-0.004914090694426237
4185.18,-0.004951389951331682
4186.08,-0.004975310783031447
4186.98,-0.004977366023690061
4187.88,-0.0050301161643679865
4188.78,-0.0050475225132233055
4189.68,-0.00510950469130005
4190.58,-0.005138745449135935
4191.48,-0.005224570107938154
4192.38,-0.005331014412490362
4193.28,-0.005369833821740944
4194.18,-0.005462666211373579
4195.08,-0.005492115052523865
4195.98,-0.005512888631329615
4196.88,-0.005480908532679782
4197.78,-0.00544883608346145
4198.68,-0.005421462480301825
4199.58,-0.005409578706825148
4200.48,-0.00543047682901098
4201.38,-0.00544701903319141
4202.28,-0.005509341061883526
4203.18,-0.005555056109831542
4204.08,-0.0056782328400284314
4204.98,-0.005727873615153264
4205.88,-0.005866276663796541
4206.79,-0.005963244395146499
4207.69,-0.006060115999241733
4208.59,-0.006181986676482555
4209.49,-0.006277716151610241
4210.39,-0.006370476254927958
4211.29,-0.006416322899543839
4212.19,-0.006473403027474257
4213.09,-0.006509770614910109
4213.99,-0.006501102663206569
4214.89,-0.006483120388909777
4215.79,-0.006492768914522543
4216.69,-0.006502487497028069
4217.59,-0.006560891006139371
4218.49,-0.006638049100798844
4219.39,-0.006764645835871987
4220.29,-0.006882219805305218
4221.19,-0.006956994917887239
4222.09,-0.006934949200523023
4222.99,-0.006934832867570806
4223.89,-0.006851494146646195
4224.79,-0.006685366367201363
4225.69,-0.006527302130031315
4226.59,-0.006429814918042613
4227.49,-0.006411634294268017
4228.39,-0.006477821123556109
4229.29,-0.006705987511866952
4230.19,-0.006954256245444823
4231.09,-0.00722651862629367
4231.99,-0.0074280690311005265
4232.89,-0.007578184161714122
4233.79,-0.007658339356193171
4234.69,-0.007687865455199179
4235.59,-0.007697832650602547
4236.49,-0.007722569589368424
4237.39,-0.007796162093807044
4238.29,-0.007850808433016575
4239.19,-0.00799919412847242
4240.09,-0.00808570113094696
4240.99,-0.008248627203586646
4241.89,-0.00839269756525676
4242.79,-0.008547169267398735
4243.69,-0.008619842187208687
4244.59,-0.008699457510466455
4245.5,-0.0087545055296464
4246.4,-0.00882095777674195
4247.3,-0.008785850521150187
4248.2,-0.008731016522061215
4249.1,-0.008783484155116834
4250.0,-0.008784260355797107
4250.9,-0.008848138575128863
4251.8,-0.008986824976861386
4252.7,-0.009080260022854645
4253.6,-0.009215532502129871
4254.5,-0.0093311967988283
4255.4,-0.009448749036764013
4256.3,-0.009595265454292332
4257.2,-0.009681280612653411
4258.1,-0.009742436028953905
4259.0,-0.009795521026299853
4259.9,-0.009833073199185171
4260.8,-0.009859226252966173
4261.7,-0.009975418636243792
4262.6,-0.01014182568034902
4263.5,-0.010356985916223102
4264.4,-0.01057394554525638
4265.3,-0.010821836365763953
4266.2,-0.010993062677162331
4267.1,-0.011070884616128202
4268.0,-0.011060551541831574
4268.9,-0.011090347832397662
4269.8,-0.010926516758715678
4270.7,-0.010824443984724558
4271.6,-0.010653543200283526
4272.5,-0.010612784839638484
4273.4,-0.010605246259687465
4274.3,-0.010701980022638625
4275.2,-0.01094339212822479
4276.1,-0.011175729566882713
4277.0,-0.011455717186246077
4277.9,-0.011743375045568105
4278.8,-0.012005978123834473
4279.7,-0.012165871548534737
4280.6,-0.012260877783410803
4281.5,-0.012317321460513692
4282.4,-0.012418299637137241
4283.31,-0.012473330886175712
4284.21,-0.012461653167235071
