wave,flux
3700.85,-4.976480412873875e-07
3701.75,-4.926968400623788e-07
3702.65,-4.806434934980535e-07
3703.55,-4.6066128074318404e-07
3704.45,-4.389002203697356e-07
3705.35,-4.238728238147382e-07
3706.25,-4.1394371394510034e-07
3707.15,-4.1203934513763463e-07
3708.05,-4.1388159563954356e-07
3708.96,-4.1991628020040167e-07
3709.86,-4.2906839986379407e-07
3710.76,-4.3592195720893916e-07
3711.66,-4.4961178461042803e-07
3712.56,-4.6575169117009247e-07
3713.46,-4.831547281295283e-07
3714.36,-4.983311502145451e-07
3715.26,-5.137330836302352e-07
3716.16,-5.227732149804967e-07
3717.06,-5.208834953462694e-07
3717.96,-5.050458375326564e-07
3718.86,-4.841016544464592e-07
3719.76,-4.580015201654419e-07
3720.66,-4.294778455655963e-07
3721.56,-4.07924473568964e-07
3722.46,-4.008437369177469e-07
3723.36,-4.0918852323202267e-07
3724.26,-4.30265121057554e-07
3725.16,-4.542839746614154e-07
3726.06,-4.775311508090354e-07
3726.96,-4.92644991288951e-07
3727.86,-5.035734855661843e-07
3728.76,-5.050711308355638e-07
3729.66,-5.048151061287601e-07
3730.56,-4.934693350808355e-07
3731.46,-4.7629397813469657e-07
3732.36,-4.5191464679489955e-07
3733.26,-4.2386861624152213e-07
3734.16,-3.9309216490613726e-07
3735.06,-3.734462233584207e-07
3735.96,-3.654770841825711e-07
3736.86,-3.745752635741309e-07
3737.76,-3.962310670191124e-07
3738.66,-4.2867781184522453e-07
3739.56,-4.6304255229778623e-07
3740.46,-4.923903945899931e-07
3741.36,-5.130396407577559e-07
3742.26,-5.2096134044199e-07
3743.16,-5.169556754365929e-07
3744.06,-5.027375204481524e-07
3744.96,-4.851534530762261e-07
3745.86,-4.626813291528529e-07
3746.76,-4.4053969925450324e-07
3747.67,-4.170711775326545e-07
3748.57,-3.971078415276821e-07
3749.47,-3.8226834991173566e-07
3750.37,-3.8111864411569005e-07
3751.27,-3.969818122836586e-07
3752.17,-4.262513821418332e-07
3753.07,-4.601945590551418e-07
3753.97,-5.008231873393608e-07
3754.87,-5.304450030774254e-07
3755.77,-5.497449914044049e-07
3756.67,-5.553048267045067e-07
3757.57,-5.503628987339413e-07
3758.47,-5.383411876199651e-07
3759.37,-5.285205813881593e-07
3760.27,-5.232756743530105e-07
3761.17,-5.251104072137885e-07
3762.07,-5.34184685900599e-07
3762.97,-5.43516721383395e-07
3763.87,-5.486403906003044e-07
3764.77,-5.509865520875516e-07
3765.67,-5.468685251842284e-07
3766.57,-5.397408799243986e-07
3767.47,-5.256517825345958e-07
3768.37,-5.135967595946e-07
3769.27,-4.992731755351118e-07
3770.17,-4.873474376495588e-07
3771.07,-4.857470790367508e-07
3771.97,-4.942846123767416e-07
3772.87,-5.093870498478344e-07
3773.77,-5.308189842407792e-07
3774.67,-5.537977840388221e-07
3775.57,-5.758978938681422e-07
3776.47,-5.941302853795992e-07
3777.37,-6.112808325272483e-07
3778.27,-6.297330640483553e-07
3779.17,-6.466510519950192e-07
3780.07,-6.614572477166778e-07
3780.97,-6.782237174380658e-07
3781.87,-6.884761460392137e-07
3782.77,-6.942276839555855e-07
3783.67,-6.975530550784534e-07
3784.57,-6.897939651955982e-07
3785.47,-6.796417824641154e-07
3786.38,-6.623947463055701e-07
3787.28,-6.447135120404759e-07
3788.18,-6.282872874046165e-07
3789.08,-6.162426411606389e-07
3789.98,-6.053636558246271e-07
3790.88,-5.962873134365282e-07
3791.78,-5.871013740455861e-07
3792.68,-5.802724822906994e-07
3793.58,-5.6619408378576e-07
3794.48,-5.436753794729319e-07
3795.38,-5.20520518859621e-07
3796.28,-4.947092308431348e-07
3797.18,-4.7298500193252205e-07
3798.08,-4.5972709377730127e-07
3798.98,-4.5770067171967734e-07
3799.88,-4.719067644689891e-07
3800.78,-5.008882499131863e-07
3801.68,-5.392059218773951e-07
3802.58,-5.782185641019028e-07
3803.48,-6.146765898663031e-07
3804.38,-6.449039267160851e-07
3805.28,-6.626465150629842e-07
3806.18,-6.694207392102432e-07
3807.08,-6.788127696980292e-07
3807.98,-6.84991042654523e-07
3808.88,-6.947273553443244e-07
3809.78,-7.061427110925896e-07
3810.68,-7.128048482125216e-07
3811.58,-7.145527464034087e-07
3812.48,-7.034521162127323e-07
3813.38,-6.914201145134127e-07
3814.28,-6.72420338616141e-07
3815.18,-6.599600518548432e-07
3816.08,-6.524640436061099e-07
3816.98,-6.516950284538837e-07
3817.88,-6.53690238415908e-07
3818.78,-6.508420147908446e-07
3819.68,-6.500845723958553e-07
3820.58,-6.465117636442509e-07
3821.48,-6.374438812918868e-07
3822.38,-6.31667976061058e-07
3823.28,-6.259145987135726e-07
3824.18,-6.15302532556448e-07
3825.09,-5.99179545307738e-07
3825.99,-5.854567375427236e-07
3826.89,-5.696940456751562e-07
3827.79,-5.586690907948257e-07
3828.69,-5.491867657852272e-07
3829.59,-5.387207810579628e-07
3830.49,-5.250845761678706e-07
3831.39,-5.083782281728215e-07
3832.29,-4.856610093638393e-07
3833.19,-4.6118213372846365e-07
3834.09,-4.369429862689841e-07
3834.99,-4.207604704788123e-07
3835.89,-4.104644099860328e-07
3836.79,-4.1189521879893894e-07
3837.69,-4.2132173300055333e-07
3838.59,-4.3989378007035424e-07
3839.49,-4.622899235018794e-07
3840.39,-4.91503234180113e-07
3841.29,-5.238613923242603e-07
3842.19,-5.626437951292627e-07
3843.09,-5.966079746205574e-07
3843.99,-6.316677736639424e-07
3844.89,-6.618136977085458e-07
3845.79,-6.852543706756135e-07
3846.69,-6.96222223830858e-07
3847.59,-7.11092927919757e-07
3848.49,-7.20657001324711e-07
3849.39,-7.299393455434113e-07
3850.29,-7.325795763566278e-07
3851.19,-7.360234311796665e-07
3852.09,-7.424428907789521e-07
3852.99,-7.505911147170077e-07
3853.89,-7.52673553661519e-07
3854.79,-7.492416641596353e-07
3855.69,-7.449979687837392e-07
3856.59,-7.381979092102992e-07
3857.49,-7.259390058300742e-07
3858.39,-7.148591191296136e-07
3859.29,-7.095913860519e-07
3860.19,-7.079449148640915e-07
3861.09,-7.133786784395367e-07
3861.99,-7.329145079054472e-07
3862.9,-7.489738199209504e-07
3863.8,-7.668766689704777e-07
3864.7,-7.833120500694681e-07
3865.6,-7.872166221848687e-07
3866.5,-7.846923783085545e-07
3867.4,-7.909548849674541e-07
3868.3,-7.848125025556671e-07
3869.2,-7.780710428989477e-07
3870.1,-7.691894451929427e-07
3871.0,-7.582381767788175e-07
3871.9,-7.427691310356649e-07
3872.8,-7.276146458257192e-07
3873.7,-7.240301395061032e-07
3874.6,-7.241007661619059e-07
3875.5,-7.252105569968846e-07
3876.4,-7.264007347830496e-07
3877.3,-7.245251483763686e-07
3878.2,-7.171118753450205e-07
3879.1,-7.080639209629043e-07
3880.0,-7.04460377729701e-07
3880.9,-6.968761054371443e-07
3881.8,-6.948713324896375e-07
3882.7,-6.866620518360149e-07
3883.6,-6.777584059202778e-07
3884.5,-6.5630632804305e-07
3885.4,-6.329145454212712e-07
3886.3,-6.039347237091227e-07
3887.2,-5.730327649386038e-07
3888.1,-5.482402402431421e-07
3889.0,-5.335529566127899e-07
3889.9,-5.314261307287556e-07
3890.8,-5.473291258350197e-07
3891.7,-5.712855922205858e-07
3892.6,-6.030632879435957e-07
3893.5,-6.343934328617527e-07
3894.4,-6.606082764785239e-07
3895.3,-6.836225734624968e-07
3896.2,-7.036062792319034e-07
3897.1,-7.204274180111167e-07
3898.0,-7.342767350213018e-07
3898.9,-7.485425549873766e-07
3899.8,-7.558328717262055e-07
3900.7,-7.690209022415213e-07
3901.6,-7.742395859524972e-07
3902.51,-7.775488919194598e-07
3903.41,-7.817504755465586e-07
3904.31,-7.803371298712438e-07
3905.21,-7.790623494019942e-07
3906.11,-7.799283359615695e-07
3907.01,-7.87482605774281e-07
3907.91,-8.019537918981452e-07
3908.81,-8.179139625084524e-07
3909.71,-8.399244981918373e-07
3910.61,-8.627468256195383e-07
3911.51,-8.738348819046576e-07
3912.41,-8.812616327816571e-07
3913.31,-8.817764385535101e-07
3914.21,-8.777287887580568e-07
3915.11,-8.740632172369307e-07
3916.01,-8.638276056035438e-07
3916.91,-8.599067785359957e-07
3917.81,-8.489432621825543e-07
3918.71,-8.353979760704516e-07
3919.61,-8.24709726361359e-07
3920.51,-8.161185050753626e-07
3921.41,-8.092358379461379e-07
3922.31,-8.070938322167372e-07
3923.21,-8.018953219287774e-07
3924.11,-7.959303896555194e-07
3925.01,-7.846096571636611e-07
3925.91,-7.659218967418577e-07
3926.81,-7.383921255138837e-07
3927.71,-6.931186817516383e-07
3928.61,-6.444320475855778e-07
3929.51,-5.884644388855465e-07
3930.41,-5.270250746351392e-07
3931.31,-4.6395939542513643e-07
3932.21,-4.052035369379538e-07
3933.11,-3.586697967911177e-07
3934.01,-3.3057034008276374e-07
3934.91,-3.25406911666984e-07
3935.81,-3.460667373505291e-07
3936.71,-3.8660149823680507e-07
3937.61,-4.429935294308194e-07
3938.51,-5.11184409109071e-07
3939.42,-5.769630538315542e-07
3940.32,-6.343851206035581e-07
3941.22,-6.822500686472169e-07
3942.12,-7.168593439885308e-07
3943.02,-7.414900404528734e-07
3943.92,-7.622701821290107e-07
3944.82,-7.846047169531713e-07
3945.72,-8.045808059564798e-07
3946.62,-8.235478518996037e-07
3947.52,-8.394734904677626e-07
3948.42,-8.552420612229112e-07
3949.32,-8.656176568434621e-07
3950.22,-8.743278227025885e-07
3951.12,-8.840555138782475e-07
3952.02,-8.873355542223893e-07
3952.92,-8.930571219751869e-07
3953.82,-8.97942661246528e-07
3954.72,-8.951469627458827e-07
3955.62,-8.890709853522895e-07
3956.52,-8.847485857949819e-07
3957.42,-8.775717108029187e-07
3958.32,-8.654499451696297e-07
3959.22,-8.571561843259772e-07
3960.12,-8.349040018555842e-07
3961.02,-8.069274670324421e-07
3961.92,-7.687175577452392e-07
3962.82,-7.257443385433914e-07
3963.72,-6.763806563789442e-07
3964.62,-6.220608632026179e-07
3965.52,-5.629440134217761e-07
3966.42,-5.001417734866907e-07
3967.32,-4.388046819074996e-07
3968.22,-3.868818273098928e-07
3969.12,-3.535382116871187e-07
3970.02,-3.4540304617732523e-07
3970.92,-3.5916084444524344e-07
3971.82,-3.9825797349314737e-07
3972.72,-4.50664911413228e-07
3973.62,-5.147983441740424e-07
3974.52,-5.819734944489768e-07
3975.42,-6.459278854614369e-07
3976.32,-7.040025953111673e-07
3977.22,-7.577032140930582e-07
3978.13,-8.09340616862287e-07
3979.03,-8.496776921172012e-07
3979.93,-8.823124905464838e-07
3980.83,-9.124753105809828e-07
3981.73,-9.24701276896881e-07
3982.63,-9.421819351014412e-07
3983.53,-9.486049704117002e-07
3984.43,-9.606441375534156e-07
3985.33,-9.731201830438933e-07
3986.23,-9.831474623398694e-07
3987.13,-9.934711343151386e-07
3988.03,-1.0109290071410172e-06
3988.93,-1.0227924280856905e-06
3989.83,-1.0323305398947607e-06
3990.73,-1.0456189044390553e-06
3991.63,-1.0532820226248727e-06
3992.53,-1.0655253178163448e-06
3993.43,-1.067558713551867e-06
3994.33,-1.0684695762937207e-06
3995.23,-1.0662056984703068e-06
3996.13,-1.057598929512891e-06
3997.03,-1.0552675875713137e-06
3997.93,-1.0499729306147286e-06
3998.83,-1.0550471411722578e-06
3999.73,-1.0624941081031062e-06
4000.63,-1.078558288944641e-06
4001.53,-1.0935463914588623e-06
4002.43,-1.0989492983958825e-06
4003.33,-1.1052482345967962e-06
4004.23,-1.0990286234545773e-06
4005.13,-1.08934062685272e-06
4006.03,-1.0810754363300552e-06
4006.93,-1.07811946498215e-06
4007.83,-1.0814051885491434e-06
4008.73,-1.0955962077697774e-06
4009.63,-1.1087177630361573e-06
4010.53,-1.122621992347659e-06
4011.43,-1.141146127342068e-06
4012.33,-1.1479143806199262e-06
4013.23,-1.1481421654971103e-06
4014.13,-1.156207830443157e-06
4015.03,-1.1602968260472306e-06
4015.93,-1.1570572366725706e-06
4016.84,-1.162521132685587e-06
4017.74,-1.1661780039267496e-06
4018.64,-1.1716716705613729e-06
4019.54,-1.1734669325530153e-06
4020.44,-1.1783848829826874e-06
4021.34,-1.1854117457556316e-06
4022.24,-1.1857222813785348e-06
4023.14,-1.1810365715129782e-06
4024.04,-1.1812917710574775e-06
4024.94,-1.182025396161626e-06
4025.84,-1.1946827169734265e-06
4026.74,-1.1957920693785314e-06
4027.64,-1.2051276873917958e-06
4028.54,-1.2059607880698423e-06
4029.44,-1.1936069213977517e-06
4030.34,-1.1778659092398229e-06
4031.24,-1.1545683330121436e-06
4032.14,-1.13672908792389e-06
4033.04,-1.1277118890399042e-06
4033.94,-1.1323039466454565e-06
4034.84,-1.143099316384385e-06
4035.74,-1.1654221750275988e-06
4036.64,-1.1872387225992135e-06
4037.54,-1.2138369574149867e-06
4038.44,-1.2356178520356356e-06
4039.34,-1.2423728746706144e-06
4040.24,-1.2526420074308983e-06
4041.14,-1.24279741335297e-06
4042.04,-1.2284627761267073e-06
4042.94,-1.2171610542144227e-06
4043.84,-1.1908304833686792e-06
4044.74,-1.1635470169519658e-06
4045.64,-1.1562597573380397e-06
4046.54,-1.144485872169262e-06
4047.44,-1.1484718158387577e-06
4048.34,-1.1666184519279897e-06
4049.24,-1.1985076798241966e-06
4050.14,-1.2218430206167991e-06
4051.04,-1.2304089933876563e-06
4051.94,-1.2429481369488017e-06
4052.84,-1.2394594155538427e-06
4053.74,-1.2321717554912863e-06
4054.65,-1.2240827344562699e-06
4055.55,-1.209982936657857e-06
4056.45,-1.2023266530371425e-06
4057.35,-1.2030417433422044e-06
4058.25,-1.1982893831370882e-06
4059.15,-1.2082648069712069e-06
4060.05,-1.2120027400489426e-06
4060.95,-1.2125009014378119e-06
4061.85,-1.2095959678638155e-06
4062.75,-1.2002972242506477e-06
4063.65,-1.1897104305946207e-06
4064.55,-1.175604391149938e-06
4065.45,-1.1733170729460305e-06
4066.35,-1.183349166710133e-06
4067.25,-1.1938618782969317e-06
4068.15,-1.2050095243261487e-06
4069.05,-1.2211223114609072e-06
4069.95,-1.2361776670989852e-06
4070.85,-1.2341440683874087e-06
4071.75,-1.2266099103869126e-06
4072.65,-1.2241468923176218e-06
4073.55,-1.2169370629124941e-06
4074.45,-1.2112466772086701e-06
4075.35,-1.1985296921667585e-06
4076.25,-1.1851109443122852e-06
4077.15,-1.1713740315834867e-06
4078.05,-1.1598439772280332e-06
4078.95,-1.1604915049939312e-06
4079.85,-1.1690467255033395e-06
4080.75,-1.1915419917834524e-06
4081.65,-1.2161385829308575e-06
4082.55,-1.23241700589352e-06
4083.45,-1.2442675960115792e-06
4084.35,-1.2457709171746079e-06
4085.25,-1.2533948830325685e-06
4086.15,-1.2565786524792587e-06
4087.05,-1.2702614559724639e-06
4087.95,-1.2858585582827742e-06
4088.85,-1.3025659367984399e-06
4089.75,-1.3033058200107747e-06
4090.65,-1.3092660951080287e-06
4091.55,-1.307307676023399e-06
4092.45,-1.298610477011257e-06
4093.36,-1.2760049717804643e-06
4094.26,-1.2554585447592563e-06
4095.16,-1.2356245111713782e-06
4096.06,-1.2106645421568148e-06
4096.96,-1.170635642933866e-06
4097.86,-1.1271396995886459e-06
4098.76,-1.087141167414308e-06
4099.66,-1.0353795558801447e-06
4100.56,-9.920772635406529e-07
4101.46,-9.50395837641293e-07
4102.36,-9.310056812094793e-07
4103.26,-9.326027490357954e-07
4104.16,-9.543039577274736e-07
4105.06,-1.0016449984195306e-06
4105.96,-1.0482195769798492e-06
4106.86,-1.0934879937325035e-06
4107.76,-1.139755548590572e-06
4108.66,-1.1737377382950415e-06
4109.56,-1.1988353981284525e-06
4110.46,-1.2152036063663506e-06
4111.36,-1.2356616349819302e-06
4112.26,-1.2487891803756555e-06
4113.16,-1.2684176884119943e-06
4114.06,-1.2897202667551076e-06
4114.96,-1.309121075598697e-06
4115.86,-1.3232164243160629e-06
4116.76,-1.3353324522357667e-06
4117.66,-1.3341298060415817e-06
4118.56,-1.3241946468974454e-06
4119.46,-1.3287882585653761e-06
4120.36,-1.3214974845367397e-06
4121.26,-1.3199906816380312e-06
4122.16,-1.3219597512748734e-06
4123.06,-1.3287902254845176e-06
4123.96,-1.3355813138159829e-06
4124.86,-1.3514682887798751e-06
4125.76,-1.3492099421611715e-06
4126.66,-1.3533992890526032e-06
4127.56,-1.3527914632339372e-06
4128.46,-1.3482532260677737e-06
4129.36,-1.3415695648586321e-06
4130.26,-1.3462626265775127e-06
4131.17,-1.3205582694138313e-06
4132.06,-1.3158472271532739e-06
4132.97,-1.3149725878094671e-06
4133.87,-1.3147442926800563e-06
4134.77,-1.3253956949783248e-06
4135.67,-1.3411571109405196e-06
4136.57,-1.3711952146863935e-06
4137.47,-1.3900762872409405e-06
4138.37,-1.4078256533491062e-06
4139.27,-1.4260956477259117e-06
4140.17,-1.4290028788875665e-06
4141.07,-1.4189379067106047e-06
4141.97,-1.4012631986249248e-06
4142.87,-1.3821870417524608e-06
4143.77,-1.374251045225232e-06
4144.67,-1.3603229070346726e-06
4145.57,-1.3655374185992797e-06
4146.47,-1.3743376368165864e-06
4147.37,-1.3905147983195268e-06
4148.27,-1.4046837503975437e-06
4149.17,-1.4131919465746732e-06
4150.07,-1.4196956783521941e-06
4150.97,-1.4157085909109573e-06
4151.87,-1.4105089706410513e-06
4152.77,-1.407526657107483e-06
4153.67,-1.3994912824046878e-06
4154.57,-1.3921796192140635e-06
4155.47,-1.393552702039337e-06
4156.37,-1.3980055145881328e-06
4157.27,-1.405895481798857e-06
4158.17,-1.4152457737236875e-06
4159.07,-1.438796711787407e-06
4159.97,-1.4515921543181794e-06
4160.87,-1.4635498772372684e-06
4161.77,-1.482348384450407e-06
4162.67,-1.4882479474009703e-06
4163.57,-1.4972702780310046e-06
4164.47,-1.4963618458346738e-06
4165.37,-1.493846634035729e-06
4166.27,-1.494794680794251e-06
4167.17,-1.4901931279409472e-06
4168.07,-1.4814538318828451e-06
4168.98,-1.4717154141258596e-06
4169.88,-1.4569439893504446e-06
4170.78,-1.4391085940746382e-06
4171.68,-1.423401098020061e-06
4172.58,-1.4027944393108056e-06
4173.48,-1.3810425394623807e-06
4174.38,-1.3753170458114896e-06
4175.28,-1.3766374558888312e-06
4176.18,-1.385356371803942e-06
4177.08,-1.395754884118878e-06
4177.98,-1.4014913933882565e-06
4178.88,-1.4225669082403568e-06
4179.78,-1.43542699646779e-06
4180.68,-1.4452213142058243e-06
4181.58,-1.4503577288144843e-06
4182.48,-1.4625212831590768e-06
4183.38,-1.4673007079321918e-06
4184.28,-1.472778909704586e-06
4185.18,-1.4664011451882915e-06
4186.08,-1.4723085184713902e-06
4186.98,-1.4757352355561383e-06
4187.88,-1.4743250037650655e-06
4188.78,-1.4738129181543815e-06
4189.68,-1.4831006367510565e-06
4190.58,-1.4845275527868798e-06
4191.48,-1.501590813896495e-06
4192.38,-1.5156377900390262e-06
4193.28,-1.522775908656995e-06
4194.18,-1.5279571332665294e-06
4195.08,-1.5203524196973779e-06
4195.98,-1.5112042232972361e-06
4196.88,-1.4943809653261902e-06
4197.78,-1.4746438440349192e-06
4198.68,-1.4579703308562046e-06
4199.58,-1.445840885044504e-06
4200.48,-1.4406319610301673e-06
4201.38,-1.4419716810609078e-06
4202.28,-1.4470291730139173e-06
4203.18,-1.4602164433022746e-06
4204.08,-1.4648756527590585e-06
4204.98,-1.4861633962150666e-06
4205.88,-1.5066398367258757e-06
4206.79,-1.5202957823307717e-06
4207.69,-1.545508548316759e-06
4208.59,-1.5561871608833199e-06
4209.49,-1.5627019683812479e-06
4210.39,-1.5819092053585072e-06
4211.29,-1.5820607761564799e-06
4212.19,-1.5806529482570626e-06
4213.09,-1.5815788610175265e-06
4213.99,-1.5736345705654471e-06
4214.89,-1.5579427227977211e-06
4215.79,-1.5454334996976252e-06
4216.69,-1.547752347404507e-06
4217.59,-1.5528694128913705e-06
4218.49,-1.5666429112446264e-06
4219.39,-1.5804186033600218e-06
4220.29,-1.5998383336650462e-06
4221.19,-1.5917861621990978e-06
4222.09,-1.5871553940849907e-06
4222.99,-1.5759288979105838e-06
4223.89,-1.5348572367104635e-06
4224.79,-1.4917731453965738e-06
4225.69,-1.4475266101067027e-06
4226.59,-1.4067888894228093e-06
4227.49,-1.4035878858264943e-06
4228.39,-1.407583729108296e-06
4229.29,-1.453481968457532e-06
4230.19,-1.4870603991697515e-06
4231.09,-1.5379481918779373e-06
4231.99,-1.5596350844252775e-06
4232.89,-1.5786480846560867e-06
4233.79,-1.5862988621263945e-06
4234.69,-1.5753341466850565e-06
4235.59,-1.5678510554737816e-06
4236.49,-1.5580554042778185e-06
4237.39,-1.5558890363070004e-06
4238.29,-1.558955611591571e-06
4239.19,-1.5671136801600633e-06
4240.09,-1.5773667519787505e-06
4240.99,-1.597744858190978e-06
4241.89,-1.6102392926740922e-06
4242.79,-1.624131811713011e-06
4243.69,-1.643503433407429e-06
4244.59,-1.6521825346969298e-06
4245.5,-1.6411611579669138e-06
4246.4,-1.6395117880396836e-06
4247.3,-1.6201239590562556e-06
4248.2,-1.60846121793897e-06
4249.1,-1.5884516068104002e-06
4250.0,-1.5858928540984488e-06
4250.9,-1.580359870160992e-06
4251.8,-1.5894253743221977e-06
4252.7,-1.5989749533668296e-06
4253.6,-1.6121859585311397e-06
4254.5,-1.618374569372327e-06
4255.4,-1.626467585137757e-06
4256.3,-1.6273069852043807e-06
4257.2,-1.6357942780081413e-06
4258.1,-1.6408721639248926e-06
4259.0,-1.6260575627969972e-06
4259.9,-1.6188131098440428e-06
4260.8,-1.6110125322679596e-06
4261.7,-1.6200920083091342e-06
4262.6,-1.6434704736635336e-06
4263.5,-1.6602635010399072e-06
4264.4,-1.6850287634671416e-06
4265.3,-1.7102270100644165e-06
4266.2,-1.7285150748543836e-06
4267.1,-1.7267085324683276e-06
4268.0,-1.7038158560821948e-06
4268.9,-1.6896549416174432e-06
4269.8,-1.6496796819511815e-06
4270.7,-1.6212631534389976e-06
4271.6,-1.5824119754875312e-06
4272.5,-1.5664084938800396e-06
4273.4,-1.5525737370471595e-06
4274.3,-1.558576702994408e-06
4275.2,-1.5745958682227093e-06
