wave,flux
3700.85,-6.188498078053057e-05
3701.75,-6.125611620438587e-05
3702.65,-5.8743837452846134e-05
3703.55,-5.527131024338157e-05
3704.45,-5.1726251367203385e-05
3705.35,-4.808230874767809e-05
3706.25,-4.538875329131561e-05
3707.15,-4.402381980751305e-05
3708.05,-4.376209780873644e-05
3708.96,-4.5226688418044436e-05
3709.86,-4.7769947105946136e-05
3710.76,-5.144850667222246e-05
3711.66,-5.583552810837965e-05
3712.56,-6.03611317750026e-05
3713.46,-6.403797539985905e-05
3714.36,-6.693947850167885e-05
3715.26,-6.772457249170822e-05
3716.16,-6.649922081276185e-05
3717.06,-6.34735735146393e-05
3717.96,-5.9099484411826906e-05
3718.86,-5.377784416337883e-05
3719.76,-4.81876747227956e-05
3720.66,-4.391612181900194e-05
3721.56,-4.1409035034985915e-05
3722.46,-4.1555122226140034e-05
3723.36,-4.464458199814212e-05
3724.26,-4.850689842302696e-05
3725.16,-5.259082307948364e-05
3726.06,-5.589561054413963e-05
3726.96,-5.765156455975836e-05
3727.86,-5.874555074453718e-05
3728.76,-5.884798490031814e-05
3729.66,-5.809437105780372e-05
3730.56,-5.738954670801963e-05
3731.46,-5.477801868904071e-05
3732.36,-5.138645104753355e-05
3733.26,-4.712627844384002e-05
3734.16,-4.235141566869948e-05
3735.06,-3.897009449192741e-05
3735.96,-3.7093657485600535e-05
3736.86,-3.747476543534537e-05
3737.76,-4.0196355518737224e-05
3738.66,-4.4741552513900724e-05
3739.56,-4.9954449979350645e-05
3740.46,-5.4692299218821355e-05
3741.36,-5.7905556381052025e-05
3742.26,-5.872644558361693e-05
3743.16,-5.7521371325903857e-05
3744.06,-5.4463388064476675e-05
3744.96,-5.067372534469746e-05
3745.86,-4.725044812321107e-05
3746.76,-4.417768392453387e-05
3747.67,-4.2068040584434255e-05
3748.57,-4.1349762270520197e-05
3749.47,-4.171844129788058e-05
3750.37,-4.447183208572905e-05
3751.27,-4.9125398609950055e-05
3752.17,-5.515754367729702e-05
3753.07,-6.186148072597386e-05
3753.97,-6.79980148054241e-05
3754.87,-7.177325418468382e-05
3755.77,-7.355411052100391e-05
3756.67,-7.263879454470963e-05
3757.57,-6.944971460418197e-05
3758.47,-6.581227983166907e-05
3759.37,-6.308182516133721e-05
3760.27,-6.162903270637079e-05
3761.17,-6.223423338590517e-05
3762.07,-6.36050776659058e-05
3762.97,-6.506613245894655e-05
3763.87,-6.635447069468474e-05
3764.77,-6.685670553486631e-05
3765.67,-6.754642097965377e-05
3766.57,-6.8273150391498e-05
3767.47,-6.95314902435292e-05
3768.37,-7.101977215108415e-05
3769.27,-7.348979269956589e-05
3770.17,-7.653806874526807e-05
3771.07,-7.93351014864721e-05
3771.97,-8.28981809890309e-05
3772.87,-8.577368028968528e-05
3773.77,-8.873073176652646e-05
3774.67,-9.083266209160103e-05
3775.57,-9.212331752306247e-05
3776.47,-9.31374177982404e-05
3777.37,-9.462891595885663e-05
3778.27,-9.583418654578193e-05
3779.17,-9.744751287633525e-05
3780.07,-9.975808036239148e-05
3780.97,-0.00010227773909473004
3781.87,-0.00010369625017257214
3782.77,-0.00010534184840564848
3783.67,-0.00010548506051918104
3784.57,-0.00010373151818699378
3785.47,-0.00010095009966047832
3786.38,-9.649378856694835e-05
3787.28,-9.104810184133762e-05
3788.18,-8.747730827110668e-05
3789.08,-8.402401834315986e-05
3789.98,-8.306581764488907e-05
3790.88,-8.291104228802682e-05
3791.78,-8.390251747995106e-05
3792.68,-8.399016260184284e-05
3793.58,-8.381403813543618e-05
3794.48,-8.203455281455275e-05
3795.38,-8.069477955997772e-05
3796.28,-7.819639310316381e-05
3797.18,-7.689410345672517e-05
3798.08,-7.57716122216539e-05
3798.98,-7.631444659201985e-05
3799.88,-7.92205953624981e-05
3800.78,-8.361339940938047e-05
3801.68,-9.026634285639565e-05
3802.58,-9.677490465903348e-05
3803.48,-0.00010242609499352192
3804.38,-0.0001066671725985114
3805.28,-0.00010863595531298458
3806.18,-0.00010914908191407046
3807.08,-0.00010874916213953009
3807.98,-0.00010849640159894884
3808.88,-0.00010881364748246512
3809.78,-0.0001101808494310876
3810.68,-0.00011126777132517715
3811.58,-0.0001104909071662011
3812.48,-0.0001080879604881113
3813.38,-0.00010328655601620962
3814.28,-9.772025383181876e-05
3815.18,-9.264510069081306e-05
3816.08,-8.910641657929832e-05
3816.98,-8.673994753200529e-05
3817.88,-8.534638297556784e-05
3818.78,-8.378348012890519e-05
3819.68,-8.252909350111086e-05
3820.58,-8.083810280197815e-05
3821.48,-7.939512619607653e-05
3822.38,-7.842595452164859e-05
3823.28,-7.745062790574865e-05
3824.18,-7.578073235858198e-05
3825.09,-7.375137859274225e-05
3825.99,-7.11095228860145e-05
3826.89,-6.908502854053022e-05
3827.79,-6.815129715872065e-05
3828.69,-6.830297973166389e-05
3829.59,-6.944825144906214e-05
3830.49,-7.03562853667643e-05
3831.39,-6.999617811783865e-05
3832.29,-6.967664568152806e-05
3833.19,-6.863135325797089e-05
3834.09,-6.813376578751843e-05
3834.99,-6.785070676349396e-05
3835.89,-6.885896535784607e-05
3836.79,-6.99260743866444e-05
3837.69,-7.099788601744604e-05
3838.59,-7.146007505874117e-05
3839.49,-7.243372608635635e-05
3840.39,-7.568795044074416e-05
3841.29,-8.033471009859511e-05
3842.19,-8.775368892234945e-05
3843.09,-9.583899021814546e-05
3843.99,-0.00010392172941166893
3844.89,-0.00011131797449875276
3845.79,-0.00011603651348188472
3846.69,-0.00011961642019896966
3847.59,-0.00012102623570771772
3848.49,-0.00012107596898798234
3849.39,-0.00012062851666291698
3850.29,-0.00012006718379614825
3851.19,-0.00012005813069770065
3852.09,-0.00012001078287407691
3852.99,-0.00012017638022405078
3853.89,-0.00011957875318946053
3854.79,-0.00011853474969872302
3855.69,-0.00011524776765138486
3856.59,-0.00011169280280589044
3857.49,-0.00010754026983869204
3858.39,-0.00010354372280033173
3859.29,-0.00010104253782510833
3860.19,-0.00010034023531267973
3861.09,-0.00010349701207291447
3861.99,-0.00010930613880278654
3862.9,-0.00011691413815035686
3863.8,-0.00012390704408964372
3864.7,-0.0001292049035633513
3865.6,-0.00013294303886913375
3866.5,-0.00013413589478885308
3867.4,-0.00013282086723386536
3868.3,-0.0001314484112243427
3869.2,-0.0001287746281499462
3870.1,-0.00012591877446439562
3871.0,-0.00012207767136972832
3871.9,-0.00012009350094507958
3872.8,-0.00012028603552186166
3873.7,-0.00012328013412059896
3874.6,-0.00012741707239891976
3875.5,-0.00013182304979204745
3876.4,-0.00013517855327481617
3877.3,-0.00013580365236205702
3878.2,-0.00013400801184162997
3879.1,-0.00013245718674687122
3880.0,-0.00013119957620517572
3880.9,-0.00013143279287340846
3881.8,-0.00013264874198770855
3882.7,-0.0001347702278057143
3883.6,-0.0001360712921246675
3884.5,-0.0001371523883518756
3885.4,-0.00013653781304137354
3886.3,-0.00013488027915911313
3887.2,-0.00013316561735285802
3888.1,-0.00013382958272099195
3889.0,-0.0001367592835251508
3889.9,-0.0001420880023936107
3890.8,-0.00015155005369938977
3891.7,-0.0001612281394083473
3892.6,-0.00017079881535694876
3893.5,-0.00017769340217784353
3894.4,-0.0001812595628473256
3895.3,-0.00018453262861928296
3896.2,-0.00018567722009697936
3897.1,-0.00018662040834704628
3898.0,-0.000187642011052371
3898.9,-0.00018977128822556097
3899.8,-0.0001904545868218622
3900.7,-0.0001915240495314564
3901.6,-0.00019161018713407496
3902.51,-0.00019079637255463059
3903.41,-0.0001901270241678413
3904.31,-0.00018901870231548842
3905.21,-0.0001875809138442094
3906.11,-0.0001883768785088046
3907.01,-0.00019254126178154136
3907.91,-0.00020044177192050838
3908.81,-0.00020906638832556598
3909.71,-0.00021759356967296576
3910.61,-0.0002277038414198364
3911.51,-0.00023497909592651317
3912.41,-0.00024057089309770032
3913.31,-0.00024317226734910932
3914.21,-0.00024498189421590474
3915.11,-0.00024297182416270453
3916.01,-0.00024115563975435605
3916.91,-0.00023738224696050008
3917.81,-0.00023271242983997377
3918.71,-0.0002250451846187187
3919.61,-0.00021802522650761524
3920.51,-0.00020941891251511938
3921.41,-0.0002035020119528989
3922.31,-0.0001981148018497052
3923.21,-0.00019654244525019255
3924.11,-0.0001934783346538529
3925.01,-0.00019175673280950596
3925.91,-0.00018655199345874138
3926.81,-0.00017727941270828472
3927.71,-0.00016485271266699535
3928.61,-0.00015007479763181632
3929.51,-0.00013336520729331284
3930.41,-0.00011704458422823838
3931.31,-0.00010289394126536552
3932.21,-9.011325936325822e-05
3933.11,-8.115568076252745e-05
3934.01,-7.65209800795643e-05
3934.91,-7.685312771009172e-05
3935.81,-8.244356819196763e-05
3936.71,-9.286077226657132e-05
3937.61,-0.00010698221762534286
3938.51,-0.00012460259275809437
3939.42,-0.00014283780028846702
3940.32,-0.00015987509814536
3941.22,-0.0001736555804231752
3942.12,-0.0001848323195284229
3943.02,-0.00019390670648544573
3943.92,-0.00020249016563760356
3944.82,-0.00021236541903969046
3945.72,-0.0002239447574969425
3946.62,-0.0002378048817507987
3947.52,-0.0002512895734474924
3948.42,-0.00026525638768192385
3949.32,-0.0002767518138260189
3950.22,-0.00028722402313176906
3951.12,-0.0002958155210009419
3952.02,-0.00030250164336736724
3952.92,-0.0003082403904615217
3953.82,-0.00031106955844141656
3954.72,-0.0003133805442448986
3955.62,-0.0003136768349036204
3956.52,-0.000312309117878086
3957.42,-0.00031005121070318465
3958.32,-0.0003044182949455019
3959.22,-0.0002987951080355773
3960.12,-0.0002865992944583247
3961.02,-0.0002704057891066648
3961.92,-0.00025166170495282314
3962.82,-0.00023099965580633392
3963.72,-0.00021230168004214027
3964.62,-0.00019284549286774485
3965.52,-0.00017392006148782497
3966.42,-0.0001560479656791871
3967.32,-0.00013909351436683476
3968.22,-0.00012540250000990435
3969.12,-0.0001181851124472536
3970.02,-0.00011905964568225488
3970.92,-0.00012854514179638267
3971.82,-0.00014420050322516185
3972.72,-0.00016749259123762737
3973.62,-0.00019378874375938597
3974.52,-0.0002229039215802099
3975.42,-0.00025142502139091454
3976.32,-0.00028123075874715006
3977.22,-0.00030947411745184075
3978.13,-0.00033654816378043045
3979.03,-0.00036056939101942824
3979.93,-0.00038054401783439327
3980.83,-0.00039668387387835753
3981.73,-0.00040864324228850885
3982.63,-0.00041560249590284683
3983.53,-0.00042355089297324496
3984.43,-0.0004277786455439638
3985.33,-0.00043589180252043107
3986.23,-0.00044389507988707274
3987.13,-0.0004533952249776699
3988.03,-0.00046433877084347565
3988.93,-0.00047230527593144914
3989.83,-0.00048094029033739314
3990.73,-0.0004886680828858866
3991.63,-0.0004953031218566591
3992.53,-0.0005016104131548533
3993.43,-0.0005070849227016026
3994.33,-0.0005086521124200659
3995.23,-0.0005106251096695531
3996.13,-0.0005072585339805194
3997.03,-0.0005038505941480228
3997.93,-0.0005097214350723694
3998.83,-0.0005179178913656177
3999.73,-0.0005253426300795587
4000.63,-0.0005419706619597659
4001.53,-0.0005538340173699311
4002.43,-0.0005615817910145433
4003.33,-0.0005673783560170121
4004.23,-0.0005606352145690331
4005.13,-0.0005517789553732096
4006.03,-0.0005471489560169679
4006.93,-0.0005466425587346926
4007.83,-0.0005510705552946607
4008.73,-0.0005636885385028533
4009.63,-0.000577067455119672
4010.53,-0.0005967985461109135
4011.43,-0.0006108131686802955
4012.33,-0.000622078898831932
4013.23,-0.0006329532290306693
4014.13,-0.000637643661689649
4015.03,-0.0006464476998415468
4015.93,-0.0006519453545620874
4016.84,-0.0006570087739826556
4017.74,-0.0006585035153475661
4018.64,-0.0006652538239866308
4019.54,-0.0006693009808407729
4020.44,-0.0006741642911744901
4021.34,-0.0006818108387428509
4022.24,-0.0006841936311503119
4023.14,-0.0006889920991242084
4024.04,-0.000696627542120676
4024.94,-0.0006958858426767
4025.84,-0.0007059491600844441
4026.74,-0.0007166914816422433
4027.64,-0.0007218655264286415
4028.54,-0.0007220657576080885
4029.44,-0.0007162854918606686
4030.34,-0.0007020584933686997
4031.24,-0.0006823645784950618
4032.14,-0.0006614544109466155
4033.04,-0.0006486211784390094
4033.94,-0.0006474175820697708
4034.84,-0.0006595830651327365
4035.74,-0.0006856936643608897
4036.64,-0.000721058151990384
4037.54,-0.0007530919130245721
4038.44,-0.0007820002618930507
4039.34,-0.0007994221760317679
4040.24,-0.0008098923582033979
4041.14,-0.0008136912914878944
4042.04,-0.0008034272378939842
4042.94,-0.0007792427673555303
4043.84,-0.0007549858399626788
4044.74,-0.0007230073573682444
4045.64,-0.0007021170976643909
4046.54,-0.0006923694485853758
4047.44,-0.0007007517874522451
4048.34,-0.0007297557101964808
4049.24,-0.0007688767430426423
4050.14,-0.0008066596979355076
4051.04,-0.0008401337207009267
4051.94,-0.0008615400215763453
4052.84,-0.0008707802570684494
4053.74,-0.0008687666085761799
4054.65,-0.0008594001477463855
4055.55,-0.0008512205206173901
4056.45,-0.0008434484861428493
4057.35,-0.0008393690126930047
4058.25,-0.000838416309497161
4059.15,-0.0008412229462092622
4060.05,-0.0008481935822267719
4060.95,-0.0008484923592713008
4061.85,-0.0008476027378260017
4062.75,-0.0008355079520059182
4063.65,-0.000819847643624557
4064.55,-0.0008133656086561678
4065.45,-0.0008157117998469354
4066.35,-0.0008330906096190716
4067.25,-0.000856394101435673
4068.15,-0.0008875850209739761
4069.05,-0.0009124191861861757
4069.95,-0.0009322822161095925
4070.85,-0.0009371375633563082
4071.75,-0.000938718787524824
4072.65,-0.0009436091593058084
4073.55,-0.0009470802076037223
4074.45,-0.0009421724386292463
4075.35,-0.0009459695829368881
4076.25,-0.0009449722672809583
4077.15,-0.0009409409038450676
4078.05,-0.0009439391409429987
4078.95,-0.0009602555518723192
4079.85,-0.0009834204565782254
4080.75,-0.0010209530434314173
4081.65,-0.0010601341113387276
4082.55,-0.0010883647658531015
4083.45,-0.0011105918986543382
4084.35,-0.0011261910596697404
4085.25,-0.0011361094217436913
4086.15,-0.0011598136054200786
4087.05,-0.001192665646813928
4087.95,-0.0012205638962189298
4088.85,-0.0012550384367520455
4089.75,-0.001284297599336331
4090.65,-0.0012968309278705477
4091.55,-0.0013008289395266186
4092.45,-0.0013018852252328524
4093.36,-0.0012852220139449304
4094.26,-0.0012783896659238766
4095.16,-0.0012537925861427432
4096.06,-0.0012416530014933704
4096.96,-0.0012080405457973351
4097.86,-0.0011854065352323358
4098.76,-0.001162721987571156
4099.66,-0.0011354251579956721
4100.56,-0.0011096530117401025
4101.46,-0.0010900732943941117
4102.36,-0.0010873365738728745
4103.26,-0.0010994762830619509
4104.16,-0.0011268878427990693
4105.06,-0.0011749039983426485
4105.96,-0.0012269439550200497
4106.86,-0.0012825234649818241
4107.76,-0.0013203221105400412
4108.66,-0.0013533491364490855
4109.56,-0.0013647323512439443
4110.46,-0.001374884439769205
4111.36,-0.0013799834611824286
4112.26,-0.0014003799755699523
4113.16,-0.0014263532823279787
4114.06,-0.0014568984964158217
4114.96,-0.001477999109447155
4115.86,-0.0015023910392043401
4116.76,-0.0015168436593533375
4117.66,-0.0015204886023999626
4118.56,-0.0015190543577861038
4119.46,-0.0015147813251026301
4120.36,-0.0015177505357735236
4121.26,-0.0015256031192683011
4122.16,-0.0015314954239536859
4123.06,-0.0015437346115742072
4123.96,-0.0015738623829269394
4124.86,-0.0015885069856238986
4125.76,-0.0015990255663105722
4126.66,-0.0016171203303577178
4127.56,-0.0016172326938107696
4128.46,-0.0016045901839063167
4129.36,-0.0015905441761209789
4130.26,-0.0015809284398419757
4131.17,-0.0015532100633983527
4132.06,-0.001543607646712955
4132.97,-0.0015245365300014483
4133.87,-0.0015360694849747443
4134.77,-0.0015658202263822765
4135.67,-0.0016119574042475552
4136.57,-0.0016620351597201356
4137.47,-0.0017205423624903936
4138.37,-0.0017804703093645456
4139.27,-0.001802359757853344
4140.17,-0.0018133056565124038
4141.07,-0.001798334691559595
4141.97,-0.0017639521247659678
4142.87,-0.0017265689876904352
4143.77,-0.0016965360469744703
4144.67,-0.001676288721613062
4145.57,-0.0016955033727100697
4146.47,-0.0017239457340888767
4147.37,-0.0017664519111351353
4148.27,-0.0018138543409713483
4149.17,-0.0018437813476958815
4150.07,-0.0018794882620303743
4150.97,-0.001885671020896127
4151.87,-0.0018891070806955795
4152.77,-0.0018852340371818303
4153.67,-0.001888526932535973
4154.57,-0.0018993295645238736
4155.47,-0.001907724299392874
4156.37,-0.0019270372086085748
4157.27,-0.0019648961308874327
4158.17,-0.001998171566896631
4159.07,-0.0020610900807053805
4159.97,-0.0021136599156868266
4160.87,-0.002164533959359516
4161.77,-0.0022177782697298328
4162.67,-0.0022544080039254796
4163.57,-0.002277062586344128
4164.47,-0.002293638243969585
4165.37,-0.0022879750833060936
4166.27,-0.0022916297467762588
4167.17,-0.0022811099190349466
4168.07,-0.0022708948710512896
4168.98,-0.002258205591974978
4169.88,-0.0022654633125346207
4170.78,-0.002240147102023112
4171.68,-0.00221716199377552
4172.58,-0.0021901973234066097
4173.48,-0.002179670624781877
4174.38,-0.002170528479826318
4175.28,-0.002178381311386733
4176.18,-0.0021985470093587654
4177.08,-0.002247787016681598
4177.98,-0.002298342961007721
4178.88,-0.002336766969287318
4179.78,-0.002374587223512941
4180.68,-0.002410237965553428
4181.58,-0.0024485579695794884
4182.48,-0.002479061248793001
4183.38,-0.0025067551324556197
4184.28,-0.0025397755089182116
4185.18,-0.0025518148492633458
4186.08,-0.0025819816546454677
4186.98,-0.002589603460523771
4187.88,-0.002588020749704854
4188.78,-0.0026069213724676226
4189.68,-0.002631489104779737
4190.58,-0.0026746482552084294
4191.48,-0.002741958899922832
4192.38,-0.0027874106402203643
4193.28,-0.0028344394975589942
4194.18,-0.002850672038647715
4195.08,-0.0028551975365330865
4195.98,-0.0028310027986846393
4196.88,-0.002781978052894089
4197.78,-0.002742801638065877
4198.68,-0.002699703337299881
4199.58,-0.0026847987920866198
4200.48,-0.002683483585309814
4201.38,-0.0027139322446299834
4202.28,-0.002751438961192908
4203.18,-0.002824859187108475
4204.08,-0.0028985195410080066
4204.98,-0.0029913974583830006
4205.88,-0.0031111735687719454
4206.79,-0.003204254581070793
4207.69,-0.00327979672570086
4208.59,-0.0033751852141522135
4209.49,-0.0034177663825931087
4210.39,-0.003469826568436156
4211.29,-0.0034849337853525065
4212.19,-0.0035044992267259803
4213.09,-0.003487113570969021
4213.99,-0.0034985339014414266
4214.89,-0.0034535393077459674
4215.79,-0.003474180546127947
4216.69,-0.0035026298402832693
4217.59,-0.003554238965090552
4218.49,-0.0036270974481125862
4219.39,-0.0037330628415399884
4220.29,-0.003822207367665239
4221.19,-0.0038364929332233683
4222.09,-0.0038198107552548494
4222.99,-0.0037306887334611245
4223.89,-0.003568915963530779
4224.79,-0.003379319044020581
4225.69,-0.0032045480761792255
4226.59,-0.0030589610664117795
4227.49,-0.0030259353792839575
4228.39,-0.0030851116159388127
4229.29,-0.0032372896443933342
4230.19,-0.0034593583437606333
4231.09,-0.003693492713015246
4231.99,-0.0038736027905010833
4232.89,-0.004021913418145202
4233.79,-0.004080218863437998
4234.69,-0.004092350880349258
4235.59,-0.004102598826934012
4236.49,-0.004090184235401822
4237.39,-0.004123962581920178
4238.29,-0.004152041435660619
4239.19,-0.004231635555033301
4240.09,-0.004314653910041838
4240.99,-0.004456071366875425
4241.89,-0.004560689998325633
4242.79,-0.004693610051644557
4243.69,-0.004825793025305984
4244.59,-0.004914754122284038
4245.5,-0.00499131843440851
4246.4,-0.004977545566541342
4247.3,-0.004943876416424473
4248.2,-0.004860337918907748
4249.1,-0.0047791738442227285
4250.0,-0.004716508735876031
4250.9,-0.004671576736141798
4251.8,-0.004662914649326632
4252.7,-0.004711014121522852
4253.6,-0.004756597470246815
4254.5,-0.004842840866521998
4255.4,-0.004908043160010651
4256.3,-0.00499610224897287
4257.2,-0.005045517246201973
4258.1,-0.005095938274410138
4259.0,-0.005151076733085948
4259.9,-0.005151443999174811
4260.8,-0.005193284707582301
4261.7,-0.005231734443335218
4262.6,-0.005393481857263776
4263.5,-0.005581458325945493
4264.4,-0.005797321713628264
4265.3,-0.0059965689263598845
4266.2,-0.006124133932226534
4267.1,-0.006194535216933765
4268.0,-0.0061152483730142196
4268.9,-0.005984622836597994
4269.8,-0.005791491562731543
4270.7,-0.00558660333025206
4271.6,-0.005389588782543371
4272.5,-0.005229584049221054
4273.4,-0.005161344663058749
4274.3,-0.005230806045600504
4275.2,-0.0053777711751207494
4276.1,-0.005633127385432011
4277.0,-0.0059046245577689515
4277.9,-0.0061768442400141595
4278.8,-0.006431136908692514
4279.7,-0.006584967324952852
4280.6,-0.006669372837918349
4281.5,-0.006719494987396467
4282.4,-0.006746063964651004
