wave,flux
3700.85,-6.832357911407686e-05
3701.75,-6.776629543819034e-05
3702.65,-6.570947232863445e-05
3703.55,-6.293395105372356e-05
3704.45,-5.941092041591875e-05
3705.35,-5.6390001180971574e-05
3706.25,-5.4197362392839956e-05
3707.15,-5.3467025689962996e-05
3708.05,-5.333429922075275e-05
3708.96,-5.454028709951037e-05
3709.86,-5.6732538497662536e-05
3710.76,-5.952616055903088e-05
3711.66,-6.305584283951925e-05
3712.56,-6.677641876203912e-05
3713.46,-7.042079941498554e-05
3714.36,-7.327128752318706e-05
3715.26,-7.486056122356714e-05
3716.16,-7.527524670434703e-05
3717.06,-7.338161149406432e-05
3717.96,-7.077242930234024e-05
3718.86,-6.632179306762241e-05
3719.76,-6.146632709796229e-05
3720.66,-5.712230774248257e-05
3721.56,-5.4151817222099105e-05
3722.46,-5.3794434421007034e-05
3723.36,-5.610577502187983e-05
3724.26,-6.0042152946054895e-05
3725.16,-6.396737935788116e-05
3726.06,-6.771581717937394e-05
3726.96,-7.003089729361377e-05
3727.86,-7.093255386822893e-05
3728.76,-7.128408703478733e-05
3729.66,-7.119515270328968e-05
3730.56,-6.981630407017118e-05
3731.46,-6.765164402872653e-05
3732.36,-6.396217901220909e-05
3733.26,-5.94946178076406e-05
3734.16,-5.495041688258224e-05
3735.06,-5.164892492070472e-05
3735.96,-5.0250860187007725e-05
3736.86,-5.1180073589009535e-05
3737.76,-5.4410204618563625e-05
3738.66,-5.9723513090620424e-05
3739.56,-6.517846060468996e-05
3740.46,-7.046799892975226e-05
3741.36,-7.389320244439239e-05
3742.26,-7.523094121847386e-05
3743.16,-7.40129425499532e-05
3744.06,-7.121421307489096e-05
3744.96,-6.816045631649132e-05
3745.86,-6.475107542965367e-05
3746.76,-6.127302410542139e-05
3747.67,-5.8274147140397514e-05
3748.57,-5.626125095018268e-05
3749.47,-5.566754557388921e-05
3750.37,-5.7229618035332395e-05
3751.27,-6.0999572376740774e-05
3752.17,-6.695856267800309e-05
3753.07,-7.411140552697576e-05
3753.97,-8.075627711443841e-05
3754.87,-8.6161421081687e-05
3755.77,-8.852597660056502e-05
3756.67,-8.832767598913268e-05
3757.57,-8.629114537384188e-05
3758.47,-8.309677803561081e-05
3759.37,-8.058494268741443e-05
3760.27,-7.958755982755842e-05
3761.17,-7.979603148693449e-05
3762.07,-8.175518720677553e-05
3762.97,-8.419037221451318e-05
3763.87,-8.520749187455148e-05
3764.77,-8.58016449661766e-05
3765.67,-8.659622722841361e-05
3766.57,-8.653539689478673e-05
3767.47,-8.563191261942737e-05
3768.37,-8.504749716816664e-05
3769.27,-8.578883353234255e-05
3770.17,-8.629214049916698e-05
3771.07,-8.79332842554175e-05
3771.97,-9.051044121525275e-05
3772.87,-9.425877482915824e-05
3773.77,-9.837945082834085e-05
3774.67,-0.00010120844648940587
3775.57,-0.00010440357675707207
3776.47,-0.00010671746686590786
3777.37,-0.00010901440799821812
3778.27,-0.00011181038846779947
3779.17,-0.00011495679119864134
3780.07,-0.00011746017414784175
3780.97,-0.00012015628048803477
3781.87,-0.00012288921565975196
3782.77,-0.00012427437296128857
3783.67,-0.00012490914561517436
3784.57,-0.0001236757854172291
3785.47,-0.00012091536318982686
3786.38,-0.00011689007726834178
3787.28,-0.00011291191889638264
3788.18,-0.00010927142475037352
3789.08,-0.00010664240537427192
3789.98,-0.00010502924597614792
3790.88,-0.00010440640021166405
3791.78,-0.00010417695108045567
3792.68,-0.0001036043992372797
3793.58,-0.00010227657456295023
3794.48,-0.00010013270752443515
3795.38,-9.702495388501983e-05
3796.28,-9.352409704238846e-05
3797.18,-9.100065580347116e-05
3798.08,-8.942682876764355e-05
3798.98,-9.009635439634215e-05
3799.88,-9.28372484739949e-05
3800.78,-9.907592992002976e-05
3801.68,-0.00010649309974214325
3802.58,-0.0001138845210958488
3803.48,-0.00012186061182218524
3804.38,-0.0001270659347421027
3805.28,-0.00013045066353640215
3806.18,-0.0001319721439220865
3807.08,-0.00013276384093649054
3807.98,-0.0001332038785484839
3808.88,-0.0001346819488885786
3809.78,-0.00013684063480385014
3810.68,-0.0001380789056687714
3811.58,-0.00013834801912154386
3812.48,-0.00013628133166075564
3813.38,-0.00013220969073439052
3814.28,-0.00012734287678543754
3815.18,-0.00012324819068565635
3816.08,-0.00012026449565917935
3816.98,-0.0001186541712206237
3817.88,-0.00011862900846931125
3818.78,-0.0001185301181562427
3819.68,-0.00011840592747123179
3820.58,-0.0001165245296153076
3821.48,-0.00011598096627997923
3822.38,-0.00011454980836332951
3823.28,-0.00011404891445647554
3824.18,-0.00011294989303212021
3825.09,-0.00010976348462158948
3825.99,-0.00010679032382832865
3826.89,-0.00010379681338107649
3827.79,-0.00010202562069609836
3828.69,-0.00010117524079990021
3829.59,-0.0001012232775783895
3830.49,-0.00010030104385070856
3831.39,-9.902389578810818e-05
3832.29,-9.686608623543973e-05
3833.19,-9.336730034181177e-05
3834.09,-9.050030016093635e-05
3834.99,-8.927853693674162e-05
3835.89,-8.916656117059844e-05
3836.79,-8.952259763510205e-05
3837.69,-9.139747774492204e-05
3838.59,-9.414085794118835e-05
3839.49,-9.74313862298695e-05
3840.39,-0.00010269982411044493
3841.29,-0.000109849394084467
3842.19,-0.00011853720545044143
3843.09,-0.00012810214903201815
3843.99,-0.00013686636165310877
3844.89,-0.00014480756139750365
3845.79,-0.0001501510772503951
3846.69,-0.00015453136460055183
3847.59,-0.00015831820007103533
3848.49,-0.0001597622594428658
3849.39,-0.00016095501790669583
3850.29,-0.00016145683320396284
3851.19,-0.00016239774994350391
3852.09,-0.0001646913982498529
3852.99,-0.00016426350461151332
3853.89,-0.00016530151243322465
3854.79,-0.00016481956830000392
3855.69,-0.00016270388497868383
3856.59,-0.0001589715025201181
3857.49,-0.00015528226379259578
3858.39,-0.00015291162374347518
3859.29,-0.00015014925425681862
3860.19,-0.00015105465260768303
3861.09,-0.00015399226437160836
3861.99,-0.00015981309561805213
3862.9,-0.00016744075710017938
3863.8,-0.0001740353043790741
3864.7,-0.00017962614051595947
3865.6,-0.00018367951109394593
3866.5,-0.00018439431427722607
3867.4,-0.0001832800488463049
3868.3,-0.0001835992437363902
3869.2,-0.00018079687433548072
3870.1,-0.00017742675861873348
3871.0,-0.00017373195033991334
3871.9,-0.0001710059074317005
3872.8,-0.000169992108473435
3873.7,-0.00017066069985732652
3874.6,-0.00017439117002850848
3875.5,-0.00017827920091696077
3876.4,-0.00018085057324970924
3877.3,-0.0001816986052438866
3878.2,-0.00018069203932000223
3879.1,-0.00017991416378868876
3880.0,-0.00017900933704216305
3880.9,-0.0001786162258454457
3881.8,-0.00017952324633471107
3882.7,-0.0001796725524486172
3883.6,-0.00017864105203750663
3884.5,-0.00017708515130338974
3885.4,-0.0001733370014566544
3886.3,-0.00016895258120269938
3887.2,-0.00016331888417724834
3888.1,-0.0001600173274673648
3889.0,-0.00015979593649996846
3889.9,-0.00016323353488710448
3890.8,-0.00017096579565585023
3891.7,-0.00017972361269275914
3892.6,-0.00019151711134534252
3893.5,-0.00020042944150320985
3894.4,-0.0002082793015668955
3895.3,-0.00021442442968871
3896.2,-0.00021837877496427998
3897.1,-0.00022299167322275897
3898.0,-0.0002263608481769728
3898.9,-0.00022892799617820806
3899.8,-0.00023200822159499313
3900.7,-0.00023424973263567802
3901.6,-0.00023692353128476943
3902.51,-0.00023759610067705268
3903.41,-0.00023682183578550134
3904.31,-0.00023570745405770968
3905.21,-0.00023532183874531588
3906.11,-0.0002357386360662098
3907.01,-0.00024009969826817719
3907.91,-0.0002473068740872577
3908.81,-0.00025679181436476977
3909.71,-0.00026534880474041774
3910.61,-0.00027474915611705274
3911.51,-0.0002820003208606625
3912.41,-0.0002864181906731077
3913.31,-0.0002881684915553469
3914.21,-0.0002899437277759033
3915.11,-0.0002876614496759552
3916.01,-0.0002876496570031672
3916.91,-0.0002832503939469248
3917.81,-0.00027947217236580084
3918.71,-0.00027458581245782106
3919.61,-0.000268054668982096
3920.51,-0.0002645601913562142
3921.41,-0.00025853299028596923
3922.31,-0.00025692249795681655
3923.21,-0.0002546330883876083
3924.11,-0.00025411223772138123
3925.01,-0.0002515569875947578
3925.91,-0.00024319783387589667
3926.81,-0.00023313175053353734
3927.71,-0.0002182786565139289
3928.61,-0.00019797658073987225
3929.51,-0.00017823211553872302
3930.41,-0.00015749024148223296
3931.31,-0.00013726246430070165
3932.21,-0.00011980886952783564
3933.11,-0.0001058585624657848
3934.01,-9.844822226482524e-05
3934.91,-9.793341749972864e-05
3935.81,-0.00010486605506793975
3936.71,-0.00011889203521383211
3937.61,-0.0001385504310255689
3938.51,-0.0001622204592148217
3939.42,-0.00018630852168852787
3940.32,-0.00020823690001766954
3941.22,-0.0002272556593824143
3942.12,-0.00024250899924947234
3943.02,-0.0002546550011155445
3943.92,-0.0002648984778841551
3944.82,-0.0002752583034939553
3945.72,-0.00028824460920726347
3946.62,-0.0002995544827824867
3947.52,-0.0003125262336424644
3948.42,-0.000323155776472485
3949.32,-0.00033439004050979723
3950.22,-0.0003429045857413481
3951.12,-0.00034977775945984024
3952.02,-0.00035761316176084084
3952.92,-0.00036064623954760197
3953.82,-0.0003670385471755379
3954.72,-0.000368567320982616
3955.62,-0.0003677240035355604
3956.52,-0.00036884469216924803
3957.42,-0.0003655604832356163
3958.32,-0.00036435498121001184
3959.22,-0.0003581428311037431
3960.12,-0.0003494413565241656
3961.02,-0.0003362795513879762
3961.92,-0.0003172723039531716
3962.82,-0.00029649506448483883
3963.72,-0.00027347110234818414
3964.62,-0.0002500447251827681
3965.52,-0.0002250372798516582
3966.42,-0.00020107385984319438
3967.32,-0.0001770669208875682
3968.22,-0.00015855215037234317
3969.12,-0.0001469705611652544
3970.02,-0.00014583697849920112
3970.92,-0.00015507615181507877
3971.82,-0.00017415825045997722
3972.72,-0.00020138655332565617
3973.62,-0.00023234923447907583
3974.52,-0.00026474891984569596
3975.42,-0.0002972564146530796
3976.32,-0.00033045405594007293
3977.22,-0.0003587341380570593
3978.13,-0.00038697134422809254
3979.03,-0.00041281048918089414
3979.93,-0.00043208026454283333
3980.83,-0.000449190150075346
3981.73,-0.00046272401113909726
3982.63,-0.00047163694954534236
3983.53,-0.00047843771657761096
3984.43,-0.0004832089454916824
3985.33,-0.0004932644034561708
3986.23,-0.0005002624063950614
3987.13,-0.0005089262970154342
3988.03,-0.0005180839353221533
3988.93,-0.0005305266466880932
3989.83,-0.0005356275459849249
3990.73,-0.0005459811746839522
3991.63,-0.0005539150055021029
3992.53,-0.0005611030565525891
3993.43,-0.0005684512499594036
3994.33,-0.0005724313230309513
3995.23,-0.0005714235345870759
3996.13,-0.000570025310627029
3997.03,-0.0005665649042235488
3997.93,-0.0005722533237478855
3998.83,-0.000576605124735946
3999.73,-0.0005872290563223673
4000.63,-0.000601361204482686
4001.53,-0.0006151898745237014
4002.43,-0.0006264172607411843
4003.33,-0.0006267114806597168
4004.23,-0.0006218024419355418
4005.13,-0.0006157117089738843
4006.03,-0.0006102636060090277
4006.93,-0.0006116262308504067
4007.83,-0.0006186206633696522
4008.73,-0.000628764556315795
4009.63,-0.0006426599087750461
4010.53,-0.0006566139460044824
4011.43,-0.0006720972515776904
4012.33,-0.0006831915643972747
4013.23,-0.0006912996595980605
4014.13,-0.0007011917569781565
4015.03,-0.0007077849747581173
4015.93,-0.0007121468497038617
4016.84,-0.0007184063726902284
4017.74,-0.0007235476708710546
4018.64,-0.0007323805030124482
4019.54,-0.0007380511455315423
4020.44,-0.0007446207546757503
4021.34,-0.0007495889775630374
4022.24,-0.0007531932339493634
4023.14,-0.0007593137443111527
4024.04,-0.0007618815004730982
4024.94,-0.000767369392208649
4025.84,-0.0007743959085245726
4026.74,-0.0007820995734496429
4027.64,-0.000789820138394067
4028.54,-0.0007933512226709127
4029.44,-0.0007866133033568203
4030.34,-0.0007722050637675742
4031.24,-0.0007604266447537092
4032.14,-0.000744346976705462
4033.04,-0.0007325473252112165
4033.94,-0.0007339557999002481
4034.84,-0.0007491925864753533
4035.74,-0.0007742779940130173
4036.64,-0.0008025761354806224
4037.54,-0.0008307704466004982
4038.44,-0.0008607383393331614
4039.34,-0.0008809272264778
4040.24,-0.0008833518601995182
4041.14,-0.0008898954191521305
4042.04,-0.0008801822585014713
4042.94,-0.0008649983497671028
4043.84,-0.0008437288703377853
4044.74,-0.0008202621738531868
4045.64,-0.0008073383080665273
4046.54,-0.0008000134014919676
4047.44,-0.0008089548300554903
4048.34,-0.0008317476616972766
4049.24,-0.0008669608861156055
4050.14,-0.0008997029685797878
4051.04,-0.0009277181211237658
4051.94,-0.0009423762982415756
4052.84,-0.0009484062200963375
4053.74,-0.0009442346223711894
4054.65,-0.0009412736004807968
4055.55,-0.0009278100522555047
4056.45,-0.0009242361616194215
4057.35,-0.0009228854111537855
4058.25,-0.0009259172299762546
4059.15,-0.0009312942051490469
4060.05,-0.0009362079712260486
4060.95,-0.0009431649851349561
4061.85,-0.0009439904182405224
4062.75,-0.0009416186070075108
4063.65,-0.0009286813457275488
4064.55,-0.0009242107164711881
4065.45,-0.0009251840779583556
4066.35,-0.0009453498301584755
4067.25,-0.000965039837608688
4068.15,-0.0009943821282018457
4069.05,-0.0010148750104520586
4069.95,-0.001031452494074907
4070.85,-0.001038602667276976
4071.75,-0.0010419446518868114
4072.65,-0.0010444255080457282
4073.55,-0.001047452175093358
4074.45,-0.0010460133686141947
4075.35,-0.0010446717701086351
4076.25,-0.0010333653465674773
4077.15,-0.0010256429368799829
4078.05,-0.0010277292483637313
4078.95,-0.0010344245830130065
4079.85,-0.0010591255882932422
4080.75,-0.0010961416068966505
4081.65,-0.0011291651976526936
4082.55,-0.001159763056222984
4083.45,-0.0011821954009457413
4084.35,-0.0011963291759878108
4085.25,-0.001208878348705954
4086.15,-0.0012226452062338723
4087.05,-0.0012476771181142965
4087.95,-0.0012745161718537474
4088.85,-0.001305560761040107
4089.75,-0.0013326803756811125
4090.65,-0.0013440761898597913
4091.55,-0.001340639670583477
4092.45,-0.0013452143274958971
4093.36,-0.001335629033072871
4094.26,-0.0013236017017988723
4095.16,-0.001307034552253851
4096.06,-0.0012800280835157034
4096.96,-0.001255763144546732
4097.86,-0.001222718971583024
4098.76,-0.001191219792813871
4099.66,-0.0011526609102602973
4100.56,-0.001119071347481692
4101.46,-0.00109149933678371
4102.36,-0.001077074004855879
4103.26,-0.001090372958943517
4104.16,-0.0011200707944842103
4105.06,-0.0011712348035118252
4105.96,-0.0012305418834420493
4106.86,-0.0012956423616855381
4107.76,-0.0013455739237697288
4108.66,-0.0013794767558959803
4109.56,-0.0014098174909425846
4110.46,-0.0014256636883281037
4111.36,-0.0014484478427061608
4112.26,-0.0014706401381871445
4113.16,-0.0015025026655992953
4114.06,-0.0015216862610245327
4114.96,-0.001556065665896988
4115.86,-0.0015744029772840852
4116.76,-0.0015958894280335828
4117.66,-0.001602472042533279
4118.56,-0.0016097563849796653
4119.46,-0.0016048922844003185
4120.36,-0.0016035528166090454
4121.26,-0.0016138461886841498
4122.16,-0.0016126373161155158
4123.06,-0.0016443975474442537
4123.96,-0.0016512185094720076
4124.86,-0.0016738879276530685
4125.76,-0.0016963964257407675
4126.66,-0.0016978488626687718
4127.56,-0.0017046565884228824
4128.46,-0.0016995380428634227
4129.36,-0.0016953745809605938
4130.26,-0.0016841045560379282
4131.17,-0.0016772985091887721
4132.06,-0.0016741353039587765
4132.97,-0.0016693434889645743
4133.87,-0.0016821990854794186
4134.77,-0.0017087222902081207
4135.67,-0.0017553314324717881
4136.57,-0.0018032784636600042
4137.47,-0.0018539734214864587
4138.37,-0.0018982942186586528
4139.27,-0.0019366932225407354
4140.17,-0.001954448825236765
4141.07,-0.0019453076047263613
4141.97,-0.0019273675133373682
4142.87,-0.0018869664293517897
4143.77,-0.0018779328286619753
4144.67,-0.001868179867066923
4145.57,-0.0018842496310124363
4146.47,-0.001900827796352728
4147.37,-0.001946104593141479
4148.27,-0.00198460720165529
4149.17,-0.00201530104500926
4150.07,-0.0020319870574705937
4150.97,-0.002040032038209682
4151.87,-0.002050855094027788
4152.77,-0.00204673210423914
4153.67,-0.0020521996629317245
4154.57,-0.002066565097913815
4155.47,-0.0020711423776874687
4156.37,-0.002083966275724672
4157.27,-0.0021165337278367404
4158.17,-0.0021517768056313388
4159.07,-0.002195771042554063
4159.97,-0.0022511082607724405
4160.87,-0.0023068681297295527
4161.77,-0.002341740510498551
4162.67,-0.002375157618515127
4163.57,-0.0024121009516543702
4164.47,-0.002437388091071034
4165.37,-0.002438121463662856
4166.27,-0.0024392463662353107
4167.17,-0.0024419609529346227
4168.07,-0.0024370635565834045
4168.98,-0.002421826579081162
4169.88,-0.0024154830063664685
4170.78,-0.002398141692333967
4171.68,-0.002379343335865625
4172.58,-0.0023546090096365907
4173.48,-0.0023365340843730046
4174.38,-0.002326274370555633
4175.28,-0.0023394101755614747
4176.18,-0.0023731009805008215
4177.08,-0.002406830195545792
4177.98,-0.0024623218072828343
4178.88,-0.002491494980571035
4179.78,-0.002549325380092597
4180.68,-0.002586360605414691
4181.58,-0.002626735359650001
4182.48,-0.002649860757238797
4183.38,-0.0026836762444748695
4184.28,-0.002703498033914945
4185.18,-0.0027422686705477002
4186.08,-0.0027649889853102703
4186.98,-0.0027667255834194046
4187.88,-0.002793066101018288
4188.78,-0.0028188579078441156
4189.68,-0.0028397417300303884
4190.58,-0.0028771706561899583
4191.48,-0.0029404723577930204
4192.38,-0.002985254399913544
4193.28,-0.003037964176804506
4194.18,-0.003067682201833333
4195.08,-0.003073517021105394
4195.98,-0.0030289610189353252
4196.88,-0.0030089828532761397
4197.78,-0.0029776171194945533
4198.68,-0.002957676163623812
4199.58,-0.002935322837042883
4200.48,-0.0029436475387270376
4201.38,-0.002968018952432844
4202.28,-0.0030006104583705268
4203.18,-0.003061929256240785
4204.08,-0.0031337316099057993
4204.98,-0.003218757418311863
4205.88,-0.0032922027029157167
4206.79,-0.0033702349103403627
4207.69,-0.0034726494851020267
4208.59,-0.0035353647393151365
4209.49,-0.0035824746561569643
4210.39,-0.0036441184697417624
4211.29,-0.0036653561633798793
4212.19,-0.0036844535692705264
4213.09,-0.00368027442044228
4213.99,-0.0036916560390607657
4214.89,-0.003688853396080323
4215.79,-0.003687097414317046
4216.69,-0.0037146786113976984
4217.59,-0.0037515588685354145
4218.49,-0.003834493215026478
4219.39,-0.003916833844716075
4220.29,-0.003985171060588668
4221.19,-0.004038175029389614
4222.09,-0.004040458730790578
4222.99,-0.003984712790739311
4223.89,-0.0038660824993077443
4224.79,-0.0037278394728383893
4225.69,-0.00358070949014027
4226.59,-0.003467355718893022
4227.49,-0.003449997886797377
4228.39,-0.003521675407413146
4229.29,-0.00366312577610153
4230.19,-0.003843014959701926
4231.09,-0.004036166947555455
4231.99,-0.004218970629628829
4232.89,-0.004315224234517234
4233.79,-0.004364515331629846
4234.69,-0.0043751551014398855
4235.59,-0.004371520193700848
4236.49,-0.004365325280485405
4237.39,-0.004378955436135882
4238.29,-0.004420364882627594
4239.19,-0.004492554666521023
4240.09,-0.004561106095970399
4240.99,-0.004681672772390642
4241.89,-0.004778930018507677
4242.79,-0.004915734038233525
4243.69,-0.005007264568828637
4244.59,-0.0050803179110598925
4245.5,-0.005129172019031631
4246.4,-0.0051402975651163195
4247.3,-0.005111261614269248
4248.2,-0.005049015573944831
4249.1,-0.005010470651221224
4250.0,-0.004982507971391266
4250.9,-0.004991890446616994
4251.8,-0.0050329788618223275
4252.7,-0.005088214919362276
4253.6,-0.005135285407482333
4254.5,-0.005212541810237511
4255.4,-0.0052950228344163484
4256.3,-0.005368419598709922
4257.2,-0.005438107205904774
4258.1,-0.005459704544149812
4259.0,-0.005478360278612544
4259.9,-0.005487015429288608
4260.8,-0.005502298621380256
4261.7,-0.005569849285948901
4262.6,-0.005698643676403244
4263.5,-0.005892380008909899
4264.4,-0.006076070716416664
4265.3,-0.0062142853239216915
4266.2,-0.006363908325506328
4267.1,-0.006399535217693169
4268.0,-0.006390864537738258
4268.9,-0.006287643740621275
4269.8,-0.006167381809254766
4270.7,-0.005980366136493283
4271.6,-0.0058459756322156685
4272.5,-0.005710088637768006
4273.4,-0.005688773737708423
4274.3,-0.005752281535360814
4275.2,-0.005910833851158638
4276.1,-0.006128589745450628
4277.0,-0.006371195839729205
4277.9,-0.0066037321652584425
4278.8,-0.006793119027729905
4279.7,-0.006951732389038277
4280.6,-0.006988666469242288
4281.5,-0.007038163656907662
4282.4,-0.007069588276026493
