wave,flux
3700.85,-1.6759106155660217e-06
3701.75,-1.6650979177795148e-06
3702.65,-1.6277992412755102e-06
3703.55,-1.5683289924756717e-06
3704.45,-1.5143255763408324e-06
3705.35,-1.4692402182897188e-06
3706.25,-1.4497783505877707e-06
3707.15,-1.4499683215986751e-06
3708.05,-1.468699695184553e-06
3708.96,-1.49029149574202e-06
3709.86,-1.5085512745961078e-06
3710.76,-1.5347749097895402e-06
3711.66,-1.5684682294756648e-06
3712.56,-1.603348494255916e-06
3713.46,-1.6587354497314124e-06
3714.36,-1.726556327864276e-06
3715.26,-1.7827404147355272e-06
3716.16,-1.8137356835588677e-06
3717.06,-1.8298058720114633e-06
3717.96,-1.80371177772405e-06
3718.86,-1.7328125968284136e-06
3719.76,-1.6500854429595897e-06
3720.66,-1.5535337697565735e-06
3721.56,-1.4846597840883417e-06
3722.46,-1.461812478783296e-06
3723.36,-1.4838679487968972e-06
3724.26,-1.5504445898908492e-06
3725.16,-1.6370504596037258e-06
3726.06,-1.7296880845913765e-06
3726.96,-1.785328201762256e-06
3727.86,-1.8271421228466056e-06
3728.76,-1.8410262400803596e-06
3729.66,-1.8466310871904245e-06
3730.56,-1.819970626258082e-06
3731.46,-1.7514909193879026e-06
3732.36,-1.6699055248882951e-06
3733.26,-1.5775596911331965e-06
3734.16,-1.4792258508478403e-06
3735.06,-1.413912028037755e-06
3735.96,-1.393001042255462e-06
3736.86,-1.431753713453206e-06
3737.76,-1.513921997754648e-06
3738.66,-1.622160736614022e-06
3739.56,-1.755161629763349e-06
3740.46,-1.8571356310722887e-06
3741.36,-1.928003373676801e-06
3742.26,-1.9602394944340288e-06
3743.16,-1.9677115157619283e-06
3744.06,-1.9289216361310152e-06
3744.96,-1.8735791099800246e-06
3745.86,-1.809200079906985e-06
3746.76,-1.7207938719712923e-06
3747.67,-1.636623445757225e-06
3748.57,-1.5626465003580821e-06
3749.47,-1.4939697912644145e-06
3750.37,-1.474252405288062e-06
3751.27,-1.532201229195268e-06
3752.17,-1.618647729494663e-06
3753.07,-1.7673752435941717e-06
3753.97,-1.897908852256856e-06
3754.87,-2.030574717127075e-06
3755.77,-2.0994008392967147e-06
3756.67,-2.1412438039625544e-06
3757.57,-2.126760361429191e-06
3758.47,-2.1060306894697146e-06
3759.37,-2.075951022708534e-06
3760.27,-2.0683423102310013e-06
3761.17,-2.0944290815895914e-06
3762.07,-2.11665561188529e-06
3762.97,-2.156523657774615e-06
3763.87,-2.1854757416722833e-06
3764.77,-2.2029561305275163e-06
3765.67,-2.193041360207704e-06
3766.57,-2.1570254086084895e-06
3767.47,-2.1025442053315752e-06
3768.37,-2.0406603986456986e-06
3769.27,-1.9727854438904343e-06
3770.17,-1.923718658217885e-06
3771.07,-1.9099205172635724e-06
3771.97,-1.9225745845928152e-06
3772.87,-1.9982120262141587e-06
3773.77,-2.0786136822384e-06
3774.67,-2.177033874029077e-06
3775.57,-2.2731990879067317e-06
3776.47,-2.358593054896994e-06
3777.37,-2.4275568023531302e-06
3778.27,-2.5110215349506146e-06
3779.17,-2.57525314875609e-06
3780.07,-2.6555630948330635e-06
3780.97,-2.7126867869520125e-06
3781.87,-2.7687243492939645e-06
3782.77,-2.792705150718406e-06
3783.67,-2.8067111184893043e-06
3784.57,-2.7831035656398726e-06
3785.47,-2.7568743164704207e-06
3786.38,-2.7075165371087464e-06
3787.28,-2.6484818043654733e-06
3788.18,-2.6018876683202214e-06
3789.08,-2.5595713577286772e-06
3789.98,-2.532224983921802e-06
3790.88,-2.5048472934844483e-06
3791.78,-2.474705816844003e-06
3792.68,-2.4272807701637827e-06
3793.58,-2.366619119458157e-06
3794.48,-2.2854267121094566e-06
3795.38,-2.1801089090432844e-06
3796.28,-2.085185827105961e-06
3797.18,-1.9989202727547626e-06
3798.08,-1.931881564543064e-06
3798.98,-1.931332423307704e-06
3799.88,-1.9900259149536217e-06
3800.78,-2.1129144784605898e-06
3801.68,-2.2728664053969653e-06
3802.58,-2.447793957717955e-06
3803.48,-2.6035580927723238e-06
3804.38,-2.7170799251804897e-06
3805.28,-2.790017719489748e-06
3806.18,-2.867197595147026e-06
3807.08,-2.899115332603558e-06
3807.98,-2.9365742936919584e-06
3808.88,-2.9831917527991517e-06
3809.78,-3.0142897823198435e-06
3810.68,-3.0561652591788874e-06
3811.58,-3.071599297918599e-06
3812.48,-3.053676503750756e-06
3813.38,-2.9925512735127e-06
3814.28,-2.9449608832016716e-06
3815.18,-2.9097067827040984e-06
3816.08,-2.896691639328221e-06
3816.98,-2.9037711029153953e-06
3817.88,-2.9119653894261587e-06
3818.78,-2.9379072548817407e-06
3819.68,-2.939993987280018e-06
3820.58,-2.9229068529654828e-06
3821.48,-2.9125805347474792e-06
3822.38,-2.898206666324751e-06
3823.28,-2.862406599937102e-06
3824.18,-2.828690984388008e-06
3825.09,-2.7774032603343873e-06
3825.99,-2.7293157948890803e-06
3826.89,-2.677144714540894e-06
3827.79,-2.616173265568416e-06
3828.69,-2.580167581910183e-06
3829.59,-2.5354068848048192e-06
3830.49,-2.4687856958008365e-06
3831.39,-2.3832170288039366e-06
3832.29,-2.269935539226104e-06
3833.19,-2.152770350147234e-06
3834.09,-2.0491568835048407e-06
3834.99,-1.9519450486035705e-06
3835.89,-1.9118296360014395e-06
3836.79,-1.9195066408608874e-06
3837.69,-1.958391485411315e-06
3838.59,-2.0591906660234115e-06
3839.49,-2.1824515069453255e-06
3840.39,-2.3229032485098606e-06
3841.29,-2.47867032940932e-06
3842.19,-2.6446399661953563e-06
3843.09,-2.8149599210993594e-06
3843.99,-2.934953088651344e-06
3844.89,-3.0872915870224495e-06
3845.79,-3.188209294737567e-06
3846.69,-3.2580225809309465e-06
3847.59,-3.3251238834857104e-06
3848.49,-3.379903158665824e-06
3849.39,-3.4082205360217965e-06
3850.29,-3.4496214715104683e-06
3851.19,-3.4723376424688316e-06
3852.09,-3.5194511279279875e-06
3852.99,-3.534306799430361e-06
3853.89,-3.57515060259163e-06
3854.79,-3.581127035565318e-06
3855.69,-3.5694307162742135e-06
3856.59,-3.5347620686558505e-06
3857.49,-3.5067982504095996e-06
3858.39,-3.4724881402458043e-06
3859.29,-3.463980835319289e-06
3860.19,-3.451628766109163e-06
3861.09,-3.4977599836067394e-06
3861.99,-3.577442884839423e-06
3862.9,-3.6517176986351148e-06
3863.8,-3.7176624471198097e-06
3864.7,-3.7790536742020396e-06
3865.6,-3.824067290340519e-06
3866.5,-3.836708296031825e-06
3867.4,-3.848293033536136e-06
3868.3,-3.84351483541834e-06
3869.2,-3.827495717696713e-06
3870.1,-3.8037508037193934e-06
3871.0,-3.762635026424887e-06
3871.9,-3.7001704405487788e-06
3872.8,-3.6344991981481574e-06
3873.7,-3.60818348941949e-06
3874.6,-3.5989955814537803e-06
3875.5,-3.5965200194761055e-06
3876.4,-3.5921092539956753e-06
3877.3,-3.5978975972946675e-06
3878.2,-3.5700813780374184e-06
3879.1,-3.5629863730203703e-06
3880.0,-3.552660682831346e-06
3880.9,-3.538210875037684e-06
3881.8,-3.509000470256801e-06
3882.7,-3.4754321372621556e-06
3883.6,-3.427385765963265e-06
3884.5,-3.3346880691008344e-06
3885.4,-3.210786709599854e-06
3886.3,-3.0647932803060436e-06
3887.2,-2.909952533562455e-06
3888.1,-2.7762006843104424e-06
3889.0,-2.695610431401941e-06
3889.9,-2.6684660001118078e-06
3890.8,-2.7245419541776883e-06
3891.7,-2.848854439405259e-06
3892.6,-2.99616889307267e-06
3893.5,-3.1636844318557034e-06
3894.4,-3.3130920157833416e-06
3895.3,-3.4303146482210313e-06
3896.2,-3.5337610132298296e-06
3897.1,-3.6382099802236768e-06
3898.0,-3.7136644018708804e-06
3898.9,-3.7858732599792706e-06
3899.8,-3.848563775244551e-06
3900.7,-3.894361242754332e-06
3901.6,-3.955537820919599e-06
3902.51,-3.995194882652261e-06
3903.41,-4.006653214735753e-06
3904.31,-3.99799653198255e-06
3905.21,-4.0217652972785866e-06
3906.11,-4.029551852160479e-06
3907.01,-4.068278351050425e-06
3907.91,-4.138120794023097e-06
3908.81,-4.243052583227802e-06
3909.71,-4.326267783043945e-06
3910.61,-4.424703215614172e-06
3911.51,-4.502629511413547e-06
3912.41,-4.551958011850405e-06
3913.31,-4.555187207081529e-06
3914.21,-4.547230416805216e-06
3915.11,-4.520444700298134e-06
3916.01,-4.507831313537225e-06
3916.91,-4.464649522253701e-06
3917.81,-4.429539981860437e-06
3918.71,-4.397561502382611e-06
3919.61,-4.3509151413775504e-06
3920.51,-4.330609075206248e-06
3921.41,-4.303981977213561e-06
3922.31,-4.3122590778952154e-06
3923.21,-4.260764636790716e-06
3924.11,-4.274888657666299e-06
3925.01,-4.235595080688548e-06
3925.91,-4.126862433219022e-06
3926.81,-3.9938944797164865e-06
3927.71,-3.8140997158621867e-06
3928.61,-3.5681068960693832e-06
3929.51,-3.2567826828072516e-06
3930.41,-2.936714804990458e-06
3931.31,-2.5955395421123403e-06
3932.21,-2.272567606953466e-06
3933.11,-2.00679157000609e-06
3934.01,-1.8445730991191428e-06
3934.91,-1.8218957474681066e-06
3935.81,-1.9299955648374726e-06
3936.71,-2.179931785484909e-06
3937.61,-2.5110364580350537e-06
3938.51,-2.878449888693691e-06
3939.42,-3.256638743875786e-06
3940.32,-3.600889045070189e-06
3941.22,-3.878252310630593e-06
3942.12,-4.0696816938726825e-06
3943.02,-4.226016526856708e-06
3943.92,-4.34550180277859e-06
3944.82,-4.446383822964698e-06
3945.72,-4.54223478256553e-06
3946.62,-4.647634833587862e-06
3947.52,-4.732960663131701e-06
3948.42,-4.799109497283204e-06
3949.32,-4.837792638598272e-06
3950.22,-4.909332696251229e-06
3951.12,-4.930616860468557e-06
3952.02,-4.966162411860208e-06
3952.92,-5.008749525046813e-06
3953.82,-5.0205859929134054e-06
3954.72,-5.039359082635178e-06
3955.62,-5.0177654021402866e-06
3956.52,-5.00802992961512e-06
3957.42,-4.995454839558286e-06
3958.32,-4.975894574225939e-06
3959.22,-4.900073312301612e-06
3960.12,-4.808792036727843e-06
3961.02,-4.69082053682505e-06
3961.92,-4.499147261425325e-06
3962.82,-4.2779686533420896e-06
3963.72,-4.011370787615547e-06
3964.62,-3.711564683910233e-06
3965.52,-3.3623777722872226e-06
3966.42,-3.008414398127322e-06
3967.32,-2.640109422718836e-06
3968.22,-2.31598301498312e-06
3969.12,-2.12185071016814e-06
3970.02,-2.052439987147149e-06
3970.92,-2.1408708597323366e-06
3971.82,-2.369006311776359e-06
3972.72,-2.698662178192441e-06
3973.62,-3.0981449220519487e-06
3974.52,-3.492053181050481e-06
3975.42,-3.867212658695424e-06
3976.32,-4.222241458941353e-06
3977.22,-4.541480897081847e-06
3978.13,-4.822480332617169e-06
3979.03,-5.060385255367344e-06
3979.93,-5.249829736638787e-06
3980.83,-5.415183998112162e-06
3981.73,-5.512892871799732e-06
3982.63,-5.600984555475881e-06
3983.53,-5.683180583142377e-06
3984.43,-5.722386383415059e-06
3985.33,-5.799492634547256e-06
3986.23,-5.8763484227594706e-06
3987.13,-5.953225448307924e-06
3988.03,-6.029014880335031e-06
3988.93,-6.127861717660178e-06
3989.83,-6.204022574575262e-06
3990.73,-6.2621700871633185e-06
3991.63,-6.337310201821381e-06
3992.53,-6.413855868488004e-06
3993.43,-6.430042809456058e-06
3994.33,-6.466934303246811e-06
3995.23,-6.457591611280827e-06
3996.13,-6.406131088008695e-06
3997.03,-6.397425250523088e-06
3997.93,-6.401361772673709e-06
3998.83,-6.393050202146672e-06
3999.73,-6.476196193861493e-06
4000.63,-6.578330588728292e-06
4001.53,-6.675107893926401e-06
4002.43,-6.715960002693094e-06
4003.33,-6.756429893916646e-06
4004.23,-6.755492480001895e-06
4005.13,-6.723039525713206e-06
4006.03,-6.6820651533724845e-06
4006.93,-6.680410076157991e-06
4007.83,-6.73536597311888e-06
4008.73,-6.805201168092502e-06
4009.63,-6.909020650820905e-06
4010.53,-7.013592865384345e-06
4011.43,-7.069631578643391e-06
4012.33,-7.143303897964567e-06
4013.23,-7.137682562200793e-06
4014.13,-7.199327159800494e-06
4015.03,-7.211684183151321e-06
4015.93,-7.253221586293765e-06
4016.84,-7.289246271846327e-06
4017.74,-7.337319454699486e-06
4018.64,-7.38856576448025e-06
4019.54,-7.415639180729193e-06
4020.44,-7.444683089399094e-06
4021.34,-7.520856271739354e-06
4022.24,-7.497825162398764e-06
4023.14,-7.540062562103358e-06
4024.04,-7.525141597469849e-06
4024.94,-7.593305289743376e-06
4025.84,-7.610118441298783e-06
4026.74,-7.689968629209861e-06
4027.64,-7.754664461305883e-06
4028.54,-7.739697245201932e-06
4029.44,-7.68627284259888e-06
4030.34,-7.624398792163404e-06
4031.24,-7.518842116311468e-06
4032.14,-7.458803532041395e-06
4033.04,-7.420382515558421e-06
4033.94,-7.437167679356427e-06
4034.84,-7.511491756008326e-06
4035.74,-7.670950744851834e-06
4036.64,-7.82857849877011e-06
4037.54,-7.965221026906895e-06
4038.44,-8.128821036068115e-06
4039.34,-8.195302025211568e-06
4040.24,-8.245986354211013e-06
4041.14,-8.227755160140867e-06
4042.04,-8.168097253066522e-06
4042.94,-8.115545746320595e-06
4043.84,-7.983286700066719e-06
4044.74,-7.952157377145435e-06
4045.64,-7.835001995980603e-06
4046.54,-7.791970798363063e-06
4047.44,-7.840026393270652e-06
4048.34,-7.982459175693705e-06
4049.24,-8.125231554285802e-06
4050.14,-8.275591676607716e-06
4051.04,-8.390323368052517e-06
4051.94,-8.435200986009133e-06
4052.84,-8.45990448213453e-06
4053.74,-8.432238868201272e-06
4054.65,-8.428652633189576e-06
4055.55,-8.384004388913301e-06
4056.45,-8.357703909279941e-06
4057.35,-8.360206856361648e-06
4058.25,-8.402460022537197e-06
4059.15,-8.43439295200825e-06
4060.05,-8.477012275171978e-06
4060.95,-8.530242747145964e-06
4061.85,-8.508658079743433e-06
4062.75,-8.454155579590742e-06
4063.65,-8.377105757109716e-06
4064.55,-8.369116934935592e-06
4065.45,-8.367931032531903e-06
4066.35,-8.374164538806398e-06
4067.25,-8.451244793964238e-06
4068.15,-8.600422782489267e-06
4069.05,-8.665659970791202e-06
4069.95,-8.732359293354715e-06
4070.85,-8.788439541674536e-06
4071.75,-8.805233043766345e-06
4072.65,-8.793962215508023e-06
4073.55,-8.779340883913003e-06
4074.45,-8.717975603996847e-06
4075.35,-8.637398285051704e-06
4076.25,-8.548996710733547e-06
4077.15,-8.456503796082932e-06
4078.05,-8.43743832943759e-06
4078.95,-8.440208433783136e-06
4079.85,-8.525795300461245e-06
4080.75,-8.666853371490238e-06
4081.65,-8.833928431861502e-06
4082.55,-8.953865219982447e-06
4083.45,-9.023462990047688e-06
4084.35,-9.109468364762667e-06
4085.25,-9.141431342403203e-06
4086.15,-9.231968147559265e-06
4087.05,-9.341776992092488e-06
4087.95,-9.438162555500222e-06
4088.85,-9.537286481265802e-06
4089.75,-9.62880369260851e-06
4090.65,-9.653010946948028e-06
4091.55,-9.653599676105646e-06
4092.45,-9.572929885608219e-06
4093.36,-9.467730590620476e-06
4094.26,-9.357328384256665e-06
4095.16,-9.26135859462591e-06
4096.06,-9.038920788989161e-06
4096.96,-8.81122437047406e-06
4097.86,-8.573291599489703e-06
4098.76,-8.221322062006109e-06
4099.66,-7.856782997472836e-06
4100.56,-7.535597773654894e-06
4101.46,-7.245925394470305e-06
4102.36,-7.058923125915711e-06
4103.26,-7.073952450328426e-06
4104.16,-7.304406935110551e-06
4105.06,-7.603028855405351e-06
4105.96,-8.013907118331088e-06
4106.86,-8.412807523780952e-06
4107.76,-8.727969711014667e-06
4108.66,-9.043669105760872e-06
4109.56,-9.239289864699777e-06
4110.46,-9.461762344142147e-06
4111.36,-9.650639689016412e-06
4112.26,-9.778695495025788e-06
4113.16,-9.962985352281518e-06
4114.06,-1.0096915034259907e-05
4114.96,-1.0241285166947052e-05
4115.86,-1.037818069727733e-05
4116.76,-1.0515679041812556e-05
4117.66,-1.0519291335636068e-05
4118.56,-1.0531259523913757e-05
4119.46,-1.046837920704554e-05
4120.36,-1.0505300495378175e-05
4121.26,-1.052398407095756e-05
4122.16,-1.0526943684980557e-05
4123.06,-1.05905400716528e-05
4123.96,-1.0721504172179255e-05
4124.86,-1.0792573977030075e-05
4125.76,-1.0864703960831996e-05
4126.66,-1.0921429624434779e-05
4127.56,-1.098922292530901e-05
4128.46,-1.0962233044452316e-05
4129.36,-1.0981640613099242e-05
4130.26,-1.0895084792574426e-05
4131.17,-1.0868745726503563e-05
4132.06,-1.0892200199069084e-05
4132.97,-1.086896782731224e-05
4133.87,-1.0866684809308463e-05
4134.77,-1.096146831923746e-05
4135.67,-1.112945673523837e-05
4136.57,-1.1299668416136073e-05
4137.47,-1.149118673558771e-05
4138.37,-1.1664051008769695e-05
4139.27,-1.1808706930333912e-05
4140.17,-1.1862502514982931e-05
4141.07,-1.1846728768748818e-05
4141.97,-1.1809638622852054e-05
4142.87,-1.1646663451788838e-05
4143.77,-1.1588871214020605e-05
4144.67,-1.1561180224676496e-05
4145.57,-1.1584544498357409e-05
4146.47,-1.1693272583095874e-05
4147.37,-1.1872653353659395e-05
4148.27,-1.2002993331900251e-05
4149.17,-1.2085277477422485e-05
4150.07,-1.2083508763049965e-05
4150.97,-1.2185958703856258e-05
4151.87,-1.2185789273981193e-05
4152.77,-1.2160237805888414e-05
4153.67,-1.2132866468554895e-05
4154.57,-1.2160878639258344e-05
4155.47,-1.2156806383004995e-05
4156.37,-1.2233756772207132e-05
4157.27,-1.2306231707583803e-05
4158.17,-1.2399966700590238e-05
4159.07,-1.2574945944338326e-05
4159.97,-1.2656764056026756e-05
4160.87,-1.2785130212140932e-05
4161.77,-1.2944839575176964e-05
4162.67,-1.305541883467264e-05
4163.57,-1.3086872319585595e-05
4164.47,-1.3176255769702778e-05
4165.37,-1.3239883474652537e-05
4166.27,-1.3228546981037879e-05
4167.17,-1.3234343723447183e-05
4168.07,-1.3198265104086595e-05
4168.98,-1.3204500929573806e-05
4169.88,-1.3092818467265522e-05
4170.78,-1.2930429409720779e-05
4171.68,-1.2839013125000608e-05
4172.58,-1.2679790820958022e-05
4173.48,-1.261120943021218e-05
4174.38,-1.2581808436869439e-05
4175.28,-1.2629999214935713e-05
4176.18,-1.2673697443393784e-05
4177.08,-1.2788553158148893e-05
4177.98,-1.2937467449594332e-05
4178.88,-1.3167143738872358e-05
4179.78,-1.3243620896106485e-05
4180.68,-1.3349455131557197e-05
4181.58,-1.3477051657573369e-05
4182.48,-1.353036830917777e-05
4183.38,-1.363136612366392e-05
4184.28,-1.3747469838093894e-05
4185.18,-1.3737491794781217e-05
4186.08,-1.3775248874753021e-05
4186.98,-1.3795550253964788e-05
4187.88,-1.3832329791066444e-05
4188.78,-1.3872993883639307e-05
4189.68,-1.3915253260380217e-05
4190.58,-1.4022529201305394e-05
4191.48,-1.4198437802420314e-05
4192.38,-1.428863124853231e-05
4193.28,-1.4409131827867193e-05
4194.18,-1.4460100764338971e-05
4195.08,-1.4487783896812847e-05
4195.98,-1.4471642259667222e-05
4196.88,-1.4362999245403571e-05
4197.78,-1.4272369039164296e-05
4198.68,-1.4190898773604384e-05
4199.58,-1.4049081820627561e-05
4200.48,-1.4079832549628388e-05
4201.38,-1.4042989438081816e-05
4202.28,-1.414031186794767e-05
4203.18,-1.4258736671539047e-05
4204.08,-1.4353205743501301e-05
4204.98,-1.4542778508419796e-05
4205.88,-1.4687318566041209e-05
4206.79,-1.4889968561194133e-05
4207.69,-1.5048327299033659e-05
4208.59,-1.5172846933781355e-05
4209.49,-1.5335844397643778e-05
4210.39,-1.5468575131562907e-05
4211.29,-1.55057520501526e-05
4212.19,-1.5590408239778786e-05
4213.09,-1.5617096976716343e-05
4213.99,-1.5512496728777363e-05
4214.89,-1.5450051371361388e-05
4215.79,-1.5414732433088204e-05
4216.69,-1.5385144290240728e-05
4217.59,-1.542014827461509e-05
4218.49,-1.557553255951695e-05
4219.39,-1.572825824700436e-05
4220.29,-1.5881575635085353e-05
4221.19,-1.594981275715254e-05
4222.09,-1.590129893027081e-05
4222.99,-1.5849940589272315e-05
4223.89,-1.560852947217635e-05
4224.79,-1.5240206933649105e-05
4225.69,-1.4930127706673449e-05
4226.59,-1.470788200908172e-05
4227.49,-1.4673416437575e-05
4228.39,-1.479586884335598e-05
4229.29,-1.5070804211186817e-05
4230.19,-1.552547337477313e-05
4231.09,-1.5856773432894412e-05
4231.99,-1.6200944885511767e-05
4232.89,-1.638793330589889e-05
4233.79,-1.6383466681901506e-05
4234.69,-1.647509507970716e-05
4235.59,-1.643286027336721e-05
4236.49,-1.641640263770884e-05
4237.39,-1.642494834448046e-05
4238.29,-1.645700523075984e-05
4239.19,-1.655955531099251e-05
4240.09,-1.6796244542660982e-05
4240.99,-1.6932483023801593e-05
4241.89,-1.7114606331686776e-05
4242.79,-1.7246859090706194e-05
4243.69,-1.7412315821175593e-05
4244.59,-1.7435888880774987e-05
4245.5,-1.7518591628726977e-05
4246.4,-1.7428640872623592e-05
4247.3,-1.728518015405685e-05
4248.2,-1.7240313807610716e-05
4249.1,-1.727928082383589e-05
4250.0,-1.7278039334140267e-05
4250.9,-1.724431329442438e-05
4251.8,-1.745666556623511e-05
4252.7,-1.7567961972515344e-05
4253.6,-1.7765767465573352e-05
4254.5,-1.7938084279155405e-05
4255.4,-1.8055534602256722e-05
4256.3,-1.813837003944613e-05
4257.2,-1.8169462589406808e-05
4258.1,-1.8269713503006776e-05
4259.0,-1.8232857543683163e-05
4259.9,-1.821129952722244e-05
4260.8,-1.8170066665471023e-05
4261.7,-1.8303126772720215e-05
4262.6,-1.8450177832853672e-05
4263.5,-1.867735187689659e-05
4264.4,-1.8911854766870483e-05
4265.3,-1.9215113431111368e-05
4266.2,-1.9377482894806178e-05
4267.1,-1.9406912293592033e-05
4268.0,-1.9309091354033338e-05
4268.9,-1.9300124406526928e-05
4269.8,-1.9050133219789023e-05
4270.7,-1.875184891895469e-05
4271.6,-1.852176527559394e-05
4272.5,-1.8304756888473676e-05
4273.4,-1.8255845661703858e-05
4274.3,-1.8289180993739318e-05
