wave,flux
3700.85,-6.052548125588934e-07
3701.75,-5.960403887675163e-07
3702.65,-5.71767202157218e-07
3703.55,-5.374724339384525e-07
3704.45,-5.004502927144255e-07
3705.35,-4.649965620948758e-07
3706.25,-4.36291956360903e-07
3707.15,-4.1997055227960966e-07
3708.05,-4.2037245714817954e-07
3708.96,-4.28747838279255e-07
3709.86,-4.4933114023499714e-07
3710.76,-4.828322983565226e-07
3711.66,-5.194773541217625e-07
3712.56,-5.596996001980232e-07
3713.46,-5.91311976726467e-07
3714.36,-6.151813317294881e-07
3715.26,-6.197155461416992e-07
3716.16,-6.085532909658346e-07
3717.06,-5.798639383776838e-07
3717.96,-5.417848220258244e-07
3718.86,-4.913035165963887e-07
3719.76,-4.415462057750299e-07
3720.66,-4.0177794300173546e-07
3721.56,-3.7644603949575413e-07
3722.46,-3.763824607853354e-07
3723.36,-3.9806471241934034e-07
3724.26,-4.302370787405146e-07
3725.16,-4.6372472176039e-07
3726.06,-4.921079276911666e-07
3726.96,-5.053878932473927e-07
3727.86,-5.107715861021624e-07
3728.76,-5.063774864519383e-07
3729.66,-5.017211594248835e-07
3730.56,-4.883467254322385e-07
3731.46,-4.6853008859197415e-07
3732.36,-4.3765296880998036e-07
3733.26,-4.008468477340396e-07
3734.16,-3.6042014401407323e-07
3735.06,-3.307534712146462e-07
3735.96,-3.160897058583139e-07
3736.86,-3.184397393591845e-07
3737.76,-3.3964205063962313e-07
3738.66,-3.757191641575272e-07
3739.56,-4.160692464725935e-07
3740.46,-4.54793855171925e-07
3741.36,-4.794483916051227e-07
3742.26,-4.825444937386039e-07
3743.16,-4.6937746113539397e-07
3744.06,-4.4199954380754787e-07
3744.96,-4.126444076015104e-07
3745.86,-3.823271554758753e-07
3746.76,-3.6020970502872787e-07
3747.67,-3.3938265371401055e-07
3748.57,-3.3025975711993765e-07
3749.47,-3.332576344101077e-07
3750.37,-3.503149317482927e-07
3751.27,-3.830784458493203e-07
3752.17,-4.2995219407185854e-07
3753.07,-4.757894214731859e-07
3753.97,-5.211275150932131e-07
3754.87,-5.499924916617131e-07
3755.77,-5.611608399930504e-07
3756.67,-5.518713134572283e-07
3757.57,-5.271578986614738e-07
3758.47,-4.97870640960053e-07
3759.37,-4.741780338317532e-07
3760.27,-4.6404471551808926e-07
3761.17,-4.6628736039199105e-07
3762.07,-4.7230565624233315e-07
3762.97,-4.802317456706051e-07
3763.87,-4.864037416690036e-07
3764.77,-4.886333460466545e-07
3765.67,-4.890759825179281e-07
3766.57,-4.931759188982825e-07
3767.47,-4.958649212416783e-07
3768.37,-5.050597992667645e-07
3769.27,-5.180096951132887e-07
3770.17,-5.335144947334868e-07
3771.07,-5.527258136595249e-07
3771.97,-5.739179984916497e-07
3772.87,-5.931251507647236e-07
3773.77,-6.09877512548301e-07
3774.67,-6.255565791810046e-07
3775.57,-6.316445861943123e-07
3776.47,-6.344364374645499e-07
3777.37,-6.422602131822965e-07
3778.27,-6.478380769596932e-07
3779.17,-6.594822299353438e-07
3780.07,-6.708460849773258e-07
3780.97,-6.838667470562244e-07
3781.87,-6.940340477367423e-07
3782.77,-7.018759396031314e-07
3783.67,-7.016242467912438e-07
3784.57,-6.879598535619656e-07
3785.47,-6.629950292801064e-07
3786.38,-6.291647384294777e-07
3787.28,-5.979034987800482e-07
3788.18,-5.653214725901752e-07
3789.08,-5.437481773005489e-07
3789.98,-5.323431879009875e-07
3790.88,-5.283737539320637e-07
3791.78,-5.298403124233344e-07
3792.68,-5.295178786470118e-07
3793.58,-5.240122070642751e-07
3794.48,-5.121245424610618e-07
3795.38,-4.989752557228569e-07
3796.28,-4.832993012878241e-07
3797.18,-4.699376532288447e-07
3798.08,-4.6276989011555565e-07
3798.98,-4.6763453861645534e-07
3799.88,-4.784096089201509e-07
3800.78,-5.028509476107158e-07
3801.68,-5.374486870018726e-07
3802.58,-5.766123161774159e-07
3803.48,-6.075240901467862e-07
3804.38,-6.310440579689216e-07
3805.28,-6.410889355025497e-07
3806.18,-6.400339735554558e-07
3807.08,-6.349866137686555e-07
3807.98,-6.35453802480151e-07
3808.88,-6.382840467766562e-07
3809.78,-6.442741656801188e-07
3810.68,-6.445432649538679e-07
3811.58,-6.371134811664568e-07
3812.48,-6.233083414477057e-07
3813.38,-5.934390246545252e-07
3814.28,-5.604229396342424e-07
3815.18,-5.283568119387252e-07
3816.08,-5.042294171075775e-07
3816.98,-4.911566341473562e-07
3817.88,-4.799104253947623e-07
3818.78,-4.7336003848590556e-07
3819.68,-4.632435842422631e-07
3820.58,-4.535048670759907e-07
3821.48,-4.4228124247345115e-07
3822.38,-4.353874802411554e-07
3823.28,-4.295539967318714e-07
3824.18,-4.1804114961568214e-07
3825.09,-4.0420853287861877e-07
3825.99,-3.889079552450857e-07
3826.89,-3.761596592414446e-07
3827.79,-3.6907739523744646e-07
3828.69,-3.6692693095947154e-07
3829.59,-3.6977754570691137e-07
3830.49,-3.715875940801881e-07
3831.39,-3.68969440202162e-07
3832.29,-3.6312721102540643e-07
3833.19,-3.5658489778330273e-07
3834.09,-3.51100965949549e-07
3834.99,-3.502513917401007e-07
3835.89,-3.5225690651668407e-07
3836.79,-3.555013158234067e-07
3837.69,-3.5630629571627917e-07
3838.59,-3.592060395658247e-07
3839.49,-3.646450637616235e-07
3840.39,-3.7700896772501226e-07
3841.29,-3.9969198470924864e-07
3842.19,-4.3178480787438495e-07
3843.09,-4.6976040328189185e-07
3843.99,-5.059406025143628e-07
3844.89,-5.36505720770185e-07
3845.79,-5.550223283188015e-07
3846.69,-5.7132581179003e-07
3847.59,-5.76903754207273e-07
3848.49,-5.755557973828645e-07
3849.39,-5.714312330769308e-07
3850.29,-5.667479536487678e-07
3851.19,-5.615617610306916e-07
3852.09,-5.605378621352218e-07
3852.99,-5.611691329608627e-07
3853.89,-5.56666677491516e-07
3854.79,-5.457876196695175e-07
3855.69,-5.315722740566353e-07
3856.59,-5.123843854849471e-07
3857.49,-4.954391369028988e-07
3858.39,-4.760827582146362e-07
3859.29,-4.6435159833909257e-07
3860.19,-4.570866357712983e-07
3861.09,-4.692067341570999e-07
3861.99,-4.915412367950436e-07
3862.9,-5.223476182300414e-07
3863.8,-5.50375677091575e-07
3864.7,-5.710133877248873e-07
3865.6,-5.829402731388065e-07
3866.5,-5.801916417988967e-07
3867.4,-5.736310614439798e-07
3868.3,-5.635833696008073e-07
3869.2,-5.495360563793741e-07
3870.1,-5.33324776687487e-07
3871.0,-5.173250459886738e-07
3871.9,-5.080591054346341e-07
3872.8,-5.085674254010553e-07
3873.7,-5.160784825775925e-07
3874.6,-5.326418742850644e-07
3875.5,-5.518029243877634e-07
3876.4,-5.631692078567053e-07
3877.3,-5.612506111909209e-07
3878.2,-5.548180835046328e-07
3879.1,-5.456709921406437e-07
3880.0,-5.347307213780676e-07
3880.9,-5.323207434007222e-07
3881.8,-5.336276220937783e-07
3882.7,-5.364959504640442e-07
3883.6,-5.386515721801854e-07
3884.5,-5.39566868991557e-07
3885.4,-5.34673498122868e-07
3886.3,-5.266111526376957e-07
3887.2,-5.158167056734944e-07
3888.1,-5.145361105561156e-07
3889.0,-5.210101634765197e-07
3889.9,-5.427859561140309e-07
3890.8,-5.741230278705139e-07
3891.7,-6.095062176670356e-07
3892.6,-6.428778865364851e-07
3893.5,-6.669406859267553e-07
3894.4,-6.814001034817219e-07
3895.3,-6.893511434232394e-07
3896.2,-6.916301428226238e-07
3897.1,-6.934404382461108e-07
3898.0,-6.972423859179126e-07
3898.9,-7.004498291232532e-07
3899.8,-7.005800197076063e-07
3900.7,-6.999950872673789e-07
3901.6,-6.996647413282031e-07
3902.51,-6.931206396956985e-07
3903.41,-6.873042311931972e-07
3904.31,-6.748002110236987e-07
3905.21,-6.700594685157491e-07
3906.11,-6.665203306969546e-07
3907.01,-6.807413106598555e-07
3907.91,-7.025374963501459e-07
3908.81,-7.306624330428024e-07
3909.71,-7.622779847072008e-07
3910.61,-7.88052199225239e-07
3911.51,-8.093080717272511e-07
3912.41,-8.211598982483149e-07
3913.31,-8.273927915209986e-07
3914.21,-8.258554597538589e-07
3915.11,-8.213370074637025e-07
3916.01,-8.093967765648259e-07
3916.91,-7.898615640111614e-07
3917.81,-7.703668904425615e-07
3918.71,-7.455486934998995e-07
3919.61,-7.179006246754812e-07
3920.51,-6.880675670757575e-07
3921.41,-6.644499961864454e-07
3922.31,-6.478724918777927e-07
3923.21,-6.370995290667665e-07
3924.11,-6.260214548225678e-07
3925.01,-6.167274312866491e-07
3925.91,-5.963854865467157e-07
3926.81,-5.689366938242246e-07
3927.71,-5.246333568120658e-07
3928.61,-4.7362332966784756e-07
3929.51,-4.1985496650657695e-07
3930.41,-3.669188306094884e-07
3931.31,-3.1946637188257064e-07
3932.21,-2.8006074396997123e-07
3933.11,-2.504424434063954e-07
3934.01,-2.3320659079255134e-07
3934.91,-2.3302980465440907e-07
3935.81,-2.4871131115713753e-07
3936.71,-2.7771921558917985e-07
3937.61,-3.211366567231057e-07
3938.51,-3.709424692484994e-07
3939.42,-4.237386885232117e-07
3940.32,-4.6969549975547457e-07
3941.22,-5.108596771182941e-07
3942.12,-5.38978770331997e-07
3943.02,-5.629705596128596e-07
3943.92,-5.841050547288434e-07
3944.82,-6.07748500931896e-07
3945.72,-6.358608893099287e-07
3946.62,-6.702753624660257e-07
3947.52,-7.049575119396288e-07
3948.42,-7.381390236846542e-07
3949.32,-7.68147868803188e-07
3950.22,-7.919609150798109e-07
3951.12,-8.097907391587287e-07
3952.02,-8.244822154383841e-07
3952.92,-8.332499810735979e-07
3953.82,-8.440978517140711e-07
3954.72,-8.415329506741695e-07
3955.62,-8.388036895647166e-07
3956.52,-8.332023512014616e-07
3957.42,-8.224097842321631e-07
3958.32,-8.033803988785437e-07
3959.22,-7.84084023141505e-07
3960.12,-7.507740571071587e-07
3961.02,-7.082514499976685e-07
3961.92,-6.558503912131653e-07
3962.82,-5.997624945595615e-07
3963.72,-5.452957528015566e-07
3964.62,-4.952085322994311e-07
3965.52,-4.4479592373836227e-07
3966.42,-3.938077877891684e-07
3967.32,-3.4926283508725763e-07
3968.22,-3.129919954251089e-07
3969.12,-2.9310785210410956e-07
3970.02,-2.928767514593604e-07
3970.92,-3.119489218737979e-07
3971.82,-3.5040996576072855e-07
3972.72,-4.0140004981323713e-07
3973.62,-4.639327422670481e-07
3974.52,-5.294349939876987e-07
3975.42,-5.933934000964279e-07
3976.32,-6.594273300272289e-07
3977.22,-7.19230964900343e-07
3978.13,-7.770684086556387e-07
3979.03,-8.313788730182487e-07
3979.93,-8.747142793666899e-07
3980.83,-9.068646056444126e-07
3981.73,-9.251027024569739e-07
3982.63,-9.413294053210453e-07
3983.53,-9.50546148883127e-07
3984.43,-9.577310790833677e-07
3985.33,-9.702588207988736e-07
3986.23,-9.83383587874963e-07
3987.13,-1.0003110267206187e-06
3988.03,-1.0175979735687049e-06
3988.93,-1.0304716399767093e-06
3989.83,-1.0387550041612992e-06
3990.73,-1.0529075033351145e-06
3991.63,-1.0655998342823515e-06
3992.53,-1.073193060136448e-06
3993.43,-1.078319000204258e-06
3994.33,-1.0769981631699695e-06
3995.23,-1.0682185850488386e-06
3996.13,-1.0607487133148983e-06
3997.03,-1.0593228009317245e-06
3997.93,-1.0551522375802175e-06
3998.83,-1.065025026191696e-06
3999.73,-1.0854015443313863e-06
4000.63,-1.105731762179173e-06
4001.53,-1.1194286741020502e-06
4002.43,-1.1373229486436376e-06
4003.33,-1.1347842351672073e-06
4004.23,-1.1193641892110965e-06
4005.13,-1.0976382878972526e-06
4006.03,-1.0767090177916948e-06
4006.93,-1.065968957557338e-06
4007.83,-1.06955855695764e-06
4008.73,-1.0886936612612472e-06
4009.63,-1.1121513861080623e-06
4010.53,-1.1398595672208713e-06
4011.43,-1.1581002362532643e-06
4012.33,-1.1758681273779568e-06
4013.23,-1.1880986079428159e-06
4014.13,-1.1976480774428462e-06
4015.03,-1.208398102621815e-06
4015.93,-1.2112126971539704e-06
4016.84,-1.2076915224584573e-06
4017.74,-1.213306863337903e-06
4018.64,-1.2140099308578502e-06
4019.54,-1.2218483646488656e-06
4020.44,-1.220093512910492e-06
4021.34,-1.2248870435304879e-06
4022.24,-1.2255150288341359e-06
4023.14,-1.2202607280624264e-06
4024.04,-1.2217372630167275e-06
4024.94,-1.2208241218458517e-06
4025.84,-1.2274318898244899e-06
4026.74,-1.2313127876464283e-06
4027.64,-1.2398253328570918e-06
4028.54,-1.2315492985738162e-06
4029.44,-1.2154480677696798e-06
4030.34,-1.1808491266291018e-06
4031.24,-1.14076861516759e-06
4032.14,-1.0954494362360377e-06
4033.04,-1.0626203795745504e-06
4033.94,-1.0611971442873768e-06
4034.84,-1.0737500775905427e-06
4035.74,-1.1069690878539068e-06
4036.64,-1.161084897665001e-06
4037.54,-1.204743642676746e-06
4038.44,-1.2493492466501634e-06
4039.34,-1.2721029983983208e-06
4040.24,-1.2795387132390066e-06
4041.14,-1.275695796237296e-06
4042.04,-1.2526310913045641e-06
4042.94,-1.215424984679904e-06
4043.84,-1.1675219826986859e-06
4044.74,-1.1095024576792269e-06
4045.64,-1.0710956429451059e-06
4046.54,-1.0489501375327228e-06
4047.44,-1.0592859486644343e-06
4048.34,-1.087229977894975e-06
4049.24,-1.1449193657341557e-06
4050.14,-1.1955266779429676e-06
4051.04,-1.2357849262416736e-06
4051.94,-1.25573919265776e-06
4052.84,-1.2637727542064608e-06
4053.74,-1.2509637684679394e-06
4054.65,-1.2304792791203456e-06
4055.55,-1.2040351896308052e-06
4056.45,-1.1831887936827541e-06
4057.35,-1.16919256553301e-06
4058.25,-1.163745738120404e-06
4059.15,-1.1579338899444997e-06
4060.05,-1.1619430493178125e-06
4060.95,-1.1593089743752794e-06
4061.85,-1.147172982982015e-06
4062.75,-1.1279956431138963e-06
4063.65,-1.1049581271355427e-06
4064.55,-1.0872165410770064e-06
4065.45,-1.0838723123174e-06
4066.35,-1.1023668703448412e-06
4067.25,-1.1273214491884347e-06
4068.15,-1.1596475608471545e-06
4069.05,-1.1850590275150437e-06
4069.95,-1.1967341169256732e-06
4070.85,-1.205653158222599e-06
4071.75,-1.1976403999897217e-06
4072.65,-1.1951765382975767e-06
4073.55,-1.1904612255712254e-06
4074.45,-1.1820493306026649e-06
4075.35,-1.1756009630795815e-06
4076.25,-1.168238702485572e-06
4077.15,-1.1581564210817154e-06
4078.05,-1.148595916984596e-06
4078.95,-1.1620553252985417e-06
4079.85,-1.1889233825693024e-06
4080.75,-1.2337638738414634e-06
4081.65,-1.268721656429584e-06
4082.55,-1.2939500698477797e-06
4083.45,-1.3145956683705515e-06
4084.35,-1.3285556545462326e-06
4085.25,-1.3305362163577229e-06
4086.15,-1.3485411361112874e-06
4087.05,-1.3669435708039049e-06
4087.95,-1.396141797249905e-06
4088.85,-1.4208297121222432e-06
4089.75,-1.4391669666825967e-06
4090.65,-1.4504952855619156e-06
4091.55,-1.4416118098112692e-06
4092.45,-1.430877837060436e-06
4093.36,-1.4095894001203718e-06
4094.26,-1.382552519571381e-06
4095.16,-1.3501335791322908e-06
4096.06,-1.3222515043659014e-06
4096.96,-1.2884232894081112e-06
4097.86,-1.248816435424063e-06
4098.76,-1.2131924735873708e-06
4099.66,-1.1777772130706752e-06
4100.56,-1.138227647221548e-06
4101.46,-1.1097956166432196e-06
4102.36,-1.0980684029059365e-06
4103.26,-1.1074495464814647e-06
4104.16,-1.1316907491459032e-06
4105.06,-1.1767770735674475e-06
4105.96,-1.2232492710261127e-06
4106.86,-1.2737161134113189e-06
4107.76,-1.2993212646600697e-06
4108.66,-1.3205932190414582e-06
4109.56,-1.328749586711924e-06
4110.46,-1.3323445568066074e-06
4111.36,-1.3376279588338445e-06
4112.26,-1.3493763430309353e-06
4113.16,-1.359179376825111e-06
4114.06,-1.3722810167315937e-06
4114.96,-1.394320464951093e-06
4115.86,-1.4055061314508594e-06
4116.76,-1.410319462380272e-06
4117.66,-1.4005557401701487e-06
4118.56,-1.4030168349317022e-06
4119.46,-1.38370362473516e-06
4120.36,-1.3699203300322652e-06
4121.26,-1.3707505759051015e-06
4122.16,-1.3712032420846578e-06
4123.06,-1.373548516519329e-06
4123.96,-1.3817702986988033e-06
4124.86,-1.3870674454112635e-06
4125.76,-1.399586587474151e-06
4126.66,-1.3887593449439401e-06
4127.56,-1.3832353765602703e-06
4128.46,-1.3673255066165864e-06
4129.36,-1.347478329507808e-06
4130.26,-1.327115561407288e-06
4131.17,-1.303386061064007e-06
4132.06,-1.2813980434123108e-06
4132.97,-1.2727829830468972e-06
4133.87,-1.2627968437068097e-06
4134.77,-1.2790442576765077e-06
4135.67,-1.3114341635356706e-06
4136.57,-1.340141013019483e-06
4137.47,-1.3802403622244297e-06
4138.37,-1.4098352832830124e-06
4139.27,-1.4235042729907218e-06
4140.17,-1.4275617838494928e-06
4141.07,-1.4028816122230358e-06
4141.97,-1.372263719720672e-06
4142.87,-1.3283463369710665e-06
4143.77,-1.2954684967112476e-06
4144.67,-1.279374741744502e-06
4145.57,-1.2789502479869607e-06
4146.47,-1.2901654881629366e-06
4147.37,-1.3191714768071463e-06
4148.27,-1.3418169711756887e-06
4149.17,-1.3526353611487422e-06
4150.07,-1.3587016745504092e-06
4150.97,-1.3555182898849156e-06
4151.87,-1.3452051794224087e-06
4152.77,-1.3373129386807824e-06
4153.67,-1.3263741251231295e-06
4154.57,-1.3231436301482864e-06
4155.47,-1.3254888474368277e-06
4156.37,-1.3278376035365117e-06
4157.27,-1.3397087842076022e-06
4158.17,-1.360540413252484e-06
4159.07,-1.3943894077121368e-06
4159.97,-1.4144257827354337e-06
4160.87,-1.442872924306621e-06
4161.77,-1.4661476053941602e-06
4162.67,-1.4798921177894594e-06
4163.57,-1.4938595422291476e-06
4164.47,-1.491041659664088e-06
4165.37,-1.4933644235411657e-06
4166.27,-1.4705246019283914e-06
4167.17,-1.4482348518772225e-06
4168.07,-1.432850031211674e-06
4168.98,-1.422020530954532e-06
4169.88,-1.4074737844489582e-06
4170.78,-1.390707781025284e-06
4171.68,-1.3688262286769049e-06
4172.58,-1.3420138990342036e-06
4173.48,-1.317645085986916e-06
4174.38,-1.3035222518689233e-06
4175.28,-1.3004753285052502e-06
4176.18,-1.3042306223989977e-06
4177.08,-1.3184160446413407e-06
4177.98,-1.3358382643093725e-06
4178.88,-1.351786749103467e-06
4179.78,-1.3623369520564722e-06
4180.68,-1.3755225188267661e-06
4181.58,-1.385610402419384e-06
4182.48,-1.397632123370132e-06
4183.38,-1.4057406266442837e-06
4184.28,-1.4131567140227953e-06
4185.18,-1.4246301646290645e-06
4186.08,-1.4222603630923455e-06
4186.98,-1.4167447245825598e-06
4187.88,-1.4116229746318852e-06
4188.78,-1.4102455365173312e-06
4189.68,-1.4190235041896043e-06
4190.58,-1.4277157029582667e-06
4191.48,-1.4453809431824644e-06
4192.38,-1.4629773858907632e-06
4193.28,-1.4803008247541362e-06
4194.18,-1.4787713611775634e-06
4195.08,-1.4690633304053345e-06
4195.98,-1.4466526756105833e-06
4196.88,-1.411195421371778e-06
4197.78,-1.3751561029378145e-06
4198.68,-1.3475599250205427e-06
4199.58,-1.3328465820996132e-06
4200.48,-1.319439847475027e-06
4201.38,-1.3252439098321353e-06
4202.28,-1.3379575813961716e-06
4203.18,-1.3627546789237877e-06
4204.08,-1.3931702784541812e-06
4204.98,-1.4236438171022039e-06
4205.88,-1.4605846431118934e-06
4206.79,-1.495749590274488e-06
4207.69,-1.531898084923557e-06
4208.59,-1.5571258180561063e-06
4209.49,-1.5685989332549922e-06
4210.39,-1.5730294304145767e-06
4211.29,-1.5773633831099825e-06
4212.19,-1.5700476149702402e-06
4213.09,-1.5595910373188307e-06
4213.99,-1.5369119609463683e-06
4214.89,-1.5204506843586485e-06
4215.79,-1.5143002920380248e-06
4216.69,-1.5177587711236032e-06
4217.59,-1.537449501032761e-06
4218.49,-1.554557633679769e-06
4219.39,-1.5925713436119465e-06
4220.29,-1.613543845588259e-06
4221.19,-1.614062263340996e-06
4222.09,-1.5962760158641517e-06
4222.99,-1.544968403062822e-06
4223.89,-1.470265679365483e-06
4224.79,-1.3859208667449746e-06
4225.69,-1.2968695586152313e-06
4226.59,-1.2366086181441176e-06
4227.49,-1.2046933032793744e-06
4228.39,-1.2191065965395624e-06
4229.29,-1.2755311462288656e-06
4230.19,-1.3557303554835458e-06
4231.09,-1.435872515861167e-06
4231.99,-1.4967114176857088e-06
4232.89,-1.5238217574007702e-06
4233.79,-1.5397973462552e-06
4234.69,-1.5340479562843644e-06
4235.59,-1.5230556222336816e-06
4236.49,-1.5111858741069333e-06
4237.39,-1.5011100365857983e-06
4238.29,-1.5070722647140421e-06
4239.19,-1.5256903320447152e-06
4240.09,-1.5482053024080232e-06
4240.99,-1.5812856975254807e-06
4241.89,-1.6135697561822716e-06
4242.79,-1.6434413207338939e-06
4243.69,-1.6828466556968842e-06
4244.59,-1.6999067252583065e-06
4245.5,-1.7051485144739992e-06
4246.4,-1.693423857446486e-06
4247.3,-1.6667555761222204e-06
4248.2,-1.6349476017838784e-06
4249.1,-1.5913771829160333e-06
4250.0,-1.5543344001065478e-06
4250.9,-1.5257921689169066e-06
4251.8,-1.510664433806357e-06
4252.7,-1.5113831470030944e-06
4253.6,-1.5181979933216275e-06
4254.5,-1.5339598945354265e-06
4255.4,-1.5381903061610613e-06
4256.3,-1.5497425910614876e-06
4257.2,-1.5601142613016503e-06
4258.1,-1.5680985325250501e-06
4259.0,-1.5677755265033718e-06
4259.9,-1.5511196582955595e-06
4260.8,-1.5377212583227426e-06
4261.7,-1.5488949517137238e-06
4262.6,-1.5853727158402117e-06
4263.5,-1.6335846967686685e-06
4264.4,-1.6854147776109978e-06
4265.3,-1.7273125606031463e-06
4266.2,-1.7505302067459348e-06
4267.1,-1.7469483399057508e-06
4268.0,-1.7185888308487267e-06
4268.9,-1.6689205411453416e-06
4269.8,-1.5957755647855887e-06
4270.7,-1.5284742014802291e-06
4271.6,-1.4554885398037831e-06
4272.5,-1.3996930906609066e-06
4273.4,-1.375487637245555e-06
4274.3,-1.3831882951438922e-06
