wave,flux
3700.85,-0.022202083620751142
3701.75,-0.022128371096677455
3702.65,-0.021915681565476547
3703.55,-0.021275567259289623
3704.45,-0.020561746175177427
3705.35,-0.019874512979938194
3706.25,-0.019543538917881968
3707.15,-0.01955966756762309
3708.05,-0.01995501248109817
3708.96,-0.020587462323293133
3709.86,-0.02147438488435934
3710.76,-0.022573874342720616
3711.66,-0.023862592582545788
3712.56,-0.025239390781188423
3713.46,-0.026783111151232768
3714.36,-0.028154041007426397
3715.26,-0.029220517235930204
3716.16,-0.02987853311517412
3717.06,-0.02978915841462103
3717.96,-0.029358168450881347
3718.86,-0.028244264313222387
3719.76,-0.026682540273942304
3720.66,-0.025206885276619
3721.56,-0.02429410768634653
3722.46,-0.02445886380462635
3723.36,-0.025549978542576565
3724.26,-0.0275238194026266
3725.16,-0.029725844257469682
3726.06,-0.03183621179075695
3726.96,-0.03314677684332361
3727.86,-0.03428746007261356
3728.76,-0.03497600065751989
3729.66,-0.03540349678598819
3730.56,-0.03545950110296211
3731.46,-0.034905347209789724
3732.36,-0.033602602529774914
3733.26,-0.031936711597413785
3734.16,-0.030075647602199728
3735.06,-0.02878049982538665
3735.96,-0.028522849831973784
3736.86,-0.02941110684814272
3737.76,-0.03129546320389622
3738.66,-0.03445943999336034
3739.56,-0.03782474621534696
3740.46,-0.04111774366342744
3741.36,-0.043758719628198856
3742.26,-0.04513479904042888
3743.16,-0.04547079241254278
3744.06,-0.04470957145359266
3744.96,-0.043618014978943326
3745.86,-0.04253334881130985
3746.76,-0.040972393631586765
3747.67,-0.039736431083084174
3748.57,-0.03893484810322624
3749.47,-0.03894438696156283
3750.37,-0.040095751368640783
3751.27,-0.04314214155221247
3752.17,-0.047410099987264996
3753.07,-0.05253256770352157
3753.97,-0.057843048995663976
3754.87,-0.06247300025292583
3755.77,-0.06516085392795386
3756.67,-0.06617500314959414
3757.57,-0.06627998424637287
3758.47,-0.06529594161113919
3759.37,-0.06500026762093766
3760.27,-0.06517137775071852
3761.17,-0.0669099563295459
3762.07,-0.06932242171793555
3762.97,-0.07219535860080846
3763.87,-0.07466463080788743
3764.77,-0.07739350807323248
3765.67,-0.07883757101623853
3766.57,-0.08018838233611132
3767.47,-0.08097164887613795
3768.37,-0.08158082348993721
3769.27,-0.08248514262861302
3770.17,-0.08373784212773834
3771.07,-0.08624414250223328
3771.97,-0.08983454188019105
3772.87,-0.09505673219568435
3773.77,-0.09995439808585856
3774.67,-0.10523909147076324
3775.57,-0.11056209707351898
3776.47,-0.11520924904830424
3777.37,-0.12011396166759454
3778.27,-0.12538079375116695
3779.17,-0.13069981675267758
3780.07,-0.13645995120640123
3780.97,-0.14187800887114568
3781.87,-0.14771543028625797
3782.77,-0.1516998364404555
3783.67,-0.1554379196266994
3784.57,-0.15737622936793783
3785.47,-0.15775651988070258
3786.38,-0.15781251171467878
3787.28,-0.1562633305110344
3788.18,-0.1553672747558083
3789.08,-0.1556133667604538
3789.98,-0.15818102545260496
3790.88,-0.1616006646743656
3791.78,-0.16414151049221976
3792.68,-0.1676358273636849
3793.58,-0.1688374860345489
3794.48,-0.16815361231638748
3795.38,-0.16792628292534825
3796.28,-0.16563839892711915
3797.18,-0.1642437775461189
3798.08,-0.1658147871189732
3798.98,-0.1708406707358682
3799.88,-0.1800917107450238
3800.78,-0.19486616691505373
3801.68,-0.21528951032677174
3802.58,-0.23565114387590003
3803.48,-0.2561744132602341
3804.38,-0.2730725429743728
3805.28,-0.28719327368528375
3806.18,-0.29998768005416626
3807.08,-0.3074943598266758
3807.98,-0.3180795975308632
3808.88,-0.330496532968227
3809.78,-0.3454410663686696
3810.68,-0.3579195134524815
3811.58,-0.36656529522624853
3812.48,-0.37553762502525606
3813.38,-0.3775787157067489
3814.28,-0.37678723528020514
3815.18,-0.3782090554131997
3816.08,-0.3848356696736013
3816.98,-0.3950276354611084
3817.88,-0.4090492393728382
3818.78,-0.4234549434855465
3819.68,-0.43641622711196226
3820.58,-0.4490239594698557
3821.48,-0.46500728837243266
3822.38,-0.4760563811306115
3823.28,-0.49435326937969376
3824.18,-0.5091972579024082
3825.09,-0.5198450795634071
3825.99,-0.5306094315472888
3826.89,-0.54316501530315
3827.79,-0.5619186547743656
3828.69,-0.5830001990853976
3829.59,-0.6105906520734196
3830.49,-0.6388682677562391
3831.39,-0.660985135145209
3832.29,-0.6815235974025716
3833.19,-0.6949815410255935
3834.09,-0.7172752603939722
3834.99,-0.7468612653708696
3835.89,-0.7999694756588613
3836.79,-0.8593810636011316
3837.69,-0.952999905819601
3838.59,-1.060563904180422
3839.49,-1.2103146766640438
3840.39,-1.404344884281324
3841.29,-1.6731313088590063
3842.19,-2.011600369958868
3843.09,-2.4687047142099927
3843.99,-3.0392636623194345
3844.89,-3.801911465519349
3845.79,-4.814266136601405
3846.69,-6.370578817128034
3847.59,-8.988662797506885
3848.49,-14.878415593501519
3849.39,-39.47206991655964
3850.29,63.701953890341926
3851.19,17.91552026922232
3852.09,10.571972179062643
3852.99,7.533279021082759
3853.89,5.857879883004297
3854.79,4.803362732074243
3855.69,4.030042144529681
3856.59,3.450490872338683
3857.49,2.999652198421882
3858.39,2.629844280348918
3859.29,2.361774592370417
3860.19,2.168976674856872
3861.09,2.030306583430742
3861.99,1.9626140577188678
3862.9,1.9073963889263836
3863.8,1.8735983570403307
3864.7,1.8187793777822712
3865.6,1.7600238578217215
3866.5,1.6938547540926092
3867.4,1.6280495936980393
3868.3,1.5483448222968803
3869.2,1.4743090953738336
3870.1,1.3993225139128926
3871.0,1.324634010332793
3871.9,1.2486678122425117
3872.8,1.187840007954213
3873.7,1.1526730157826035
3874.6,1.1222796350779614
3875.5,1.1151387616235007
3876.4,1.0905061144200636
3877.3,1.0671062847668675
3878.2,1.0400574074307385
3879.1,1.0126950001461472
3880.0,0.9854877157972675
3880.9,0.9727558766479207
3881.8,0.9513070149316171
3882.7,0.9350351009650025
3883.6,0.9110453237339842
3884.5,0.8807820534730457
3885.4,0.8467086904132782
3886.3,0.8019776279254264
3887.2,0.7636284716514463
3888.1,0.7295892944698182
3889.0,0.7105528133904693
3889.9,0.7084436894318105
3890.8,0.7170531429627286
3891.7,0.7429537781832602
3892.6,0.7673908839181827
3893.5,0.7895346187479813
3894.4,0.8062240245228915
3895.3,0.8130009741881088
3896.2,0.8218807251018487
3897.1,0.8221804301588308
3898.0,0.8256195289397528
3898.9,0.8266877478774811
3899.8,0.8234633237377925
3900.7,0.82474249020918
3901.6,0.8146653932692095
3902.51,0.8124185703020895
3903.41,0.8052339699113787
3904.31,0.7914942852837147
3905.21,0.7814976549386626
3906.11,0.7719344528884639
3907.01,0.7804177239159245
3907.91,0.7876979242810294
3908.81,0.8054588713386241
3909.71,0.8228541302780094
3910.61,0.840053042135269
3911.51,0.8531658216423957
3912.41,0.8592504524834249
3913.31,0.8596865805903732
3914.21,0.8498348245900483
3915.11,0.8388282160095482
3916.01,0.824853541346348
3916.91,0.8131476547397274
3917.81,0.7970830062826919
3918.71,0.7802313667224131
3919.61,0.7578153566539095
3920.51,0.7446109130387875
3921.41,0.7252677568951397
3922.31,0.7153237167142386
3923.21,0.7053992824964305
3924.11,0.6925887471955664
3925.01,0.679997140895851
3925.91,0.6595522824046076
3926.81,0.6242358232140393
3927.71,0.5835015947519953
3928.61,0.5294684826447794
3929.51,0.4714875600632658
3930.41,0.4130078978682581
3931.31,0.35594999906571584
3932.21,0.30669771531225054
3933.11,0.26684857432247233
3934.01,0.24399475215832106
3934.91,0.23952800642125346
3935.81,0.25644999426324994
3936.71,0.29168430213786173
3937.61,0.340100013563693
3938.51,0.39705889910980824
3939.42,0.45673286244698724
3940.32,0.5099362673008953
3941.22,0.553371203074965
3942.12,0.5894550242459776
3943.02,0.6182910062276159
3943.92,0.6389741079993079
3944.82,0.6604520383003335
3945.72,0.683582531754309
3946.62,0.7069593286372391
3947.52,0.7261553357320678
3948.42,0.745899986427697
3949.32,0.7566727971134202
3950.22,0.7746918990658446
3951.12,0.7836286418037043
3952.02,0.789119359084778
3952.92,0.7968626733711413
3953.82,0.7995360669443466
3954.72,0.800061423149532
3955.62,0.8019742892827835
3956.52,0.7954547980323929
3957.42,0.7924399420359464
3958.32,0.7828970170471942
3959.22,0.7691432689838917
3960.12,0.7434989981902134
3961.02,0.7192493519695141
3961.92,0.6801181481506606
3962.82,0.6389969380187722
3963.72,0.5857892961928054
3964.62,0.5353015915220669
3965.52,0.47914730942953065
3966.42,0.42221361623992976
3967.32,0.3666490100092981
3968.22,0.32364802871309717
3969.12,0.29681907383473677
3970.02,0.29050742698152365
3970.92,0.3095105762459279
3971.82,0.3477857140039793
3972.72,0.4022808923011909
3973.62,0.4627071064590963
3974.52,0.5281637204881353
3975.42,0.5891263976979871
3976.32,0.6475168440611823
3977.22,0.6972832473244901
3978.13,0.7468869366497707
3979.03,0.7875153818293357
3979.93,0.8151089936813113
3980.83,0.8381852726430744
3981.73,0.8540849049388223
3982.63,0.8651762308115418
3983.53,0.8711851825577959
3984.43,0.8801100406401021
3985.33,0.8880522619974582
3986.23,0.8985516867823755
3987.13,0.9104669427668527
3988.03,0.9179023872039466
3988.93,0.9305627707710034
3989.83,0.9381601928142017
3990.73,0.9497860761946434
3991.63,0.9601600060800628
3992.53,0.9633048123246654
3993.43,0.9656533822017653
3994.33,0.9639495499855828
3995.23,0.9550858451213698
3996.13,0.9484536881400544
3997.03,0.9395363556240761
3997.93,0.9360115711381404
3998.83,0.9383649114637878
3999.73,0.9495055611032119
4000.63,0.958798282715814
4001.53,0.974575718694736
4002.43,0.9840716523490634
4003.33,0.9826797643743319
4004.23,0.9798411310269329
4005.13,0.9682033538898244
4006.03,0.959286665832802
4006.93,0.94923074260742
4007.83,0.9568895709589632
4008.73,0.9654377736461335
4009.63,0.9822982968026661
4010.53,1.0010105880302549
4011.43,1.0039627818783177
4012.33,1.013054348924195
4013.23,1.0140637376803072
4014.13,1.0182401112282753
4015.03,1.024100836409808
4015.93,1.0195819698860342
4016.84,1.0198820168303673
4017.74,1.0231901272434032
4018.64,1.023129243623444
4019.54,1.0252833330582485
4020.44,1.0292284950901074
4021.34,1.0354443384258427
4022.24,1.0326467524553071
4023.14,1.0323845142035102
4024.04,1.0266719934873219
4024.94,1.0331875331493272
4025.84,1.0392592727000005
4026.74,1.0435026501478388
4027.64,1.045490494314276
4028.54,1.0418660706060312
4029.44,1.0326833360766394
4030.34,1.0130402960351907
4031.24,0.9905562386396264
4032.14,0.9720511367513324
4033.04,0.9614675949023753
4033.94,0.9622683920990784
4034.84,0.9687520670472779
4035.74,0.9916228214333231
4036.64,1.0141005487068244
4037.54,1.0396991165267322
4038.44,1.0606430894801004
4039.34,1.0684165942346329
4040.24,1.074734967886533
4041.14,1.0644855464025038
4042.04,1.047361093253347
4042.94,1.0325159939129398
4043.84,1.0053248517667515
4044.74,0.9783452070556483
4045.64,0.9578503891632923
4046.54,0.94612197890661
4047.44,0.9503783851213129
4048.34,0.9706067206440244
4049.24,0.9940506688834531
4050.14,1.0171496010968704
4051.04,1.0362421780829754
4051.94,1.0464524571902958
4052.84,1.0489024812373076
4053.74,1.0400492121779963
4054.65,1.0358503350247315
4055.55,1.0199417404589939
4056.45,1.0136187303856914
4057.35,1.012319363802309
4058.25,1.009054097299261
4059.15,1.0102776858820053
4060.05,1.013764876252891
4060.95,1.00915584962406
4061.85,0.9962512540017304
4062.75,0.9852513351697852
4063.65,0.9741479285573172
4064.55,0.9567714789458839
4065.45,0.9532698550788623
4066.35,0.9623594584554317
4067.25,0.9703287444303166
4068.15,0.9830227390167379
4069.05,0.9946992265136883
4069.95,1.0002592720503203
4070.85,1.0039680868049323
4071.75,0.9998410158110789
4072.65,0.9967640584503681
4073.55,0.9868631806055058
4074.45,0.9832637248096708
4075.35,0.9756280109404882
4076.25,0.9602934928305551
4077.15,0.9426674942737876
4078.05,0.9364181059820195
4078.95,0.9369752324434064
4079.85,0.9448000927539846
4080.75,0.9613958436014849
4081.65,0.9803244908140448
4082.55,0.9988668097154715
4083.45,1.0078391627013006
4084.35,1.015131938561666
4085.25,1.0150147689780482
4086.15,1.028497400611697
4087.05,1.0445183493039842
4087.95,1.0546931997384028
4088.85,1.0719338375977512
4089.75,1.0780834001056905
4090.65,1.0888532697625197
4091.55,1.0853819218062872
4092.45,1.079009491855292
4093.36,1.064233070155773
4094.26,1.0498968229340648
4095.16,1.0347479273641138
4096.06,1.0126237212037277
4096.96,0.9897483212493506
4097.86,0.9620332200002562
4098.76,0.9265903565974166
4099.66,0.8921672640197028
4100.56,0.8606757425287318
4101.46,0.828753760964532
4102.36,0.8122011867302872
4103.26,0.8108413940000739
4104.16,0.8279544029725261
4105.06,0.8578958145567962
4105.96,0.889927625911585
4106.86,0.9228118968196021
4107.76,0.9513981953286008
4108.66,0.9651938727901858
4109.56,0.982275679579129
4110.46,0.9882926536379326
4111.36,0.9961619754537512
4112.26,1.0031580952787873
4113.16,1.0147787217335185
4114.06,1.0255242247702103
4114.96,1.0331387771582095
4115.86,1.0436785858867188
4116.76,1.038063618463589
4117.66,1.0367671256045357
4118.56,1.0340445582035545
4119.46,1.0243139154155212
4120.36,1.0145457020068491
4121.26,1.0155459565594016
4122.16,1.014095851730341
4123.06,1.0131677281103015
4123.96,1.0190520882585656
4124.86,1.0209016639020578
4125.76,1.0274119409088012
4126.66,1.0236033716813109
4127.56,1.0221565052616384
4128.46,1.0168886991038963
4129.36,1.0072926999485037
4130.26,0.9968931606486582
4131.17,0.9858416449538989
4132.06,0.9765447412798653
4132.97,0.9698585814371616
4133.87,0.9664518996772583
4134.77,0.9738685121428735
4135.67,0.9811386161531411
4136.57,0.9982563305406127
4137.47,1.0188447595741803
4138.37,1.031893895869945
4139.27,1.0418910653206876
4140.17,1.042060573589701
4141.07,1.0359742965405458
4141.97,1.0146678871219599
4142.87,0.9984690833165517
4143.77,0.9824370726330686
4144.67,0.9691675594981074
4145.57,0.9715958970045424
4146.47,0.9816719630110688
4147.37,0.9940990222206035
4148.27,1.0057718900271704
4149.17,1.0156206246026311
4150.07,1.0163649304365614
4150.97,1.0117218010039803
4151.87,1.016051099406526
4152.77,1.0096471097368267
4153.67,1.0067149646760716
4154.57,0.9954417006967767
4155.47,0.9994544005374755
4156.37,0.997112420609915
4157.27,1.0011961653646482
4158.17,1.0105370960412388
4159.07,1.0208565447641282
4159.97,1.030016512540197
4160.87,1.0427536393757284
4161.77,1.049797992261987
4162.67,1.051757323857805
4163.57,1.0591297676125886
4164.47,1.0580022250651246
4165.37,1.0575469642439816
4166.27,1.0515951935336771
4167.17,1.0457013221389373
4168.07,1.0369599847449364
4168.98,1.0290928358987608
4169.88,1.0216393692924757
4170.78,1.0044948297538596
4171.68,0.9882713820407397
4172.58,0.970772245730293
4173.48,0.9584834282908723
4174.38,0.9528886724938609
4175.28,0.9479622629883764
4176.18,0.957300588394744
4177.08,0.9671618921216241
4177.98,0.9745313333774746
4178.88,0.9856462918130697
4179.78,0.9955468406712401
4180.68,1.0042844012149228
4181.58,1.0089389580994106
4182.48,1.0100200271349526
4183.38,1.0102892075528267
4184.28,1.0123075262894574
4185.18,1.0148990823669968
4186.08,1.0097563055113412
4186.98,1.0025135755526735
4187.88,1.0005065315047692
4188.78,1.0019948648212056
4189.68,1.0011799873453116
4190.58,1.0099762912665924
4191.48,1.019555469728722
4192.38,1.023186068743871
4193.28,1.031915243446841
4194.18,1.0362846136255972
4195.08,1.0316564577404574
4195.98,1.0225501031099316
4196.88,1.0093209886017187
4197.78,0.9981471376476154
4198.68,0.9795964310161621
4199.58,0.9711431449236391
4200.48,0.9601066769876683
4201.38,0.9617636677726861
4202.28,0.9617727968510029
4203.18,0.9737207267071734
4204.08,0.9802551795602344
4204.98,0.9864372271990712
4205.88,0.9982150376784366
4206.79,1.016015968396884
4207.69,1.0286529290932136
4208.59,1.038869423232082
4209.49,1.0466109804982844
4210.39,1.0570058700680907
4211.29,1.0559476177108158
4212.19,1.0557211926590178
4213.09,1.0498882467150343
4213.99,1.0464410488109632
4214.89,1.0323365468895522
4215.79,1.0225880032067154
4216.69,1.0194382021315438
4217.59,1.0185246793852285
4218.49,1.0270372864722102
4219.39,1.036131591500631
4220.29,1.044192495243873
4221.19,1.0472541789708356
4222.09,1.0401957485261664
4222.99,1.0209665059540844
4223.89,0.9946669117875452
4224.79,0.9591443166069717
4225.69,0.9237947623043716
4226.59,0.8974074919015916
4227.49,0.8823488335401595
4228.39,0.8915672392261021
4229.29,0.9161929295498042
4230.19,0.9427793627350344
4231.09,0.9798219475506023
4231.99,1.0045709039370299
4232.89,1.0203140611369421
4233.79,1.0297676325813765
4234.69,1.019528998533814
4235.59,1.0127462375682592
4236.49,1.007688677666869
4237.39,1.0037269805028373
4238.29,1.0029156257107472
4239.19,1.0076273595851928
4240.09,1.0213987612599125
4240.99,1.029907809436046
4241.89,1.0433749731838642
4242.79,1.0582194715729416
4243.69,1.0594063294651226
4244.59,1.0630168344901216
4245.5,1.0623519828682366
4246.4,1.053698332687508
4247.3,1.0412791139339244
4248.2,1.031752078581877
4249.1,1.0144889421326448
4250.0,1.0092166769163788
4250.9,1.0048856710409937
4251.8,1.0055747528789276
4252.7,1.0125086485943573
4253.6,1.0211353229866575
4254.5,1.0217563695471072
4255.4,1.0321794681168082
4256.3,1.0334791237754029
4257.2,1.0346645700698256
4258.1,1.034568676164195
4259.0,1.0305356938704282
4259.9,1.0220826190688264
4260.8,1.0177595855916355
4261.7,1.0187926988274603
4262.6,1.0276838143440585
4263.5,1.0452359496924606
4264.4,1.065181274434958
4265.3,1.075871075258521
4266.2,1.0861827722668262
4267.1,1.0887710583266497
4268.0,1.0776696624317863
4268.9,1.059045209090956
4269.8,1.0344381379315462
4270.7,1.0060825014721748
4271.6,0.9817013651751991
4272.5,0.9611908891205371
4273.4,0.953505244332865
4274.3,0.9520439671652956
4275.2,0.9645366009239047
4276.1,0.9820848113437245
4277.0,1.0014940118618338
4277.9,1.0194013646701854
4278.8,1.0371929572736234
4279.7,1.0408433867843239
4280.6,1.041975196530177
4281.5,1.0404273271182862
4282.4,1.0363066040507227
4283.31,1.0305199811118706
4284.21,1.022265311527139
4285.11,1.01426500411703
4286.01,1.0009716242985194
4286.91,0.9846780295880273
4287.81,0.9723737850184737
4288.71,0.9578709677147608
4289.61,0.9443175729531682
4290.51,0.9356062601170111
4291.41,0.9358949861645203
4292.31,0.9445950899886292
4293.21,0.9548798021310976
4294.11,0.9610989579838874
4295.01,0.9661829044867847
4295.91,0.9600629528957112
4296.81,0.9419969378569175
4297.71,0.9173733020951177
4298.61,0.8889645815919655
4299.51,0.8627385249789664
4300.41,0.8322531866703685
4301.31,0.8123607825835697
4302.21,0.8033748843024017
4303.11,0.799542565594102
4304.01,0.7998481924483148
4304.91,0.8008334389273042
4305.81,0.7977144962862632
4306.71,0.7990486271767824
4307.61,0.791023909244927
4308.51,0.7841074659931352
4309.41,0.7839253881560061
4310.31,0.7878167408599703
4311.21,0.8038387868313414
4312.11,0.8316032224759536
4313.01,0.8597568020073733
4313.91,0.900902445246459
4314.81,0.950521500054845
4315.71,0.9945786153261582
4316.61,1.0443441034004446
4317.51,1.0892885288028142
4318.41,1.1228120111187585
4319.31,1.132838165689283
4320.21,1.1370319248746759
4321.12,1.124792319291282
4322.02,1.0999562962432832
4322.92,1.0668621438647
4323.82,1.0368968571425432
4324.72,1.0003757044332025
4325.62,0.9835022621905958
4326.52,0.9796187432441825
4327.42,0.9827649556505859
4328.32,1.005735107829559
4329.22,1.0344823759170994
4330.12,1.0661121971458383
4331.02,1.0870492088621193
4331.92,1.1044865416940643
4332.82,1.1099576606423054
4333.72,1.113262252401765
4334.62,1.0991030898413399
4335.52,1.0807228720691546
4336.42,1.053908404648038
4337.32,1.013523077568842
4338.22,0.9672005472076874
4339.12,0.9273915238309485
4340.02,0.8914833519105484
4340.92,0.869281934920257
4341.82,0.86371167765978
4342.72,0.8816772787729467
4343.62,0.9076818820957716
4344.52,0.9433580276461517
4345.42,0.9808718248144813
4346.32,1.017995196167413
4347.22,1.0423924478855775
4348.12,1.056677571770277
4349.02,1.0605169657153395
4349.92,1.0546094424540713
4350.82,1.0523513483804858
4351.72,1.0410456755531625
4352.62,1.0299037115894656
4353.52,1.0238475731358794
4354.42,1.0237834060422004
4355.32,1.030204986787199
4356.22,1.0408435432549887
4357.12,1.0566057885643017
4358.02,1.0614088175710321
4358.92,1.068993869186652
4359.83,1.0728734290613173
4360.73,1.0803056006032512
4361.63,1.0856289019204668
4362.53,1.094378259608238
