wave,flux
3700.85,-4.720725414321305e-07
3701.75,-4.6655309547343955e-07
3702.65,-4.5415157484877425e-07
3703.55,-4.316928066537586e-07
3704.45,-4.1262526021260153e-07
3705.35,-3.9573994525895955e-07
3706.25,-3.846381588776236e-07
3707.15,-3.7852400535521274e-07
3708.05,-3.815446660151155e-07
3708.96,-3.8760569650005047e-07
3709.86,-3.957691267125833e-07
3710.76,-4.0850453917386186e-07
3711.66,-4.2290863147420486e-07
3712.56,-4.400737434474451e-07
3713.46,-4.5940477781792256e-07
3714.36,-4.7541472389935573e-07
3715.26,-4.886980403791791e-07
3716.16,-4.924529717917756e-07
3717.06,-4.867199959748097e-07
3717.96,-4.709076757887958e-07
3718.86,-4.472455351824638e-07
3719.76,-4.194597517077752e-07
3720.66,-3.9163497878875107e-07
3721.56,-3.729790196249729e-07
3722.46,-3.6653068043721116e-07
3723.36,-3.777904255727797e-07
3724.26,-3.971626804856894e-07
3725.16,-4.1981708995002324e-07
3726.06,-4.4038551973254346e-07
3726.96,-4.5504925761314745e-07
3727.86,-4.6174480606639645e-07
3728.76,-4.6495529232870545e-07
3729.66,-4.630649902496291e-07
3730.56,-4.559083011138736e-07
3731.46,-4.388674155380896e-07
3732.36,-4.1814783658430096e-07
3733.26,-3.9004385572416724e-07
3734.16,-3.631907570143684e-07
3735.06,-3.407728096286018e-07
3735.96,-3.3270402142024495e-07
3736.86,-3.3940691399189413e-07
3737.76,-3.582397043593491e-07
3738.66,-3.840778189773276e-07
3739.56,-4.15021294810707e-07
3740.46,-4.4413382727633095e-07
3741.36,-4.613924068531683e-07
3742.26,-4.6989021321445086e-07
3743.16,-4.6465280278622887e-07
3744.06,-4.527693588697205e-07
3744.96,-4.3507247661566873e-07
3745.86,-4.135822672219321e-07
3746.76,-3.931772018779039e-07
3747.67,-3.726794012512435e-07
3748.57,-3.5804290600705637e-07
3749.47,-3.470664344369667e-07
3750.37,-3.497675004826567e-07
3751.27,-3.6662406667369365e-07
3752.17,-3.9504438814398703e-07
3753.07,-4.3067109963439845e-07
3753.97,-4.6548823710726384e-07
3754.87,-4.912138861672395e-07
3755.77,-5.079187765321405e-07
3756.67,-5.089590470203e-07
3757.57,-5.002367139733203e-07
3758.47,-4.850450581827663e-07
3759.37,-4.7386607045316224e-07
3760.27,-4.6845772255988925e-07
3761.17,-4.702265098458094e-07
3762.07,-4.7562368914425904e-07
3762.97,-4.871839898463242e-07
3763.87,-4.9418376837259e-07
3764.77,-4.978455428523223e-07
3765.67,-4.973830355241674e-07
3766.57,-4.912565716467864e-07
3767.47,-4.851414267913083e-07
3768.37,-4.773272733533441e-07
3769.27,-4.682493433162206e-07
3770.17,-4.6470861329392677e-07
3771.07,-4.654499682742684e-07
3771.97,-4.728312346853438e-07
3772.87,-4.891428491364086e-07
3773.77,-5.076311380417038e-07
3774.67,-5.219031973475787e-07
3775.57,-5.400521488528867e-07
3776.47,-5.532935007517095e-07
3777.37,-5.665647311236013e-07
3778.27,-5.779763184204789e-07
3779.17,-5.912002205554127e-07
3780.07,-6.047959023550651e-07
3780.97,-6.17816549906382e-07
3781.87,-6.274390587938838e-07
3782.77,-6.291908039319391e-07
3783.67,-6.312630357432463e-07
3784.57,-6.234182358487762e-07
3785.47,-6.143098146605632e-07
3786.38,-5.94898614304269e-07
3787.28,-5.780624233045203e-07
3788.18,-5.636586231553772e-07
3789.08,-5.527068448878941e-07
3789.98,-5.393582273759081e-07
3790.88,-5.404872348073079e-07
3791.78,-5.337145611790328e-07
3792.68,-5.289573575567511e-07
3793.58,-5.196388219366864e-07
3794.48,-5.020187541088745e-07
3795.38,-4.838209257900895e-07
3796.28,-4.632171634565319e-07
3797.18,-4.4471625361481636e-07
3798.08,-4.3564735854947865e-07
3798.98,-4.349113731819602e-07
3799.88,-4.501727715227199e-07
3800.78,-4.732214304394414e-07
3801.68,-5.070861215828487e-07
3802.58,-5.408120982772931e-07
3803.48,-5.742632422956655e-07
3804.38,-5.953895867954093e-07
3805.28,-6.094732500707766e-07
3806.18,-6.14912085751124e-07
3807.08,-6.18756212877328e-07
3807.98,-6.214362802653414e-07
3808.88,-6.306726438428125e-07
3809.78,-6.343278516296972e-07
3810.68,-6.405351687970825e-07
3811.58,-6.3585505631277e-07
3812.48,-6.267759398737486e-07
3813.38,-6.098233837811931e-07
3814.28,-5.91978752015634e-07
3815.18,-5.76183335644967e-07
3816.08,-5.654471948001192e-07
3816.98,-5.634011506385977e-07
3817.88,-5.602176027069789e-07
3818.78,-5.620298580807622e-07
3819.68,-5.567326132309058e-07
3820.58,-5.52863348522407e-07
3821.48,-5.463490047981009e-07
3822.38,-5.394022969440688e-07
3823.28,-5.349414192367089e-07
3824.18,-5.251801926821983e-07
3825.09,-5.132562097629718e-07
3825.99,-5.007110985211053e-07
3826.89,-4.889743068443496e-07
3827.79,-4.797268499486766e-07
3828.69,-4.728094588772629e-07
3829.59,-4.6806210591449476e-07
3830.49,-4.6105780681409375e-07
3831.39,-4.481638058468308e-07
3832.29,-4.317789168784343e-07
3833.19,-4.127922555653779e-07
3834.09,-3.947477493702733e-07
3834.99,-3.843960164576189e-07
3835.89,-3.7780708014207714e-07
3836.79,-3.7867279109667537e-07
3837.69,-3.856311155222212e-07
3838.59,-3.9510126484685233e-07
3839.49,-4.139639736416741e-07
3840.39,-4.37930840930513e-07
3841.29,-4.6397417791367496e-07
3842.19,-4.961191596888541e-07
3843.09,-5.309065109429489e-07
3843.99,-5.620615563909492e-07
3844.89,-5.891138864248207e-07
3845.79,-6.090142255644686e-07
3846.69,-6.219953305580332e-07
3847.59,-6.319643055053772e-07
3848.49,-6.376463760667355e-07
3849.39,-6.381922757277756e-07
3850.29,-6.405242333970246e-07
3851.19,-6.462342748095444e-07
3852.09,-6.454622640799583e-07
3852.99,-6.515079939991906e-07
3853.89,-6.517516114572043e-07
3854.79,-6.493301005714798e-07
3855.69,-6.41014935170699e-07
3856.59,-6.291662593756289e-07
3857.49,-6.16649523478485e-07
3858.39,-6.027348234099396e-07
3859.29,-5.951387797366624e-07
3860.19,-5.935919974242936e-07
3861.09,-5.990504376627098e-07
3861.99,-6.141119941256337e-07
3862.9,-6.337542304454189e-07
3863.8,-6.552804899703132e-07
3864.7,-6.691978388720939e-07
3865.6,-6.763019482133049e-07
3866.5,-6.789806138517814e-07
3867.4,-6.780132778980611e-07
3868.3,-6.730627378026172e-07
3869.2,-6.680407504327533e-07
3870.1,-6.569479601534174e-07
3871.0,-6.452365393147073e-07
3871.9,-6.289053627134053e-07
3872.8,-6.192967431504031e-07
3873.7,-6.179785057993383e-07
3874.6,-6.150214891972122e-07
3875.5,-6.228009140564818e-07
3876.4,-6.257112845872826e-07
3877.3,-6.263605775616245e-07
3878.2,-6.231876570665336e-07
3879.1,-6.178535378430964e-07
3880.0,-6.117576665427538e-07
3880.9,-6.119111845242661e-07
3881.8,-6.103538710553076e-07
3882.7,-6.086119279414418e-07
3883.6,-6.053912632015942e-07
3884.5,-5.892728059726783e-07
3885.4,-5.720903857341668e-07
3886.3,-5.499159731860248e-07
3887.2,-5.265399571836025e-07
3888.1,-5.084637196069882e-07
3889.0,-5.003412040332547e-07
3889.9,-4.991141662907471e-07
3890.8,-5.140991948941669e-07
3891.7,-5.394559247403834e-07
3892.6,-5.646287009910753e-07
3893.5,-5.899520018887479e-07
3894.4,-6.093546995803698e-07
3895.3,-6.253510074938077e-07
3896.2,-6.376534870901418e-07
3897.1,-6.506580962520164e-07
3898.0,-6.603207611881535e-07
3898.9,-6.672740629884173e-07
3899.8,-6.743046009767309e-07
3900.7,-6.789514324664242e-07
3901.6,-6.837933614280622e-07
3902.51,-6.832892281308044e-07
3903.41,-6.799026870908869e-07
3904.31,-6.767855292977697e-07
3905.21,-6.746814967440555e-07
3906.11,-6.744308262149891e-07
3907.01,-6.792664727825851e-07
3907.91,-6.903557993808144e-07
3908.81,-7.100533551525487e-07
3909.71,-7.246289187165915e-07
3910.61,-7.445062178889921e-07
3911.51,-7.596865195088481e-07
3912.41,-7.670909705955276e-07
3913.31,-7.691629891778413e-07
3914.21,-7.67104927687346e-07
3915.11,-7.581739658624007e-07
3916.01,-7.509475007276145e-07
3916.91,-7.408426532396618e-07
3917.81,-7.311848666044473e-07
3918.71,-7.195497621214272e-07
3919.61,-7.084853783545688e-07
3920.51,-6.948987647567784e-07
3921.41,-6.86780711896001e-07
3922.31,-6.772178755245935e-07
3923.21,-6.734950386385493e-07
3924.11,-6.63955338704945e-07
3925.01,-6.552498754701514e-07
3925.91,-6.355168292224385e-07
3926.81,-6.079013722617257e-07
3927.71,-5.68612787952638e-07
3928.61,-5.216954654815262e-07
3929.51,-4.7054204855214583e-07
3930.41,-4.139854718737097e-07
3931.31,-3.5950348839554015e-07
3932.21,-3.1008689791906787e-07
3933.11,-2.7275523860753496e-07
3934.01,-2.501759002303038e-07
3934.91,-2.467544962289751e-07
3935.81,-2.61957329642624e-07
3936.71,-2.9628386631207923e-07
3937.61,-3.450212680704831e-07
3938.51,-4.027869913605801e-07
3939.42,-4.5878638774449587e-07
3940.32,-5.121258763892295e-07
3941.22,-5.572821370106728e-07
3942.12,-5.888624401341358e-07
3943.02,-6.1521361077984e-07
3943.92,-6.384344778959477e-07
3944.82,-6.556756589806462e-07
3945.72,-6.783138076151301e-07
3946.62,-6.955449056919549e-07
3947.52,-7.192007138117772e-07
3948.42,-7.334070584100902e-07
3949.32,-7.436102379420086e-07
3950.22,-7.591599732160427e-07
3951.12,-7.634956968524718e-07
3952.02,-7.72847289651415e-07
3952.92,-7.775709434027551e-07
3953.82,-7.818098574828694e-07
3954.72,-7.836781031978287e-07
3955.62,-7.812806569115154e-07
3956.52,-7.815936064126712e-07
3957.42,-7.751718389380648e-07
3958.32,-7.644156812119441e-07
3959.22,-7.515043107618645e-07
3960.12,-7.350648423371823e-07
3961.02,-7.095174718935703e-07
3961.92,-6.709242545725824e-07
3962.82,-6.314015277163772e-07
3963.72,-5.856933508143295e-07
3964.62,-5.334424551507826e-07
3965.52,-4.827078448242739e-07
3966.42,-4.252685342400385e-07
3967.32,-3.7118602763233e-07
3968.22,-3.282716351060777e-07
3969.12,-2.9779953602631646e-07
3970.02,-2.930584659431702e-07
3970.92,-3.105307293777357e-07
3971.82,-3.4577156831404226e-07
3972.72,-3.9661388358932884e-07
3973.62,-4.5581793828793016e-07
3974.52,-5.177789233246031e-07
3975.42,-5.798216714129886e-07
3976.32,-6.300703418309356e-07
3977.22,-6.813942103936068e-07
3978.13,-7.25961256239673e-07
3979.03,-7.686797760809252e-07
3979.93,-7.949852863864018e-07
3980.83,-8.182725537042945e-07
3981.73,-8.330803643417306e-07
3982.63,-8.4589836664509e-07
3983.53,-8.503281347551245e-07
3984.43,-8.593432262884853e-07
3985.33,-8.707903516695198e-07
3986.23,-8.788846465321246e-07
3987.13,-8.918660993720627e-07
3988.03,-9.014556461258188e-07
3988.93,-9.129019405519315e-07
3989.83,-9.217759504358657e-07
3990.73,-9.287274768385207e-07
3991.63,-9.364243667660402e-07
3992.53,-9.461910107492359e-07
3993.43,-9.475878375403466e-07
3994.33,-9.481850277429801e-07
3995.23,-9.441047907434563e-07
3996.13,-9.343513776985585e-07
3997.03,-9.252029394728054e-07
3997.93,-9.266821844545048e-07
3998.83,-9.298477494994316e-07
3999.73,-9.419760910800686e-07
4000.63,-9.54941742078406e-07
4001.53,-9.671281606081948e-07
4002.43,-9.749015925621754e-07
4003.33,-9.771517015381098e-07
4004.23,-9.743175915325458e-07
4005.13,-9.618165346958175e-07
4006.03,-9.504881472524542e-07
4006.93,-9.487779257189471e-07
4007.83,-9.535607884282622e-07
4008.73,-9.65393888363065e-07
4009.63,-9.77254818438e-07
4010.53,-9.93064145151588e-07
4011.43,-1.0032728574525651e-06
4012.33,-1.0147201557411944e-06
4013.23,-1.0187537082654945e-06
4014.13,-1.0165639580866234e-06
4015.03,-1.0221850658892343e-06
4015.93,-1.0254490878122174e-06
4016.84,-1.0284463159782345e-06
4017.74,-1.0265047029010312e-06
4018.64,-1.032809475180331e-06
4019.54,-1.0374687723099296e-06
4020.44,-1.0391398813468527e-06
4021.34,-1.0405606603820145e-06
4022.24,-1.0451705060385558e-06
4023.14,-1.0430100995445783e-06
4024.04,-1.0461433609969082e-06
4024.94,-1.0468841256791711e-06
4025.84,-1.051119112319315e-06
4026.74,-1.0579867217814835e-06
4027.64,-1.0624986361082776e-06
4028.54,-1.0669838495006124e-06
4029.44,-1.0542901021595354e-06
4030.34,-1.0392569544250084e-06
4031.24,-1.0138102035524724e-06
4032.14,-9.975129683505958e-07
4033.04,-9.879367595081236e-07
4033.94,-9.89154211974941e-07
4034.84,-1.0015737038481018e-06
4035.74,-1.022470042716998e-06
4036.64,-1.0451895288515052e-06
4037.54,-1.068777370536865e-06
4038.44,-1.0924591754697574e-06
4039.34,-1.1040389531533967e-06
4040.24,-1.1120085809054548e-06
4041.14,-1.1021958186781463e-06
4042.04,-1.090794720516998e-06
4042.94,-1.0692309850849063e-06
4043.84,-1.0485078319910645e-06
4044.74,-1.024520367679414e-06
4045.64,-1.0063429263751478e-06
4046.54,-9.983774776987335e-07
4047.44,-1.0054975483465071e-06
4048.34,-1.0232929281186303e-06
4049.24,-1.0479702876801032e-06
4050.14,-1.0754540665862122e-06
4051.04,-1.0934738787379301e-06
4051.94,-1.1006743461611516e-06
4052.84,-1.101546911173096e-06
4053.74,-1.0965973809478276e-06
4054.65,-1.0882041351627623e-06
4055.55,-1.0828818495931318e-06
4056.45,-1.0690436872061054e-06
4057.35,-1.0688876831088223e-06
4058.25,-1.067930998930067e-06
4059.15,-1.0745132083590656e-06
4060.05,-1.0717658668656083e-06
4060.95,-1.074013072930809e-06
4061.85,-1.0763027767103632e-06
4062.75,-1.060259091522951e-06
4063.65,-1.0464740694393311e-06
4064.55,-1.0383718891262755e-06
4065.45,-1.038932623376973e-06
4066.35,-1.0426483470227425e-06
4067.25,-1.0540379004651677e-06
4068.15,-1.0691186430792988e-06
4069.05,-1.0835404927443408e-06
4069.95,-1.0945556517726595e-06
4070.85,-1.0977766517162403e-06
4071.75,-1.0932518586896428e-06
4072.65,-1.0917416582815993e-06
4073.55,-1.083037435830213e-06
4074.45,-1.07967938019123e-06
4075.35,-1.0677802737545195e-06
4076.25,-1.053587895746346e-06
4077.15,-1.0410771256806848e-06
4078.05,-1.0310754487291584e-06
4078.95,-1.0286035813116841e-06
4079.85,-1.0424704351682843e-06
4080.75,-1.068066654811626e-06
4081.65,-1.0874379170059508e-06
4082.55,-1.108626832226269e-06
4083.45,-1.1202547979704816e-06
4084.35,-1.1304509825052078e-06
4085.25,-1.1353395432376395e-06
4086.15,-1.1442723609844345e-06
4087.05,-1.1566706967015998e-06
4087.95,-1.1733800171486724e-06
4088.85,-1.186954333406844e-06
4089.75,-1.2028661862079253e-06
4090.65,-1.2079134968728407e-06
4091.55,-1.2108205044379437e-06
4092.45,-1.1982953393689525e-06
4093.36,-1.1911059776536215e-06
4094.26,-1.1775216702010568e-06
4095.16,-1.1566141618735926e-06
4096.06,-1.1289573433515304e-06
4096.96,-1.1032368280412825e-06
4097.86,-1.072747798234825e-06
4098.76,-1.0360236434413675e-06
4099.66,-9.92678359357187e-07
4100.56,-9.543870246989702e-07
4101.46,-9.191490899637983e-07
4102.36,-8.995144014341889e-07
4103.26,-9.045726437345133e-07
4104.16,-9.248883207500606e-07
4105.06,-9.614933104869272e-07
4105.96,-1.0027419199796926e-06
4106.86,-1.0457210856155182e-06
4107.76,-1.0821645630051265e-06
4108.66,-1.1093137127234024e-06
4109.56,-1.124804602283685e-06
4110.46,-1.1383286998898348e-06
4111.36,-1.1491003278367343e-06
4112.26,-1.1631373539062367e-06
4113.16,-1.175442682429253e-06
4114.06,-1.191559884824347e-06
4114.96,-1.2086218357338203e-06
4115.86,-1.2160807291024378e-06
4116.76,-1.2223601240545562e-06
4117.66,-1.2231995572993202e-06
4118.56,-1.2176682253956894e-06
4119.46,-1.2166780656972041e-06
4120.36,-1.20506580371556e-06
4121.26,-1.2061721091466467e-06
4122.16,-1.2061985506504364e-06
4123.06,-1.2100954919626732e-06
4123.96,-1.2144592954169687e-06
4124.86,-1.2280152546783508e-06
4125.76,-1.2268512977247422e-06
4126.66,-1.2313319055172248e-06
4127.56,-1.2289091146499752e-06
4128.46,-1.224464969769184e-06
4129.36,-1.2163536485670264e-06
4130.26,-1.2096081109544831e-06
4131.17,-1.196333628118633e-06
4132.06,-1.1907062606511946e-06
4132.97,-1.18066376521766e-06
4133.87,-1.1779749812469753e-06
4134.77,-1.1859014142660827e-06
4135.67,-1.20058462182184e-06
4136.57,-1.2236627069346651e-06
4137.47,-1.2488796127185727e-06
4138.37,-1.266033785247097e-06
4139.27,-1.2806316534684632e-06
4140.17,-1.2852852988349371e-06
4141.07,-1.279444360107503e-06
4141.97,-1.2610592807862325e-06
4142.87,-1.2430967564130671e-06
4143.77,-1.2204575134024763e-06
4144.67,-1.209776620512007e-06
4145.57,-1.2193078539438943e-06
4146.47,-1.2282163294817587e-06
4147.37,-1.2415404173457867e-06
4148.27,-1.2555870333685556e-06
4149.17,-1.2629728268370944e-06
4150.07,-1.2702460505030856e-06
4150.97,-1.272469662126343e-06
4151.87,-1.2658955079734597e-06
4152.77,-1.2615604667025078e-06
4153.67,-1.2561694745854467e-06
4154.57,-1.2579881641065005e-06
4155.47,-1.257674437937164e-06
4156.37,-1.251860195264451e-06
4157.27,-1.263418581766954e-06
4158.17,-1.2739549039841788e-06
4159.07,-1.284516471572105e-06
4159.97,-1.3064188839566404e-06
4160.87,-1.3165185841739118e-06
4161.77,-1.328489148956221e-06
4162.67,-1.3402244163310655e-06
4163.57,-1.346345287137125e-06
4164.47,-1.3496551201837238e-06
4165.37,-1.3497011515190862e-06
4166.27,-1.3418685882528578e-06
4167.17,-1.3333052737338716e-06
4168.07,-1.329554159670026e-06
4168.98,-1.3167926281903414e-06
4169.88,-1.303266059410512e-06
4170.78,-1.2930433993268447e-06
4171.68,-1.2702619101715524e-06
4172.58,-1.2510370988064303e-06
4173.48,-1.2343097271318672e-06
4174.38,-1.2293559777062187e-06
4175.28,-1.2325008833593238e-06
4176.18,-1.240499338866847e-06
4177.08,-1.2503591538141974e-06
4177.98,-1.2609175712858484e-06
4178.88,-1.2788001158026544e-06
4179.78,-1.288110631772209e-06
4180.68,-1.3025475011384775e-06
4181.58,-1.311321109178883e-06
4182.48,-1.3118735896139522e-06
4183.38,-1.3159625578604705e-06
4184.28,-1.3156563168062397e-06
4185.18,-1.3248032826716796e-06
4186.08,-1.316993543303098e-06
4186.98,-1.3173658677799327e-06
4187.88,-1.313173810975307e-06
4188.78,-1.3181081478962457e-06
4189.68,-1.3199422085306063e-06
4190.58,-1.3265437305750557e-06
4191.48,-1.3399035991154081e-06
4192.38,-1.3474629533890003e-06
4193.28,-1.3626283047790146e-06
4194.18,-1.3689895566047457e-06
4195.08,-1.3654059969164139e-06
4195.98,-1.3590874703502995e-06
4196.88,-1.3387901637641332e-06
4197.78,-1.3168186214586011e-06
4198.68,-1.3029456036879657e-06
4199.58,-1.2874107795773753e-06
4200.48,-1.2859134397205582e-06
4201.38,-1.2802696524473455e-06
4202.28,-1.2870947730522004e-06
4203.18,-1.2972943899566087e-06
4204.08,-1.3153187373096062e-06
4204.98,-1.32048012674691e-06
4205.88,-1.3419960656394667e-06
4206.79,-1.3569272175839363e-06
4207.69,-1.3801390653273285e-06
4208.59,-1.3939130218792924e-06
4209.49,-1.4065910708499105e-06
4210.39,-1.4131728589397349e-06
4211.29,-1.4226486100172256e-06
4212.19,-1.4164112105277012e-06
4213.09,-1.4129946834773763e-06
4213.99,-1.4026029381920158e-06
4214.89,-1.3974480324524229e-06
4215.79,-1.381732823866265e-06
4216.69,-1.3756775647200023e-06
4217.59,-1.38479662800718e-06
4218.49,-1.398562981433152e-06
4219.39,-1.4033867273941606e-06
4220.29,-1.4195518997950402e-06
4221.19,-1.4257999295021049e-06
4222.09,-1.4175384122620199e-06
4222.99,-1.401958125361436e-06
4223.89,-1.3578849467517362e-06
4224.79,-1.3167268600787212e-06
4225.69,-1.2778690372939764e-06
4226.59,-1.2315266923125383e-06
4227.49,-1.2271389296235125e-06
4228.39,-1.2369593309530114e-06
4229.29,-1.267582080955785e-06
4230.19,-1.310310330516887e-06
4231.09,-1.3604322978041844e-06
4231.99,-1.379612275992757e-06
4232.89,-1.4047802681635573e-06
4233.79,-1.4094878422652994e-06
4234.69,-1.4029784351425897e-06
4235.59,-1.3969877848877563e-06
4236.49,-1.3858896239738637e-06
4237.39,-1.3863749719304938e-06
4238.29,-1.3905889974059537e-06
4239.19,-1.3953034694913966e-06
4240.09,-1.4131642268483566e-06
4240.99,-1.4288529333606537e-06
4241.89,-1.44344618955086e-06
4242.79,-1.4566432904658377e-06
4243.69,-1.4659164611952897e-06
4244.59,-1.4757566095598502e-06
4245.5,-1.4748819341445544e-06
4246.4,-1.4613701690176164e-06
4247.3,-1.4516491226581794e-06
4248.2,-1.4337365677572448e-06
4249.1,-1.4204606302268173e-06
4250.0,-1.4064990988614424e-06
4250.9,-1.4064924902142168e-06
4251.8,-1.4160920140402613e-06
4252.7,-1.426065516818833e-06
4253.6,-1.43415662795354e-06
4254.5,-1.4414129253770898e-06
4255.4,-1.4502457368179776e-06
4256.3,-1.4521988938233776e-06
4257.2,-1.4563239726882497e-06
4258.1,-1.4626295202516005e-06
4259.0,-1.4546383771746849e-06
4259.9,-1.4495611146030934e-06
4260.8,-1.441984065402167e-06
4261.7,-1.4466712643786538e-06
4262.6,-1.4616885005251589e-06
4263.5,-1.4844295512334345e-06
4264.4,-1.5123253678533956e-06
4265.3,-1.5340149792775247e-06
4266.2,-1.5444144750484576e-06
4267.1,-1.5440420726223984e-06
4268.0,-1.5327014716925145e-06
4268.9,-1.5099388974431567e-06
4269.8,-1.4770963551299815e-06
4270.7,-1.4439594033434186e-06
4271.6,-1.406406283822305e-06
4272.5,-1.3836063410801052e-06
4273.4,-1.3721578713284342e-06
4274.3,-1.3771220634786168e-06
4275.2,-1.3940071585446096e-06
