wave,flux
3700.85,-9.824166360882834e-05
3701.75,-9.761399157460357e-05
3702.65,-9.553246854828636e-05
3703.55,-9.140537440106168e-05
3704.45,-8.662312066585171e-05
3705.35,-8.27617286028595e-05
3706.25,-8.00334029546135e-05
3707.15,-7.919219415702852e-05
3708.05,-7.951304085333323e-05
3708.96,-8.11087407263236e-05
3709.86,-8.37687047021019e-05
3710.76,-8.777812855090728e-05
3711.66,-9.221778550934769e-05
3712.56,-9.684762195745768e-05
3713.46,-0.000101653711007088
3714.36,-0.00010592543738429983
3715.26,-0.00010859634903163914
3716.16,-0.0001091481144565206
3717.06,-0.00010742250483818725
3717.96,-0.00010346137522688643
3718.86,-9.75372135966669e-05
3719.76,-9.079961419160049e-05
3720.66,-8.435283230629749e-05
3721.56,-8.039683197848508e-05
3722.46,-8.032246134244125e-05
3723.36,-8.31113278640155e-05
3724.26,-8.834945247954156e-05
3725.16,-9.440273918399973e-05
3726.06,-9.992233905273094e-05
3726.96,-0.00010309453824151909
3727.86,-0.0001049112525885017
3728.76,-0.00010600748033883195
3729.66,-0.00010557768068303652
3730.56,-0.0001041975032371508
3731.46,-0.00010128709915621095
3732.36,-9.619082262081337e-05
3733.26,-8.98457104904414e-05
3734.16,-8.326089642788208e-05
3735.06,-7.834100559166618e-05
3735.96,-7.609403765807477e-05
3736.86,-7.700393735837623e-05
3737.76,-8.148288430613237e-05
3738.66,-8.878379238153953e-05
3739.56,-9.680551814994281e-05
3740.46,-0.00010416930765873582
3741.36,-0.0001088673480917095
3742.26,-0.00011163371912418124
3743.16,-0.00011007104262858686
3744.06,-0.00010665869241656497
3744.96,-0.00010203765415268025
3745.86,-9.742521570952148e-05
3746.76,-9.23664068630227e-05
3747.67,-8.825796689731756e-05
3748.57,-8.539293421639246e-05
3749.47,-8.432021061683327e-05
3750.37,-8.682061825822005e-05
3751.27,-9.215566726914265e-05
3752.17,-0.00010063871975441329
3753.07,-0.00011023383516546219
3753.97,-0.00011964074835134031
3754.87,-0.0001270593596642706
3755.77,-0.0001304377840272748
3756.67,-0.00013051256216404367
3757.57,-0.00012807834876022518
3758.47,-0.00012418061924560162
3759.37,-0.00012033572484057671
3760.27,-0.00011909072672683213
3761.17,-0.00012004366243618047
3762.07,-0.00012268616694036127
3762.97,-0.00012609530158221957
3763.87,-0.00012846225458901245
3764.77,-0.00013006818510123857
3765.67,-0.00013036910549758804
3766.57,-0.00013074811841548686
3767.47,-0.00012999705748088572
3768.37,-0.0001300343095086638
3769.27,-0.00013008022972898958
3770.17,-0.00013029420499814052
3771.07,-0.0001326912615578585
3771.97,-0.00013585747349804697
3772.87,-0.0001411681642440979
3773.77,-0.0001463223111237488
3774.67,-0.00015094346264755008
3775.57,-0.00015515197295443178
3776.47,-0.00015837467826397732
3777.37,-0.0001618885629165324
3778.27,-0.0001658410908346858
3779.17,-0.00016944787606073118
3780.07,-0.00017406475623153836
3780.97,-0.0001774060243269923
3781.87,-0.00018081496654459147
3782.77,-0.00018343554273848723
3783.67,-0.0001838398193096958
3784.57,-0.00018270995378717977
3785.47,-0.00017882762480980646
3786.38,-0.0001742223290381017
3787.28,-0.00016882419497508277
3788.18,-0.00016409744600452702
3789.08,-0.00016136166804460358
3789.98,-0.0001603041629509397
3790.88,-0.0001587692816505897
3791.78,-0.0001593955388321169
3792.68,-0.00015862316672847764
3793.58,-0.00015699071110626727
3794.48,-0.00015371066828697967
3795.38,-0.00014927099113337485
3796.28,-0.00014538984551090323
3797.18,-0.00014102372459572706
3798.08,-0.00013848301178493282
3798.98,-0.00013921173467521114
3799.88,-0.00014404814814225115
3800.78,-0.00015214616229178174
3801.68,-0.00016316104312082654
3802.58,-0.00017526767087623654
3803.48,-0.00018574340783401242
3804.38,-0.00019300309001814387
3805.28,-0.00019716178462890463
3806.18,-0.00019971545456980863
3807.08,-0.00020080745727766948
3807.98,-0.00020165044514388163
3808.88,-0.00020288334815462641
3809.78,-0.00020649507888778214
3810.68,-0.00020769968556485976
3811.58,-0.00020732916470444327
3812.48,-0.0002041750878968255
3813.38,-0.00019898495636059006
3814.28,-0.00019249340926797548
3815.18,-0.00018666831480935547
3816.08,-0.0001826551006831469
3816.98,-0.0001804688154534984
3817.88,-0.00018075810830212206
3818.78,-0.00017999946053673507
3819.68,-0.00017846545497698265
3820.58,-0.0001779527383520898
3821.48,-0.00017527153384138273
3822.38,-0.00017455606977882787
3823.28,-0.0001741244133684433
3824.18,-0.00017062767152863445
3825.09,-0.0001672716073149179
3825.99,-0.00016318253386298818
3826.89,-0.00016027096689392117
3827.79,-0.00015755546184192352
3828.69,-0.0001570351735349094
3829.59,-0.00015599166924679182
3830.49,-0.00015516058508512098
3831.39,-0.00015303741089604366
3832.29,-0.00014888295928291068
3833.19,-0.00014451969991680715
3834.09,-0.00014013595925329664
3834.99,-0.00013795310622726558
3835.89,-0.00013746099655693545
3836.79,-0.00013852373633796547
3837.69,-0.0001417271761608671
3838.59,-0.00014512338820396907
3839.49,-0.00015004730901149838
3840.39,-0.00015818192269929628
3841.29,-0.00016865296691466613
3842.19,-0.00018265716570789957
3843.09,-0.00019674781556279118
3843.99,-0.00021086687656650025
3844.89,-0.00022131301065287412
3845.79,-0.00023102930327476633
3846.69,-0.0002383115300676204
3847.59,-0.00024105562294611635
3848.49,-0.0002446245511638876
3849.39,-0.0002446960595179596
3850.29,-0.0002450929535083247
3851.19,-0.0002469492827471976
3852.09,-0.0002481128746150351
3852.99,-0.00024991899511890906
3853.89,-0.00025034644755738333
3854.79,-0.0002504881357546634
3855.69,-0.000247275862858946
3856.59,-0.00024214538794672366
3857.49,-0.00023656542818910068
3858.39,-0.00023141896156326957
3859.29,-0.00022737547701813854
3860.19,-0.00022752671208760254
3861.09,-0.0002309602092733804
3861.99,-0.0002408194612404221
3862.9,-0.0002501828605973031
3863.8,-0.00026149241958369493
3864.7,-0.00027074919930081156
3865.6,-0.000276742923491808
3866.5,-0.0002785619195397958
3867.4,-0.00027920619992406216
3868.3,-0.00027842900986189473
3869.2,-0.00027763519024798266
3870.1,-0.00027217921637504006
3871.0,-0.00026619225005812774
3871.9,-0.0002607823769376904
3872.8,-0.00025858766053559503
3873.7,-0.00025849167913278285
3874.6,-0.0002622025947693936
3875.5,-0.00026594881988928115
3876.4,-0.0002699908482146582
3877.3,-0.0002722837867300615
3878.2,-0.0002712181266669928
3879.1,-0.0002703310019604958
3880.0,-0.00026982527751222887
3880.9,-0.0002707786346297457
3881.8,-0.0002714884683288874
3882.7,-0.000273553006222005
3883.6,-0.0002737948921713701
3884.5,-0.0002708580816043098
3885.4,-0.0002648251577432161
3886.3,-0.00025883002874152954
3887.2,-0.0002503881435331135
3888.1,-0.0002462336593007093
3889.0,-0.00024362181975041663
3889.9,-0.00024709490757892987
3890.8,-0.00025728248667244275
3891.7,-0.0002710013763914089
3892.6,-0.00028523354791349986
3893.5,-0.0002959221536778894
3894.4,-0.00030709230878600335
3895.3,-0.0003148350864798195
3896.2,-0.0003201234898220019
3897.1,-0.00032600942633800086
3898.0,-0.00033135709705984416
3898.9,-0.0003348285647361884
3899.8,-0.0003391879462023728
3900.7,-0.00034047043853553324
3901.6,-0.00034535356906948144
3902.51,-0.0003440221393135411
3903.41,-0.0003447320953883032
3904.31,-0.0003425591634729014
3905.21,-0.0003437966689891508
3906.11,-0.0003424911104243277
3907.01,-0.00034913805265922586
3907.91,-0.0003577135692631571
3908.81,-0.0003694542653872747
3909.71,-0.00038342074856163443
3910.61,-0.00039516143584950036
3911.51,-0.0004053701482587463
3912.41,-0.000411171957644929
3913.31,-0.000416176956317914
3914.21,-0.0004167143291853141
3915.11,-0.0004147378437258695
3916.01,-0.00041121159450624044
3916.91,-0.00040751788437681303
3917.81,-0.0004009311050077967
3918.71,-0.00039399636973620414
3919.61,-0.0003865358643784823
3920.51,-0.00038186162284136984
3921.41,-0.00037409838202278093
3922.31,-0.00037029239092799477
3923.21,-0.00036772276214028476
3924.11,-0.00036443061160423476
3925.01,-0.00036025442711521983
3925.91,-0.0003515268431236706
3926.81,-0.0003360280555652671
3927.71,-0.00031409088733212796
3928.61,-0.0002873009146555859
3929.51,-0.0002570103234109024
3930.41,-0.000226082427857034
3931.31,-0.00019671808904900718
3932.21,-0.00016991024890553437
3933.11,-0.00014978206276025828
3934.01,-0.00013776588853181833
3934.91,-0.0001372097002113962
3935.81,-0.00014749192012963327
3936.71,-0.00016790609444650243
3937.61,-0.00019736390107436577
3938.51,-0.00023147822660290717
3939.42,-0.0002665839994701252
3940.32,-0.0002998429617488234
3941.22,-0.00032892485094165375
3942.12,-0.00035147350601774874
3943.02,-0.00037068419978492285
3943.92,-0.00038650361590333095
3944.82,-0.00040267506764256474
3945.72,-0.00041988764041498404
3946.62,-0.00043695451757325176
3947.52,-0.0004535943994517747
3948.42,-0.0004677074972936065
3949.32,-0.0004843633283226026
3950.22,-0.0004946492443261477
3951.12,-0.0005064303078145499
3952.02,-0.0005152700559203526
3952.92,-0.00052222659627643
3953.82,-0.0005268304067526681
3954.72,-0.0005310740385372253
3955.62,-0.000535279799146759
3956.52,-0.0005353222633948739
3957.42,-0.0005323833751999756
3958.32,-0.000528532802745703
3959.22,-0.0005229285648422807
3960.12,-0.00050942303226525
3961.02,-0.0004888947314424145
3961.92,-0.0004647682631945198
3962.82,-0.00043405544295349336
3963.72,-0.0004019759000092764
3964.62,-0.0003673622478850617
3965.52,-0.0003308402617705357
3966.42,-0.00029342648261046635
3967.32,-0.00025735762772415407
3968.22,-0.0002284443210655883
3969.12,-0.00021137728079239848
3970.02,-0.0002094435271913724
3970.92,-0.0002235448800744311
3971.82,-0.00025167138644241775
3972.72,-0.00029283444951728083
3973.62,-0.0003403791617042784
3974.52,-0.00038876485199845415
3975.42,-0.0004376541736082391
3976.32,-0.0004840688645873761
3977.22,-0.0005273149123739888
3978.13,-0.0005685653523618482
3979.03,-0.0006044271970434337
3979.93,-0.0006288942590177879
3980.83,-0.0006518634966918546
3981.73,-0.0006718116430143187
3982.63,-0.0006809491588568501
3983.53,-0.0006916911978599792
3984.43,-0.000700712583299699
3985.33,-0.0007112207473122723
3986.23,-0.0007255993600675293
3987.13,-0.0007402283429286581
3988.03,-0.0007485948065561851
3988.93,-0.0007624922649024078
3989.83,-0.0007783545108512771
3990.73,-0.0007898561715515076
3991.63,-0.0007991243154814112
3992.53,-0.0008079152567054469
3993.43,-0.0008197477911524216
3994.33,-0.0008203774525692944
3995.23,-0.0008193437642816915
3996.13,-0.0008176841267363797
3997.03,-0.0008106892644420983
3997.93,-0.0008158865804426584
3998.83,-0.0008214691859167067
3999.73,-0.00083567568792568
4000.63,-0.000855208911262992
4001.53,-0.0008692550444983721
4002.43,-0.0008832495452211864
4003.33,-0.0008916094666920982
4004.23,-0.0008874211711687483
4005.13,-0.0008831459189027657
4006.03,-0.0008786259956446827
4006.93,-0.000877062591465187
4007.83,-0.0008841207692713482
4008.73,-0.0009027917215677152
4009.63,-0.0009249437218327387
4010.53,-0.000944224832241641
4011.43,-0.0009600333090479775
4012.33,-0.000971478999999703
4013.23,-0.000986670350268497
4014.13,-0.0009942187096872261
4015.03,-0.001000325194268256
4015.93,-0.0010075974079325491
4016.84,-0.0010198597520298563
4017.74,-0.0010231897151524027
4018.64,-0.0010352240872853458
4019.54,-0.001038565993288566
4020.44,-0.0010503795567350786
4021.34,-0.0010607932505739635
4022.24,-0.0010624330772355962
4023.14,-0.0010687867686101425
4024.04,-0.0010797698067888566
4024.94,-0.0010895999974205907
4025.84,-0.0010957189302971987
4026.74,-0.001110807399383339
4027.64,-0.0011234264014032894
4028.54,-0.0011218904449192182
4029.44,-0.0011222120890977101
4030.34,-0.0011083960855651077
4031.24,-0.001088762206718092
4032.14,-0.0010747652782806085
4033.04,-0.0010648665189725217
4033.94,-0.0010697233788308168
4034.84,-0.0010901513731855703
4035.74,-0.0011199056033119156
4036.64,-0.0011524382380574203
4037.54,-0.001195503768673455
4038.44,-0.0012336063679888034
4039.34,-0.0012562991667636621
4040.24,-0.001269444383732408
4041.14,-0.0012660151912806178
4042.04,-0.0012564301074565755
4042.94,-0.001242346519404204
4043.84,-0.0012111826131574286
4044.74,-0.0011903151973245492
4045.64,-0.0011657575225065605
4046.54,-0.0011606799594970289
4047.44,-0.0011742082722345473
4048.34,-0.001201012873107378
4049.24,-0.0012495601512424322
4050.14,-0.0012925721427037803
4051.04,-0.0013236619855837525
4051.94,-0.001349109823509713
4052.84,-0.0013599301364022607
4053.74,-0.001364893803258073
4054.65,-0.0013626345213576187
4055.55,-0.001354526725920961
4056.45,-0.001347846672120651
4057.35,-0.001355777691361879
4058.25,-0.0013649184721877079
4059.15,-0.0013743630738108801
4060.05,-0.0013819311027611868
4060.95,-0.001390491121820546
4061.85,-0.0013853406230202698
4062.75,-0.0013806990378271195
4063.65,-0.0013676693117000605
4064.55,-0.0013580379189887578
4065.45,-0.0013676654516095112
4066.35,-0.00138179621442331
4067.25,-0.0014101784364490561
4068.15,-0.0014364902227355684
4069.05,-0.0014733202329959328
4069.95,-0.0014945117914356555
4070.85,-0.0015131386899854397
4071.75,-0.0015186340905004687
4072.65,-0.0015195824120494705
4073.55,-0.0015190069584779845
4074.45,-0.0015201046174354194
4075.35,-0.0015217686973890607
4076.25,-0.00150356731551354
4077.15,-0.0014966307510636972
4078.05,-0.0014937507295654225
4078.95,-0.0015108334333654766
4079.85,-0.0015347399060387794
4080.75,-0.001581199038770322
4081.65,-0.0016287138403162148
4082.55,-0.0016678164808049836
4083.45,-0.0017008500857977388
4084.35,-0.0017172111634967625
4085.25,-0.001743610839922296
4086.15,-0.0017748093550426732
4087.05,-0.001803391198517451
4087.95,-0.0018514215831998758
4088.85,-0.0018912651536152451
4089.75,-0.0019230352290166227
4090.65,-0.0019423891876265015
4091.55,-0.001959540341318774
4092.45,-0.0019611634658016886
4093.36,-0.0019522431425011116
4094.26,-0.0019464182551990551
4095.16,-0.0019155522542609346
4096.06,-0.0018985423665344088
4096.96,-0.0018593062676249459
4097.86,-0.00182193792087
4098.76,-0.0017767520514022637
4099.66,-0.0017288046772437444
4100.56,-0.0016741786386727429
4101.46,-0.0016333821227226771
4102.36,-0.0016156535491693798
4103.26,-0.0016315935946673986
4104.16,-0.0016769702263448167
4105.06,-0.0017454154711386437
4105.96,-0.001825771049447826
4106.86,-0.001908804192692056
4107.76,-0.0019820509387055677
4108.66,-0.0020361184628572967
4109.56,-0.0020796931205588156
4110.46,-0.0020969561803387327
4111.36,-0.002128315748703128
4112.26,-0.002154495144683579
4113.16,-0.0021935615006115406
4114.06,-0.002241726043094611
4114.96,-0.002274819840459952
4115.86,-0.002312430637438994
4116.76,-0.002333599328546984
4117.66,-0.002340545197456041
4118.56,-0.002347236493483609
4119.46,-0.002354543267660008
4120.36,-0.0023528958233047753
4121.26,-0.002362672840245179
4122.16,-0.002375044166682909
4123.06,-0.00239625598082305
4123.96,-0.002422868166071151
4124.86,-0.0024527747135343805
4125.76,-0.0024836731391842315
4126.66,-0.002503095168308492
4127.56,-0.0025008745892541183
4128.46,-0.002499444508680255
4129.36,-0.0025009974449802666
4130.26,-0.0025106662432506648
4131.17,-0.0024871929483146933
4132.06,-0.0024739414731551512
4132.97,-0.002481648399392673
4133.87,-0.002485050526947834
4134.77,-0.002513827227102399
4135.67,-0.00256812634739621
4136.57,-0.0026413101963474023
4137.47,-0.0027029757893826216
4138.37,-0.002769699127640439
4139.27,-0.0028346487870303957
4140.17,-0.0028538918714329235
4141.07,-0.0028359654162485527
4141.97,-0.002823211760349035
4142.87,-0.002779226412639847
4143.77,-0.002749455667975586
4144.67,-0.0027337704383031264
4145.57,-0.002764735527937966
4146.47,-0.0028162827468614926
4147.37,-0.0028752843505256936
4148.27,-0.0029348943135005866
4149.17,-0.002977615449383356
4150.07,-0.0030122717631424914
4150.97,-0.0030411164851028186
4151.87,-0.0030378810070855566
4152.77,-0.003054479007663384
4153.67,-0.003059830767137592
4154.57,-0.0030750326207459196
4155.47,-0.003094043039978169
4156.37,-0.0031108000353233705
4157.27,-0.0031651880921284405
4158.17,-0.0032272046570811738
4159.07,-0.003269569213598972
4159.97,-0.0033371004117927166
4160.87,-0.003389713316516326
4161.77,-0.00346302526646965
4162.67,-0.003493293826793721
4163.57,-0.003532038969306227
4164.47,-0.0035726768450519094
4165.37,-0.0035720281586022486
4166.27,-0.0035819777074140263
4167.17,-0.00358195149611259
4168.07,-0.003586651877768978
4168.98,-0.003595554581833225
4169.88,-0.0035891016375326126
4170.78,-0.0035486571644516946
4171.68,-0.0035274833336339734
4172.58,-0.0035016502620955616
4173.48,-0.0034684728378906234
4174.38,-0.00347435848809341
4175.28,-0.003490427477499017
4176.18,-0.003545766491210234
4177.08,-0.0036110157877007674
4177.98,-0.0036814526065713613
4178.88,-0.0037422134634474747
4179.78,-0.0038243016298224646
4180.68,-0.003865437560852443
4181.58,-0.00392258289452795
4182.48,-0.003964970316351088
4183.38,-0.003998297542696777
4184.28,-0.0040216840179376654
4185.18,-0.004054470761440177
4186.08,-0.004064713954500199
4186.98,-0.00409010656629919
4187.88,-0.004113881100746575
4188.78,-0.004141450646633265
4189.68,-0.004184592803656959
4190.58,-0.004239064660637804
4191.48,-0.004314920721492003
4192.38,-0.004379332051855762
4193.28,-0.004443606826877503
4194.18,-0.004481953183623188
4195.08,-0.0045204354835558045
4195.98,-0.004508827183502756
4196.88,-0.0044806235672384
4197.78,-0.004426045305553887
4198.68,-0.004394927948261046
4199.58,-0.004374073532662409
4200.48,-0.0043718335531849825
4201.38,-0.0044126366443395055
4202.28,-0.0044466661619709255
4203.18,-0.004527651393836406
4204.08,-0.004622266694469574
4204.98,-0.004717138707752541
4205.88,-0.00483856105313598
4206.79,-0.004928969459533316
4207.69,-0.0050377103602571895
4208.59,-0.005142804123681361
4209.49,-0.00521282493126844
4210.39,-0.005295626865897511
4211.29,-0.005342916415453259
4212.19,-0.005388713688586541
4213.09,-0.005400307185436183
4213.99,-0.005395444771159269
4214.89,-0.0053817978627053115
4215.79,-0.005394978889336636
4216.69,-0.005389842861908536
4217.59,-0.005437326750485774
4218.49,-0.005519352163330946
4219.39,-0.005606961159843055
4220.29,-0.005718821292605251
4221.19,-0.0057927077649102265
4222.09,-0.005782190509992125
4222.99,-0.005730297452885274
4223.89,-0.005613646429618587
4224.79,-0.005427412961691886
4225.69,-0.005233156849016613
4226.59,-0.005112322025836326
4227.49,-0.005067818444856712
4228.39,-0.005162026271330321
4229.29,-0.005353200114806621
4230.19,-0.005622137017850984
4231.09,-0.00588259416467685
4231.99,-0.0060864098288660054
4232.89,-0.006248507645682863
4233.79,-0.0063190361361051255
4234.69,-0.00634124238457524
4235.59,-0.006351828338593607
4236.49,-0.006363611856845033
4237.39,-0.006398450251762279
4238.29,-0.006453700445876344
4239.19,-0.006512418448491247
4240.09,-0.006675322175859538
4240.99,-0.006786571424028884
4241.89,-0.0069355989872376825
4242.79,-0.007040808347287018
4243.69,-0.0071744275840904224
4244.59,-0.007276943798895389
4245.5,-0.007350550686868602
4246.4,-0.007370744585774515
4247.3,-0.007317513613821251
4248.2,-0.0072815343031094985
4249.1,-0.0072035154678346605
4250.0,-0.0071952501207388775
4250.9,-0.007265156445969716
4251.8,-0.00734077306049577
4252.7,-0.007427645279787194
4253.6,-0.007538224526057308
4254.5,-0.007623630299763697
4255.4,-0.00774079805561727
4256.3,-0.007840172623742267
4257.2,-0.007923860130943343
4258.1,-0.007964228169779985
4259.0,-0.008022041585148427
4259.9,-0.008041953210366342
4260.8,-0.008042749260941335
4261.7,-0.00816258106216487
4262.6,-0.008325326204404597
4263.5,-0.00857611763351083
4264.4,-0.008759888623185996
4265.3,-0.008965746288264367
4266.2,-0.009159054674481363
4267.1,-0.00922852024495259
4268.0,-0.009234657011832561
4268.9,-0.009126811488039305
4269.8,-0.008939839141161825
4270.7,-0.008799074411032873
4271.6,-0.008601798378090544
4272.5,-0.008513367936651106
4273.4,-0.008449306604319987
4274.3,-0.00852863903897935
4275.2,-0.008732429688149171
4276.1,-0.00905518795712803
4277.0,-0.00931426132717682
4277.9,-0.009633271842873213
4278.8,-0.009875298586010047
4279.7,-0.010038116210748403
4280.6,-0.010116693634673393
4281.5,-0.01020157297789592
4282.4,-0.01027662770065079
4283.31,-0.010247366628063012
4284.21,-0.010283827113221547
