wave,flux
3700.85,-0.05142157944274158
3701.75,-0.05150105428332574
3702.65,-0.05097840714164715
3703.55,-0.04957325070134884
3704.45,-0.04792603455623507
3705.35,-0.04612195079086628
3706.25,-0.045245267750529485
3707.15,-0.045078739299553416
3708.05,-0.04642792331114895
3708.96,-0.04818671972655388
3709.86,-0.05102109936661767
3710.76,-0.05391353477610741
3711.66,-0.0576226125930982
3712.56,-0.06212291605651403
3713.46,-0.06607370204856253
3714.36,-0.07046607772936035
3715.26,-0.07322107079372714
3716.16,-0.07477439075359107
3717.06,-0.07441045801144283
3717.96,-0.07309602640119754
3718.86,-0.06982601476919355
3719.76,-0.06553783847595072
3720.66,-0.06238847607218013
3721.56,-0.06035494479221054
3722.46,-0.06137648487377827
3723.36,-0.06493406303065521
3724.26,-0.07050907587666898
3725.16,-0.07677920164210321
3726.06,-0.08278286223307683
3726.96,-0.08760987750193502
3727.86,-0.09081087661790405
3728.76,-0.0929151708426986
3729.66,-0.09439885711557085
3730.56,-0.09535852947077354
3731.46,-0.09441731165746137
3732.36,-0.09147716581448212
3733.26,-0.08713054533314223
3734.16,-0.08206429506305996
3735.06,-0.07868108062388215
3735.96,-0.07782443387515603
3736.86,-0.08070314620103695
3737.76,-0.08772772911862979
3738.66,-0.09774463654754906
3739.56,-0.10967119563587194
3740.46,-0.1203807792907547
3741.36,-0.1292739923796992
3742.26,-0.13520392309055249
3743.16,-0.13644073649226887
3744.06,-0.13586564490996575
3744.96,-0.1325157389338162
3745.86,-0.12978784087945336
3746.76,-0.12632488601194328
3747.67,-0.12336174467679323
3748.57,-0.12254504969133143
3749.47,-0.12464855457610724
3750.37,-0.13223981378987257
3751.27,-0.14459839080725892
3752.17,-0.1631361126789174
3753.07,-0.18401166203897568
3753.97,-0.20618076700673524
3754.87,-0.22637804307789028
3755.77,-0.23998968762464035
3756.67,-0.24688424835712638
3757.57,-0.24821179203980107
3758.47,-0.24812083784631297
3759.37,-0.249671623548339
3760.27,-0.25438109452942215
3761.17,-0.26672442272596597
3762.07,-0.2818215798101542
3762.97,-0.29951252773919274
3763.87,-0.31841608002527405
3764.77,-0.3348715686776963
3765.67,-0.3525659147904948
3766.57,-0.3689625442743294
3767.47,-0.3805703091161301
3768.37,-0.39728029042440505
3769.27,-0.41654780193284036
3770.17,-0.4414392997161093
3771.07,-0.47109339286512175
3771.97,-0.5116177833434755
3772.87,-0.5566519894437354
3773.77,-0.6120379807801645
3774.67,-0.6677173209222798
3775.57,-0.7290575615863754
3776.47,-0.794680706768748
3777.37,-0.8650956325455353
3778.27,-0.9516272607141648
3779.17,-1.0475067694509288
3780.07,-1.166730926976019
3780.97,-1.3031376537491661
3781.87,-1.457732012938883
3782.77,-1.6349443359426818
3783.67,-1.846103057353758
3784.57,-2.0684367557309447
3785.47,-2.3475610710208348
3786.38,-2.688341230627098
3787.28,-3.1670226131790518
3788.18,-3.9116972770851697
3789.08,-5.233976282553003
3789.98,-8.141012974768795
3790.88,-18.604237008554776
3791.78,68.54462180031159
3792.68,12.127266993896052
3793.58,6.615225817652857
3794.48,4.511147791380531
3795.38,3.3552064503059222
3796.28,2.640394673231151
3797.18,2.167905962286477
3798.08,1.8557386528087694
3798.98,1.648770181486991
3799.88,1.5257008082502725
3800.78,1.4706104176398707
3801.68,1.4431496846688543
3802.58,1.4315499456683405
3803.48,1.412806219905482
3804.38,1.37468152648839
3805.28,1.3255722404109935
3806.18,1.2651277865491535
3807.08,1.200135084572086
3807.98,1.1453443433850685
3808.88,1.1032303168005446
3809.78,1.0658357700177246
3810.68,1.0330726162938628
3811.58,0.9944363931217682
3812.48,0.9432332821247562
3813.38,0.8818880537807743
3814.28,0.8206027132726974
3815.18,0.7704480333128365
3816.08,0.7308442742585217
3816.98,0.7020696513772272
3817.88,0.6800192918644831
3818.78,0.6598830431923957
3819.68,0.6405193430416469
3820.58,0.6167447408513161
3821.48,0.5975102165564057
3822.38,0.5811986274691732
3823.28,0.5612370178859364
3824.18,0.541727304767672
3825.09,0.520235622658983
3825.99,0.4958859169523666
3826.89,0.4762003621433841
3827.79,0.4573947788878077
3828.69,0.4497100082038433
3829.59,0.4393217716946429
3830.49,0.4304065013817378
3831.39,0.41729072249211785
3832.29,0.3993141517768011
3833.19,0.38162650962049116
3834.09,0.36788768522393056
3834.99,0.3547270224555722
3835.89,0.35048087830863417
3836.79,0.34963957393442935
3837.69,0.34940526621099194
3838.59,0.3541861217727539
3839.49,0.3625089197411595
3840.39,0.3757276740460185
3841.29,0.39678939473817604
3842.19,0.4229720648697183
3843.09,0.4532345797416697
3843.99,0.47968688578474694
3844.89,0.5030853447925918
3845.79,0.5163944525077159
3846.69,0.5289222759316613
3847.59,0.5314095624710848
3848.49,0.5318507886530935
3849.39,0.5288635150741045
3850.29,0.5258235108498205
3851.19,0.5222229966812764
3852.09,0.5206115991383454
3852.99,0.5221231497791428
3853.89,0.5169717044626463
3854.79,0.5100320497107502
3855.69,0.4997427238640883
3856.59,0.4853917314093109
3857.49,0.4698887956734425
3858.39,0.4558921364631343
3859.29,0.4444484479060354
3860.19,0.44270865508328494
3861.09,0.4457069354787617
3861.99,0.46133957587308233
3862.9,0.48053136182595224
3863.8,0.4996222791622981
3864.7,0.5121532562247987
3865.6,0.5197234454556282
3866.5,0.5231324169262315
3867.4,0.5195118522607404
3868.3,0.5126364848146119
3869.2,0.506391535611906
3870.1,0.49533192835083273
3871.0,0.4815265461457135
3871.9,0.4713570414417908
3872.8,0.4631589249653408
3873.7,0.46310615460358623
3874.6,0.46666674122550844
3875.5,0.4754438208229519
3876.4,0.4791203423267223
3877.3,0.4807220446547603
3878.2,0.4767743743125913
3879.1,0.4709908988779355
3880.0,0.46939596574636616
3880.9,0.4671094972844746
3881.8,0.4694527125369135
3882.7,0.4702676605879553
3883.6,0.4684683694444049
3884.5,0.4621894233674947
3885.4,0.45175022194126896
3886.3,0.4364261462770385
3887.2,0.42447886990413886
3888.1,0.414838333556671
3889.0,0.4102813785926055
3889.9,0.4174360741295854
3890.8,0.4312985113072241
3891.7,0.4546237933236089
3892.6,0.47777328542599495
3893.5,0.49609755750030105
3894.4,0.5119318826163451
3895.3,0.5208202809035598
3896.2,0.5293817787653657
3897.1,0.5378922379742962
3898.0,0.5415172216458684
3898.9,0.549349371761817
3899.8,0.5524239959612951
3900.7,0.5557765674916337
3901.6,0.5596107173452225
3902.51,0.5600165069320888
3903.41,0.5543216420614953
3904.31,0.553826823112306
3905.21,0.5473680131786709
3906.11,0.5492125020977715
3907.01,0.555196769902297
3907.91,0.5700689502218808
3908.81,0.5893144076615584
3909.71,0.6070302934281331
3910.61,0.6245362373445372
3911.51,0.6418715373192885
3912.41,0.6498809012114063
3913.31,0.6547049036060002
3914.21,0.6526757734318812
3915.11,0.6499574215252067
3916.01,0.6424143564697685
3916.91,0.6346504368829964
3917.81,0.6247342558359723
3918.71,0.6097195718788508
3919.61,0.5972319127954281
3920.51,0.5841364604453093
3921.41,0.5715561427212567
3922.31,0.5625464545052513
3923.21,0.5590247646890718
3924.11,0.5529282593951823
3925.01,0.543832978283997
3925.91,0.5300721118099937
3926.81,0.5040579626339192
3927.71,0.4690005318053566
3928.61,0.42737008205650967
3929.51,0.381868473291448
3930.41,0.33510580518455557
3931.31,0.2910867273732649
3932.21,0.2513721486635632
3933.11,0.22046065072299137
3934.01,0.20431620310891274
3934.91,0.20181555974167206
3935.81,0.21672900964677252
3936.71,0.2448309354885627
3937.61,0.28722853407559595
3938.51,0.3350041785563331
3939.42,0.38699483485822883
3940.32,0.4318560841728121
3941.22,0.4716928829897742
3942.12,0.5010582646648494
3943.02,0.5296117896083322
3943.92,0.5517627950084545
3944.82,0.5731864736668796
3945.72,0.597300132918347
3946.62,0.6197345931507036
3947.52,0.6423391723913703
3948.42,0.665737265033257
3949.32,0.6816924420872655
3950.22,0.6973842943917387
3951.12,0.7113538810525707
3952.02,0.7195949008470822
3952.92,0.7275666276057878
3953.82,0.7361466390503267
3954.72,0.7359158715605941
3955.62,0.7376738168700584
3956.52,0.7345266539811276
3957.42,0.7299467407427611
3958.32,0.7223826083335526
3959.22,0.7073795271854608
3960.12,0.6849256100121502
3961.02,0.6588664717224374
3961.92,0.622047860834468
3962.82,0.579771594260285
3963.72,0.5335634142588965
3964.62,0.4842934415097105
3965.52,0.43307956588350477
3966.42,0.38331537269868365
3967.32,0.3359966918602918
3968.22,0.2973209052827716
3969.12,0.27542471150452963
3970.02,0.2726509268708911
3970.92,0.2897805267590753
3971.82,0.3259661842007012
3972.72,0.37521909797272185
3973.62,0.43638868504733846
3974.52,0.49592567428138323
3975.42,0.5560381464552467
3976.32,0.6145847224953553
3977.22,0.665772325944335
3978.13,0.7124973299145511
3979.03,0.7544321242642482
3979.93,0.7892449467840824
3980.83,0.8113051480449706
3981.73,0.8289282637944179
3982.63,0.8409764930234145
3983.53,0.8481065739754586
3984.43,0.8558622334390404
3985.33,0.8667447104757333
3986.23,0.8755511255905501
3987.13,0.8896291004392167
3988.03,0.8988009505319641
3988.93,0.9137422815875598
3989.83,0.9215112331934417
3990.73,0.9339877434585793
3991.63,0.9454407478186637
3992.53,0.95145243853926
3993.43,0.9553937142422373
3994.33,0.953640645896847
3995.23,0.9453072084358606
3996.13,0.9397816514601381
3997.03,0.9299797951486152
3997.93,0.9259746616827813
3998.83,0.931749686387676
3999.73,0.9461426434106182
4000.63,0.9545454753791236
4001.53,0.9723507871010318
4002.43,0.9777257830773598
4003.33,0.9836744781402813
4004.23,0.9778548936533848
4005.13,0.9646634513051682
4006.03,0.9499915597275813
4006.93,0.9459386369796172
4007.83,0.9434889689344359
4008.73,0.9609629412263399
4009.63,0.9815013720749899
4010.53,0.9964328463448783
4011.43,1.0072833850032485
4012.33,1.0136600689485826
4013.23,1.0236411681138056
4014.13,1.0242975029520207
4015.03,1.0271793274724117
4015.93,1.027716899448451
4016.84,1.0281168288939397
4017.74,1.0297479479122194
4018.64,1.0345484191168584
4019.54,1.0329201827024526
4020.44,1.037497482031784
4021.34,1.0406664751355106
4022.24,1.0403279504569949
4023.14,1.037915942045019
4024.04,1.040390624545633
4024.94,1.0397436490007805
4025.84,1.0437667013950378
4026.74,1.0463807311938773
4027.64,1.0546622660520182
4028.54,1.0475489645339726
4029.44,1.0375339353122752
4030.34,1.0201390066431244
4031.24,0.9947576466596834
4032.14,0.9730029211007627
4033.04,0.9535490062375214
4033.94,0.9516552515271046
4034.84,0.9626202579440668
4035.74,0.9811890109128714
4036.64,1.0119453206424478
4037.54,1.0423955005824117
4038.44,1.062041851680051
4039.34,1.0734858134298
4040.24,1.07932755670243
4041.14,1.0733318136762777
4042.04,1.0556742574020914
4042.94,1.0333169125700261
4043.84,1.0052174887786625
4044.74,0.972155006248726
4045.64,0.9487996559248819
4046.54,0.9390568656112844
4047.44,0.9398836217307391
4048.34,0.9563358339971805
4049.24,0.9903771989815982
4050.14,1.0143637832962382
4051.04,1.0395277155718234
4051.94,1.0485478865279854
4052.84,1.0452916667569196
4053.74,1.0427949995562344
4054.65,1.0296860214972472
4055.55,1.0221808800068533
4056.45,1.006498878090104
4057.35,1.0036511483514683
4058.25,1.000193702694057
4059.15,0.9987575765745951
4060.05,0.9983539676564972
4060.95,1.0002953372167347
4061.85,0.9888276030347278
4062.75,0.9739213467048752
4063.65,0.958478133568343
4064.55,0.9486688432314798
4065.45,0.9402286945434676
4066.35,0.9474997169989345
4067.25,0.9590630251450375
4068.15,0.9764920616504549
4069.05,0.9915009197088955
4069.95,0.9973468306551014
4070.85,1.0031271743655241
4071.75,1.000310257297487
4072.65,0.9917900176663551
4073.55,0.9870772752345212
4074.45,0.9773215004738162
4075.35,0.9700158642165727
4076.25,0.9555642834636793
4077.15,0.9398828192966061
4078.05,0.932500396282898
4078.95,0.9355658642815404
4079.85,0.9460334303830997
4080.75,0.9645380890260792
4081.65,0.9848571290436766
4082.55,1.0020225043886672
4083.45,1.0144767104554757
4084.35,1.020233593023913
4085.25,1.027386086222606
4086.15,1.0306022273720297
4087.05,1.0514100720628887
4087.95,1.0606352862564215
4088.85,1.0771614838983132
4089.75,1.0938865884861717
4090.65,1.094009442611758
4091.55,1.0927415464253525
4092.45,1.083275852520748
4093.36,1.0719430987646663
4094.26,1.0580635248083488
4095.16,1.043187317628563
4096.06,1.0160813449085628
4096.96,0.9937156787648307
4097.86,0.9606911980312464
4098.76,0.9296303507657396
4099.66,0.8974861378457756
4100.56,0.8630337655124238
4101.46,0.8361944469519277
4102.36,0.8204746268206123
4103.26,0.8201726051379542
4104.16,0.835797895049053
4105.06,0.8687109981674483
4105.96,0.9005885397490972
4106.86,0.9330801507877986
4107.76,0.9621475475493614
4108.66,0.9789774060848516
4109.56,0.989905269464558
4110.46,0.9958422670118287
4111.36,0.9988641609530844
4112.26,1.0067177060830386
4113.16,1.0134600857871279
4114.06,1.0265117492314237
4114.96,1.0412036819030057
4115.86,1.0433447362403447
4116.76,1.0488282987210715
4117.66,1.0433651471922119
4118.56,1.0323089476784648
4119.46,1.029042436922896
4120.36,1.0191814967405333
4121.26,1.0141446923277964
4122.16,1.0166214026119686
4123.06,1.0215352576940366
4123.96,1.0207554470760292
4124.86,1.02214959750181
4125.76,1.0278792378266812
4126.66,1.0263374294996976
4127.56,1.023594429061179
4128.46,1.0143257517893294
4129.36,1.0054940053491406
4130.26,0.9934097374164939
4131.17,0.9805484509871701
4132.06,0.9663903508251832
4132.97,0.9581945182953703
4133.87,0.9568587714759176
4134.77,0.963903014604244
4135.67,0.9754814807582611
4136.57,0.9969069080281054
4137.47,1.0188102962483288
4138.37,1.0348262338760315
4139.27,1.0412223164311207
4140.17,1.043683732503888
4141.07,1.033690607090632
4141.97,1.0113526803397985
4142.87,0.995023638822149
4143.77,0.9713466592065365
4144.67,0.9630348459780128
4145.57,0.9663524310518605
4146.47,0.9767250338406553
4147.37,0.9917332197730894
4148.27,1.0042801247015667
4149.17,1.0113696251879172
4150.07,1.0109003274881374
4150.97,1.0094421762803911
4151.87,1.0081517655797283
4152.77,0.9997222929053515
4153.67,0.993141955899897
4154.57,0.9876751828866691
4155.47,0.9913668814640416
4156.37,0.9905465952987322
4157.27,0.9944162183437508
4158.17,1.0099724882309844
4159.07,1.0223854317887335
4159.97,1.031444104095621
4160.87,1.0456179935082104
4161.77,1.0532808451317968
4162.67,1.0565873958532692
4163.57,1.0662738227874986
4164.47,1.0633914455016897
4165.37,1.056410334154615
4166.27,1.055597842807678
4167.17,1.0458402431834328
4168.07,1.0347188114157277
4168.98,1.0250791349425457
4169.88,1.0160748163897253
4170.78,1.0060203150305909
4171.68,0.9840534919705766
4172.58,0.9696784971779353
4173.48,0.9541968668931421
4174.38,0.945627655267787
4175.28,0.9439753183244128
4176.18,0.9543666997123844
4177.08,0.9588555415402927
4177.98,0.9725464126291892
4178.88,0.9822356148943312
4179.78,0.9877621598236925
4180.68,0.9985331292706425
4181.58,1.0057740497465615
4182.48,1.0074713003959452
4183.38,1.0114518038677889
4184.28,1.0117883583840601
4185.18,1.0092186823794858
4186.08,1.0086132422300456
4186.98,1.007642749037632
4187.88,0.9953852026348832
4188.78,1.0012081713430347
4189.68,1.002054223945623
4190.58,1.0047103124647583
4191.48,1.0214433308275377
4192.38,1.023640554212547
4193.28,1.034505470329166
4194.18,1.0361342899836528
4195.08,1.0329828702269783
4195.98,1.0180239683528975
4196.88,1.0064093105299825
4197.78,0.9842478174329867
4198.68,0.9711791102609102
4199.58,0.961992675389549
4200.48,0.9551473247965766
4201.38,0.9535251110401959
4202.28,0.9573996626872818
4203.18,0.9620802639403687
4204.08,0.9802769697658933
4204.98,0.9918142489363928
4205.88,1.008707781425186
4206.79,1.019153318130034
4207.69,1.0381100485807886
4208.59,1.0491644157416455
4209.49,1.0599090921556762
4210.39,1.0627373053433018
4211.29,1.068140423385118
4212.19,1.064703722437074
4213.09,1.0582609746770426
4213.99,1.0483783651105252
4214.89,1.0383799797977398
4215.79,1.030305221402353
4216.69,1.0238890446776028
4217.59,1.0338077320713868
4218.49,1.0396474329124246
4219.39,1.0477509504334872
4220.29,1.0607050877927868
4221.19,1.0612831737577413
4222.09,1.0528633123189524
4222.99,1.0288579821144281
4223.89,0.9979808828294074
4224.79,0.9539664489070029
4225.69,0.9140660320777173
4226.59,0.8807165333449724
4227.49,0.8710480994296179
4228.39,0.873635563138335
4229.29,0.9054154295252272
4230.19,0.9421943578829994
4231.09,0.9784057669562817
4231.99,1.008635338501544
4232.89,1.026105841780807
4233.79,1.0285805348457977
4234.69,1.026446569501074
4235.59,1.0169320741727434
4236.49,1.0110391103140104
4237.39,1.007090175195709
4238.29,1.0074751755394031
4239.19,1.013013243858989
4240.09,1.0220808516474444
4240.99,1.0362567599359613
4241.89,1.0491325660153787
4242.79,1.0635879334181395
4243.69,1.074238471622337
4244.59,1.0752582864456817
4245.5,1.0744785377408068
4246.4,1.0683507800322505
4247.3,1.0538776144943507
4248.2,1.0403682447957856
4249.1,1.0207928430387205
4250.0,1.0103571048306004
4250.9,1.0074875165395851
4251.8,1.0038994437701678
4252.7,1.0131233994351598
4253.6,1.0187422107700865
4254.5,1.021515567212209
4255.4,1.0282140418058132
4256.3,1.0334861063532854
4257.2,1.030665334349582
4258.1,1.0354842203759267
4259.0,1.0248824302556068
4259.9,1.0220835062377167
4260.8,1.0164305392331612
4261.7,1.015906035278698
4262.6,1.027240914217537
4263.5,1.050877992583251
4264.4,1.0694233562447537
4265.3,1.0856100514947034
4266.2,1.0974651991964175
4267.1,1.0891688292514514
4268.0,1.0777925458995485
4268.9,1.0630076151494932
4269.8,1.0293181836082212
4270.7,1.0028389321281408
4271.6,0.9662688122063607
4272.5,0.9473166986284115
4273.4,0.9365673150330374
4274.3,0.9385124156535755
4275.2,0.9554525191594706
4276.1,0.9716698183115389
4277.0,0.9948314271482185
4277.9,1.0192394277917964
4278.8,1.0368421391613343
4279.7,1.0476401944037468
4280.6,1.0488948766854906
4281.5,1.0443321557431924
4282.4,1.0375116901966064
4283.31,1.032703923113526
4284.21,1.0235594698371413
4285.11,1.020096473722405
4286.01,1.0046896028239636
4286.91,0.9863742777514148
4287.81,0.9712242464749129
4288.71,0.9577074781895297
4289.61,0.9379479988096737
4290.51,0.9351336293932554
4291.41,0.9318707317728142
4292.31,0.9396911175835645
4293.21,0.9465663435953614
4294.11,0.9586687530623011
4295.01,0.959392465704446
4295.91,0.9550240761524367
4296.81,0.9400016700106943
4297.71,0.9123162579347995
4298.61,0.8802717157001311
4299.51,0.8478000211720746
4300.41,0.8168107259970663
4301.31,0.7949860433560109
4302.21,0.7850403548832813
4303.11,0.7800456246447113
4304.01,0.7814662274866683
4304.91,0.7808610330075857
4305.81,0.7789401177532422
4306.71,0.7713575066436222
4307.61,0.7657264228270314
4308.51,0.7576459422068096
4309.41,0.760851060070955
4310.31,0.7644219757473973
4311.21,0.7840804028253779
4312.11,0.814164734997253
4313.01,0.8503238194416914
4313.91,0.8970936941471848
4314.81,0.952451240049864
4315.71,1.0078926095107252
4316.61,1.0582821198018664
4317.51,1.105461756712683
4318.41,1.136648109150232
4319.31,1.1511143301553266
4320.21,1.1581617545408232
4321.12,1.1404016844561695
4322.02,1.1117341575703348
4322.92,1.076476785983248
4323.82,1.0359874906252309
4324.72,0.9996769328504503
4325.62,0.9750509167307224
4326.52,0.9685177993715955
4327.42,0.9782692397754335
4328.32,1.008548950051449
4329.22,1.0400505206186421
4330.12,1.0684408182172023
4331.02,1.0937790922158868
4331.92,1.1150052350994355
4332.82,1.1237580235049092
4333.72,1.1258217914089033
4334.62,1.1140833610190097
4335.52,1.0997977627496343
4336.42,1.0665051021071565
4337.32,1.0274200164047738
4338.22,0.9827195907612963
4339.12,0.9349636739956867
4340.02,0.9005186955616975
4340.92,0.8770204565823636
4341.82,0.8752152764116556
4342.72,0.8927710302604247
4343.62,0.920033827051164
4344.52,0.956131610686867
4345.42,0.9959858358996819
4346.32,1.0275471112202463
4347.22,1.0515223435741856
4348.12,1.068197247736921
4349.02,1.0701012999769606
4349.92,1.0683778584923465
4350.82,1.0595354125795873
4351.72,1.047566867755604
4352.62,1.0339961814074683
4353.52,1.0253419130383061
4354.42,1.0276264382573725
4355.32,1.0330145057326456
4356.22,1.044507597176412
4357.12,1.0529027934900972
4358.02,1.0649983610266118
4358.92,1.0742603960624677
4359.83,1.0847162474418333
4360.73,1.0847217482305997
4361.63,1.0955455368042464
4362.53,1.1044794394140254
4363.43,1.111683515508384
4364.33,1.1167530794569365
4365.23,1.1216984402179437
4366.13,1.116369539695562
