wave,flux
3700.85,-2.2289235167758717e-07
3701.75,-2.169250715664302e-07
3702.65,-2.0677091123318178e-07
3703.55,-1.9082115708450125e-07
3704.45,-1.7393330090111119e-07
3705.35,-1.5765565131574654e-07
3706.25,-1.448889403694858e-07
3707.15,-1.374237122904646e-07
3708.05,-1.3640258848953263e-07
3708.96,-1.4104655480600686e-07
3709.86,-1.5169496749195456e-07
3710.76,-1.676542212440918e-07
3711.66,-1.8687121515402793e-07
3712.56,-2.0457648920293122e-07
3713.46,-2.1852128934062942e-07
3714.36,-2.2765368996693636e-07
3715.26,-2.2517981821186704e-07
3716.16,-2.1482091714444964e-07
3717.06,-1.9885130193942838e-07
3717.96,-1.7741005780687736e-07
3718.86,-1.5499106188685244e-07
3719.76,-1.3469259369518438e-07
3720.66,-1.1910861827140496e-07
3721.56,-1.1143799347609274e-07
3722.46,-1.1316571572107384e-07
3723.36,-1.217708099606919e-07
3724.26,-1.350661796159907e-07
3725.16,-1.4818418017691193e-07
3726.06,-1.5776885485974965e-07
3726.96,-1.6237914532496993e-07
3727.86,-1.630389577565091e-07
3728.76,-1.627862664930673e-07
3729.66,-1.589803197136281e-07
3730.56,-1.5415320688032796e-07
3731.46,-1.4561490854704054e-07
3732.36,-1.3410434419875474e-07
3733.26,-1.1888043810290744e-07
3734.16,-1.0472474323544451e-07
3735.06,-9.36287040488669e-08
3735.96,-8.801349272073645e-08
3736.86,-8.901551442299737e-08
3737.76,-9.693309976630594e-08
3738.66,-1.0954416013424043e-07
3739.56,-1.248114558978917e-07
3740.46,-1.3748836422076907e-07
3741.36,-1.4553514159037653e-07
3742.26,-1.4722347962747003e-07
3743.16,-1.406376020803233e-07
3744.06,-1.3027151373009806e-07
3744.96,-1.1831058594493617e-07
3745.86,-1.0693382238167716e-07
3746.76,-9.937446491005558e-08
3747.67,-9.376939287039291e-08
3748.57,-9.32300236787339e-08
3749.47,-9.655160682324903e-08
3750.37,-1.0571370674664133e-07
3751.27,-1.2065388888836025e-07
3752.17,-1.3831464351814478e-07
3753.07,-1.5710146422227713e-07
3753.97,-1.7253229317856093e-07
3754.87,-1.8303776771575716e-07
3755.77,-1.852661151618845e-07
3756.67,-1.8073356860534467e-07
3757.57,-1.697993328628359e-07
3758.47,-1.5764671179953353e-07
3759.37,-1.486883626508054e-07
3760.27,-1.4444265344181014e-07
3761.17,-1.4417965947014028e-07
3762.07,-1.464803626270278e-07
3762.97,-1.4775924045552973e-07
3763.87,-1.4981759428261589e-07
3764.77,-1.4998411437622865e-07
3765.67,-1.5064930989965368e-07
3766.57,-1.5336242956073148e-07
3767.47,-1.5828771081064288e-07
3768.37,-1.6686584928874886e-07
3769.27,-1.7720209930862626e-07
3770.17,-1.8967426875314353e-07
3771.07,-2.0232157924137041e-07
3771.97,-2.127281929442348e-07
3772.87,-2.2007805174689586e-07
3773.77,-2.2400405759505035e-07
3774.67,-2.259106885641851e-07
3775.57,-2.256207969674294e-07
3776.47,-2.257842711081225e-07
3777.37,-2.2509514393664748e-07
3778.27,-2.2597504210896957e-07
3779.17,-2.2936387762594755e-07
3780.07,-2.3368444312214796e-07
3780.97,-2.377234650535236e-07
3781.87,-2.4192594374446054e-07
3782.77,-2.4149538303326586e-07
3783.67,-2.4110942070450444e-07
3784.57,-2.328617571861175e-07
3785.47,-2.2209603118813728e-07
3786.38,-2.0801258617399473e-07
3787.28,-1.9321985572463482e-07
3788.18,-1.7997787897120706e-07
3789.08,-1.7116600932776847e-07
3789.98,-1.667418840000015e-07
3790.88,-1.6647781848152107e-07
3791.78,-1.684482867202518e-07
3792.68,-1.700230987995346e-07
3793.58,-1.6872239423768522e-07
3794.48,-1.660586936096056e-07
3795.38,-1.6146875109389127e-07
3796.28,-1.5678062807203108e-07
3797.18,-1.541166074467585e-07
3798.08,-1.5205924524404368e-07
3798.98,-1.5295445371152558e-07
3799.88,-1.5745034097976143e-07
3800.78,-1.657937710949731e-07
3801.68,-1.7768726392887163e-07
3802.58,-1.8968452023077307e-07
3803.48,-2.0005160073945696e-07
3804.38,-2.078528514098708e-07
3805.28,-2.101683967413132e-07
3806.18,-2.079229934321484e-07
3807.08,-2.0527052490991054e-07
3807.98,-2.0284227883954387e-07
3808.88,-2.0300702699508e-07
3809.78,-2.024488668945939e-07
3810.68,-2.0406686938512685e-07
3811.58,-2.0230819980388013e-07
3812.48,-1.946512030664256e-07
3813.38,-1.8299262906205282e-07
3814.28,-1.694586694058919e-07
3815.18,-1.5702697997805647e-07
3816.08,-1.467829832593658e-07
3816.98,-1.3898561961136812e-07
3817.88,-1.3423640771384343e-07
3818.78,-1.3009358441258363e-07
3819.68,-1.264032029328665e-07
3820.58,-1.2139986312670374e-07
3821.48,-1.1820792782597217e-07
3822.38,-1.1560481183232889e-07
3823.28,-1.132186492901765e-07
3824.18,-1.1088113625350016e-07
3825.09,-1.0722154886580528e-07
3825.99,-1.0311607538433264e-07
3826.89,-1.0067938996074136e-07
3827.79,-1.0029955258971271e-07
3828.69,-1.0162543289148292e-07
3829.59,-1.0409749761683744e-07
3830.49,-1.0616125372147458e-07
3831.39,-1.0771164496589545e-07
3832.29,-1.0773390212828454e-07
3833.19,-1.0686413445346815e-07
3834.09,-1.0754579594763655e-07
3834.99,-1.0878618698663141e-07
3835.89,-1.1137200969103136e-07
3836.79,-1.1359549233837727e-07
3837.69,-1.1350119083544594e-07
3838.59,-1.1245908040195996e-07
3839.49,-1.1209811646584301e-07
3840.39,-1.147270798556492e-07
3841.29,-1.1943655943505897e-07
3842.19,-1.2989935936098945e-07
3843.09,-1.4103018352113426e-07
3843.99,-1.5271362947393625e-07
3844.89,-1.6275572561058011e-07
3845.79,-1.6844294637948422e-07
3846.69,-1.720106990982951e-07
3847.59,-1.722936596016061e-07
3848.49,-1.7089439041305231e-07
3849.39,-1.6866178113968093e-07
3850.29,-1.6466210944865783e-07
3851.19,-1.6333591998875855e-07
3852.09,-1.6287053174142765e-07
3852.99,-1.61300531028774e-07
3853.89,-1.5930614200744364e-07
3854.79,-1.5550973493011148e-07
3855.69,-1.4999931979912565e-07
3856.59,-1.4242243566989733e-07
3857.49,-1.3528787433200156e-07
3858.39,-1.2879293883478122e-07
3859.29,-1.2452011836578846e-07
3860.19,-1.2368599025110083e-07
3861.09,-1.2822879089612124e-07
3861.99,-1.3707651325682448e-07
3862.9,-1.477568432107467e-07
3863.8,-1.577991630932615e-07
3864.7,-1.6456119121373129e-07
3865.6,-1.6830533007621613e-07
3866.5,-1.6838917028408293e-07
3867.4,-1.6581547713780966e-07
3868.3,-1.6206507261459245e-07
3869.2,-1.5716581197764995e-07
3870.1,-1.5173550179896258e-07
3871.0,-1.4723571069718955e-07
3871.9,-1.4608599509324373e-07
3872.8,-1.4871644983863732e-07
3873.7,-1.5536594118142124e-07
3874.6,-1.6402374131684996e-07
3875.5,-1.7223698336045627e-07
3876.4,-1.7650042553484027e-07
3877.3,-1.756738960033859e-07
3878.2,-1.7203955037980675e-07
3879.1,-1.667940443582383e-07
3880.0,-1.6278294646378217e-07
3880.9,-1.623581192953623e-07
3881.8,-1.6355969237570502e-07
3882.7,-1.6636738041320697e-07
3883.6,-1.7031703610085526e-07
3884.5,-1.732043749116366e-07
3885.4,-1.740771133499985e-07
3886.3,-1.7437541190427136e-07
3887.2,-1.7462832593027178e-07
3888.1,-1.7702827806973584e-07
3889.0,-1.8576955194594484e-07
3889.9,-2.000258912150764e-07
3890.8,-2.1600903419351664e-07
3891.7,-2.3297316004030974e-07
3892.6,-2.452755296796912e-07
3893.5,-2.5596061501871e-07
3894.4,-2.581052864367183e-07
3895.3,-2.5774301988308846e-07
3896.2,-2.550307380186614e-07
3897.1,-2.5257078967283437e-07
3898.0,-2.5033083047971995e-07
3898.9,-2.47066434257616e-07
3899.8,-2.4744075432766663e-07
3900.7,-2.44691876352519e-07
3901.6,-2.43506616564651e-07
3902.51,-2.410502066577155e-07
3903.41,-2.3746573311197762e-07
3904.31,-2.34382152497453e-07
3905.21,-2.326943369469414e-07
3906.11,-2.3409471728889749e-07
3907.01,-2.4032418005214985e-07
3907.91,-2.5130567254770677e-07
3908.81,-2.641347858319656e-07
3909.71,-2.782574410170206e-07
3910.61,-2.909527260531114e-07
3911.51,-3.0105761391276196e-07
3912.41,-3.085424347065137e-07
3913.31,-3.122439117580323e-07
3914.21,-3.132764887231337e-07
3915.11,-3.094534340817508e-07
3916.01,-3.055323220015829e-07
3916.91,-2.970185262315636e-07
3917.81,-2.8550015234298326e-07
3918.71,-2.726686504156246e-07
3919.61,-2.5780752572097854e-07
3920.51,-2.43739646294323e-07
3921.41,-2.3081781549801293e-07
3922.31,-2.2247384393178987e-07
3923.21,-2.1843539593678015e-07
3924.11,-2.1557131454878078e-07
3925.01,-2.1331365737318646e-07
3925.91,-2.0871744938009335e-07
3926.81,-1.9914835989153382e-07
3927.71,-1.8485140478045904e-07
3928.61,-1.6837254690942348e-07
3929.51,-1.4975252143329397e-07
3930.41,-1.3252488756644118e-07
3931.31,-1.1640274835077994e-07
3932.21,-1.0357567157586026e-07
3933.11,-9.428556067208919e-08
3934.01,-8.98499190828866e-08
3934.91,-9.058666637482764e-08
3935.81,-9.697607583142193e-08
3936.71,-1.085694014896241e-07
3937.61,-1.244810378268654e-07
3938.51,-1.417083337406099e-07
3939.42,-1.5936562089224447e-07
3940.32,-1.7494551521902247e-07
3941.22,-1.861599069625633e-07
3942.12,-1.945587401669294e-07
3943.02,-1.992702839975429e-07
3943.92,-2.0479188255133636e-07
3944.82,-2.1426227195462717e-07
3945.72,-2.2556249282086305e-07
3946.62,-2.4060787729670263e-07
3947.52,-2.572948770700161e-07
3948.42,-2.736946943971959e-07
3949.32,-2.8707160542753923e-07
3950.22,-3.0060172045629974e-07
3951.12,-3.115300351702702e-07
3952.02,-3.177600710025718e-07
3952.92,-3.2268811867108746e-07
3953.82,-3.2522758762081754e-07
3954.72,-3.2676139940701525e-07
3955.62,-3.2437723100823137e-07
3956.52,-3.202180307886974e-07
3957.42,-3.13773413798132e-07
3958.32,-3.04566576369475e-07
3959.22,-2.9189470339993e-07
3960.12,-2.7596200264843067e-07
3961.02,-2.567928402507552e-07
3961.92,-2.3517223589264074e-07
3962.82,-2.124691778114568e-07
3963.72,-1.9432851033175643e-07
3964.62,-1.772558133844993e-07
3965.52,-1.6149521605379167e-07
3966.42,-1.462645582120522e-07
3967.32,-1.3288637097950618e-07
3968.22,-1.2166694547802663e-07
3969.12,-1.1664396249472587e-07
3970.02,-1.178034224775766e-07
3970.92,-1.270446924002313e-07
3971.82,-1.4248876134425413e-07
3972.72,-1.6359232433386805e-07
3973.62,-1.8788157047035222e-07
3974.52,-2.143440262605595e-07
3975.42,-2.408411188363021e-07
3976.32,-2.677568996898767e-07
3977.22,-2.9315558692472433e-07
3978.13,-3.1660645430145095e-07
3979.03,-3.391687661535204e-07
3979.93,-3.596335316703713e-07
3980.83,-3.719151608557832e-07
3981.73,-3.8211356059960565e-07
3982.63,-3.8702577461502476e-07
3983.53,-3.901746673998128e-07
3984.43,-3.9433874579020807e-07
3985.33,-3.9809388833035424e-07
3986.23,-4.0473930973591894e-07
3987.13,-4.116552623680971e-07
3988.03,-4.187676841640694e-07
3988.93,-4.2561152174912575e-07
3989.83,-4.31358429429313e-07
3990.73,-4.339560873788598e-07
3991.63,-4.403369326733272e-07
3992.53,-4.4041447465193737e-07
3993.43,-4.427137536519719e-07
3994.33,-4.440495145047897e-07
3995.23,-4.444712508480472e-07
3996.13,-4.4129022237398317e-07
3997.03,-4.378046715875714e-07
3997.93,-4.3611230659314986e-07
3998.83,-4.455160607851338e-07
3999.73,-4.5322713809119113e-07
4000.63,-4.656581041004901e-07
4001.53,-4.749018202386331e-07
4002.43,-4.795540318903543e-07
4003.33,-4.794063145390152e-07
4004.23,-4.701382201874144e-07
4005.13,-4.6049357899857145e-07
4006.03,-4.4925623067077664e-07
4006.93,-4.444109706187787e-07
4007.83,-4.4744580166112035e-07
4008.73,-4.5521035195229083e-07
4009.63,-4.684483182375892e-07
4010.53,-4.822288211109432e-07
4011.43,-4.929289361355954e-07
4012.33,-5.030653835035867e-07
4013.23,-5.108424458823375e-07
4014.13,-5.1879350156382e-07
4015.03,-5.213461008815556e-07
4015.93,-5.207403214711376e-07
4016.84,-5.258356256217974e-07
4017.74,-5.270372855997224e-07
4018.64,-5.3165952079844e-07
4019.54,-5.336375468091348e-07
4020.44,-5.342475630221109e-07
4021.34,-5.367426805637664e-07
4022.24,-5.31272559865115e-07
4023.14,-5.306522005685313e-07
4024.04,-5.304000319532102e-07
4024.94,-5.295311946383262e-07
4025.84,-5.312743123337689e-07
4026.74,-5.29999748861631e-07
4027.64,-5.342013583125268e-07
4028.54,-5.305076862677341e-07
4029.44,-5.170397914333401e-07
4030.34,-4.963844500880253e-07
4031.24,-4.687299540956131e-07
4032.14,-4.4569970054481397e-07
4033.04,-4.285953698947813e-07
4033.94,-4.200749709023852e-07
4034.84,-4.271523142598189e-07
4035.74,-4.4661823311882343e-07
4036.64,-4.732352015140768e-07
4037.54,-5.038027060027839e-07
4038.44,-5.288433174964329e-07
4039.34,-5.4510947304009e-07
4040.24,-5.530035779482482e-07
4041.14,-5.50566422270357e-07
4042.04,-5.391811617937861e-07
4042.94,-5.15514991120371e-07
4043.84,-4.868178399849149e-07
4044.74,-4.5881909393272443e-07
4045.64,-4.310425388470165e-07
4046.54,-4.1847588960252946e-07
4047.44,-4.2025632805649816e-07
4048.34,-4.391748702547007e-07
4049.24,-4.678392631957101e-07
4050.14,-4.996453600504214e-07
4051.04,-5.254209935016723e-07
4051.94,-5.421631271493388e-07
4052.84,-5.467718630426591e-07
4053.74,-5.417793433485946e-07
4054.65,-5.319731953887219e-07
4055.55,-5.17057241724659e-07
4056.45,-5.057287671087815e-07
4057.35,-4.942889748034554e-07
4058.25,-4.869994909815826e-07
4059.15,-4.85505038747261e-07
4060.05,-4.831616761173216e-07
4060.95,-4.785070966850202e-07
4061.85,-4.7133345184998057e-07
4062.75,-4.591296602131217e-07
4063.65,-4.4745241554167336e-07
4064.55,-4.392115910112441e-07
4065.45,-4.387080573047137e-07
4066.35,-4.484766223714927e-07
4067.25,-4.6511846066992333e-07
4068.15,-4.824627862673397e-07
4069.05,-4.963704374432523e-07
4069.95,-5.013048748971894e-07
4070.85,-5.03401716302426e-07
4071.75,-5.030795026249357e-07
4072.65,-4.972789377286737e-07
4073.55,-4.970819961718491e-07
4074.45,-4.980580891285503e-07
4075.35,-4.993743087735983e-07
4076.25,-4.97128068984453e-07
4077.15,-4.991828329419867e-07
4078.05,-4.972435899328468e-07
4078.95,-5.086099724726154e-07
4079.85,-5.245489072090155e-07
4080.75,-5.446003317814322e-07
4081.65,-5.633959240671971e-07
4082.55,-5.818535036076426e-07
4083.45,-5.948824392014238e-07
4084.35,-5.984114063982129e-07
4085.25,-6.02848838276356e-07
4086.15,-6.102071794940396e-07
4087.05,-6.2440017499501e-07
4087.95,-6.40332242108432e-07
4088.85,-6.525460655635836e-07
4089.75,-6.603890511354722e-07
4090.65,-6.638965270673668e-07
4091.55,-6.613133787993022e-07
4092.45,-6.543575745817768e-07
4093.36,-6.389282554372038e-07
4094.26,-6.232678241645301e-07
4095.16,-6.077063166937963e-07
4096.06,-5.896065146710575e-07
4096.96,-5.716957454920922e-07
4097.86,-5.541755137246996e-07
4098.76,-5.402542151792273e-07
4099.66,-5.269883396690322e-07
4100.56,-5.137496939159298e-07
4101.46,-5.102918573058257e-07
4102.36,-5.067192718049698e-07
4103.26,-5.14277996049628e-07
4104.16,-5.265654115810269e-07
4105.06,-5.456797999569734e-07
4105.96,-5.656361088113169e-07
4106.86,-5.833884752011105e-07
4107.76,-5.926635579358719e-07
4108.66,-6.017752490281892e-07
4109.56,-6.016122619174488e-07
4110.46,-5.988366961277653e-07
4111.36,-5.943813687276914e-07
4112.26,-5.95648690246198e-07
4113.16,-6.013318843873542e-07
4114.06,-6.065733919223906e-07
4114.96,-6.148218053195256e-07
4115.86,-6.195640529542637e-07
4116.76,-6.242099761272238e-07
4117.66,-6.216080831610648e-07
4118.56,-6.156657834737907e-07
4119.46,-6.10319321459722e-07
4120.36,-6.051476713073694e-07
4121.26,-6.015493167628878e-07
4122.16,-6.010923569957029e-07
4123.06,-6.066908827243016e-07
4123.96,-6.098134236002598e-07
4124.86,-6.151365543219919e-07
4125.76,-6.178768515438721e-07
4126.66,-6.182788993600442e-07
4127.56,-6.136861578026176e-07
4128.46,-6.040978304147376e-07
4129.36,-5.949495668453565e-07
4130.26,-5.79767729349736e-07
4131.17,-5.646916974147648e-07
4132.06,-5.496613854682281e-07
4132.97,-5.396684435392776e-07
4133.87,-5.373617507416698e-07
4134.77,-5.45572623150545e-07
4135.67,-5.607427938420981e-07
4136.57,-5.772224873533454e-07
4137.47,-5.989194506273544e-07
4138.37,-6.138438312759981e-07
4139.27,-6.200734341830565e-07
4140.17,-6.210759409316936e-07
4141.07,-6.07288855963041e-07
4141.97,-5.891017098819047e-07
4142.87,-5.633831714271304e-07
4143.77,-5.434537100070792e-07
4144.67,-5.335952314891811e-07
4145.57,-5.291985987287849e-07
4146.47,-5.413302076944318e-07
4147.37,-5.54465173202926e-07
4148.27,-5.656187122294908e-07
4149.17,-5.749801776285235e-07
4150.07,-5.759115453267496e-07
4150.97,-5.735153442270476e-07
4151.87,-5.687581376418327e-07
4152.77,-5.660811642794798e-07
4153.67,-5.621221224421659e-07
4154.57,-5.59626835159704e-07
4155.47,-5.611280259092678e-07
4156.37,-5.62783953990102e-07
4157.27,-5.723761839306776e-07
4158.17,-5.850515932981165e-07
4159.07,-5.978538350452214e-07
4159.97,-6.189276329925475e-07
4160.87,-6.325961584789071e-07
4161.77,-6.474448779906692e-07
4162.67,-6.569377748566979e-07
4163.57,-6.623467405025686e-07
4164.47,-6.595816987885607e-07
4165.37,-6.515868605963437e-07
4166.27,-6.424365144278485e-07
4167.17,-6.35677353884322e-07
4168.07,-6.281194858989583e-07
4168.98,-6.169320504326913e-07
4169.88,-6.151543899179516e-07
4170.78,-6.079833461307128e-07
4171.68,-5.985847300436432e-07
4172.58,-5.862808129965597e-07
4173.48,-5.786638231346653e-07
4174.38,-5.6801231897281e-07
4175.28,-5.649069339435883e-07
4176.18,-5.648439631484526e-07
4177.08,-5.693773442291984e-07
4177.98,-5.765017703177462e-07
4178.88,-5.851899367945248e-07
4179.78,-5.912737442184034e-07
4180.68,-5.967739738454547e-07
4181.58,-6.012069880777315e-07
4182.48,-6.084834882394965e-07
4183.38,-6.156794561135683e-07
4184.28,-6.213251617370492e-07
4185.18,-6.264118933664133e-07
4186.08,-6.269925001564641e-07
4186.98,-6.291280524203663e-07
4187.88,-6.272734760302186e-07
4188.78,-6.271006001354994e-07
4189.68,-6.316669984567708e-07
4190.58,-6.386923282119306e-07
4191.48,-6.462730195958302e-07
4192.38,-6.544211748453928e-07
4193.28,-6.59732463030217e-07
4194.18,-6.588649643078392e-07
4195.08,-6.482691981231382e-07
4195.98,-6.324002059461999e-07
4196.88,-6.148324276283298e-07
4197.78,-5.955492774286298e-07
4198.68,-5.822156266832914e-07
4199.58,-5.718506551065934e-07
4200.48,-5.695632343654531e-07
4201.38,-5.751624538573541e-07
4202.28,-5.8221243048727e-07
4203.18,-5.998789425293998e-07
4204.08,-6.169005491602373e-07
4204.98,-6.411175844658489e-07
4205.88,-6.657323059906364e-07
4206.79,-6.899514444625297e-07
4207.69,-7.064717265679369e-07
4208.59,-7.180606290705817e-07
4209.49,-7.258032245397203e-07
4210.39,-7.231112061090119e-07
4211.29,-7.181352565645577e-07
4212.19,-7.111847097221146e-07
4213.09,-7.019332461991994e-07
4213.99,-6.915040483078984e-07
4214.89,-6.806036361640627e-07
4215.79,-6.767010747054378e-07
4216.69,-6.795447544890021e-07
4217.59,-6.924613264237492e-07
4218.49,-7.145992290241563e-07
4219.39,-7.330596745882983e-07
4220.29,-7.44473455801096e-07
4221.19,-7.462130178968841e-07
4222.09,-7.32075817771095e-07
4222.99,-7.001437754690734e-07
4223.89,-6.554422901139854e-07
4224.79,-6.074452029708172e-07
4225.69,-5.533030458869457e-07
4226.59,-5.127703336908602e-07
4227.49,-4.949158426932756e-07
4228.39,-5.051460028509372e-07
4229.29,-5.339428378541059e-07
4230.19,-5.786396440396448e-07
4231.09,-6.237373722501536e-07
4231.99,-6.652548613635723e-07
4232.89,-6.853228916237687e-07
4233.79,-6.975200995946866e-07
4234.69,-6.998959619846338e-07
4235.59,-6.943976647628608e-07
4236.49,-6.910850587984767e-07
4237.39,-6.895195775205118e-07
4238.29,-7.003903379246503e-07
4239.19,-7.106588056784582e-07
4240.09,-7.270779318889682e-07
4240.99,-7.501320766065982e-07
4241.89,-7.74928205434774e-07
4242.79,-8.000136661031306e-07
4243.69,-8.234876264031728e-07
4244.59,-8.4142732413442e-07
4245.5,-8.451399692684503e-07
4246.4,-8.408337749296086e-07
4247.3,-8.262967098107034e-07
4248.2,-7.958750543836247e-07
4249.1,-7.672784371445323e-07
4250.0,-7.353739779049276e-07
4250.9,-7.078366128748958e-07
4251.8,-6.945453507718133e-07
4252.7,-6.839617120226748e-07
4253.6,-6.886875988674781e-07
4254.5,-6.902484770682814e-07
4255.4,-7.024693959624692e-07
4256.3,-7.102671006280001e-07
4257.2,-7.22128206972609e-07
4258.1,-7.279622634372839e-07
4259.0,-7.332942555162491e-07
4259.9,-7.316528239152498e-07
4260.8,-7.295433384033956e-07
4261.7,-7.358662305445785e-07
4262.6,-7.592375016284241e-07
4263.5,-7.930883200502958e-07
4264.4,-8.227524314465237e-07
4265.3,-8.496769531317627e-07
4266.2,-8.67354912771346e-07
4267.1,-8.687891217537011e-07
4268.0,-8.462329561681024e-07
4268.9,-8.126348830281251e-07
4269.8,-7.665558481394971e-07
4270.7,-7.146867272800934e-07
4271.6,-6.676265158895747e-07
4272.5,-6.318611710230372e-07
4273.4,-6.119582592260656e-07
4274.3,-6.127454011897948e-07
4275.2,-6.301978683325239e-07
4276.1,-6.632889552369642e-07
4277.0,-7.053229459796405e-07
4277.9,-7.506530032453849e-07
