wave,flux
3700.85,0.015533034558796592
3701.75,0.015462478370246656
3702.65,0.015065235899377428
3703.55,0.014303649791964667
3704.45,0.013447547918558735
3705.35,0.012581887578911549
3706.25,0.011945820598541823
3707.15,0.011652117041651418
3708.05,0.011653009778524901
3708.96,0.012136451888762768
3709.86,0.012889029814395651
3710.76,0.013924826629255942
3711.66,0.015207717411487503
3712.56,0.016511424466960564
3713.46,0.01766243629044908
3714.36,0.018559145113397225
3715.26,0.018966017572287806
3716.16,0.018740873959464305
3717.06,0.018109781848020343
3717.96,0.017121079725104824
3718.86,0.01571635361059616
3719.76,0.014338586607045865
3720.66,0.013152580776623622
3721.56,0.012518711500318525
3722.46,0.012634478071795801
3723.36,0.013461403815210568
3724.26,0.014677610192903149
3725.16,0.015918179164851328
3726.06,0.017013251212877525
3726.96,0.01762612349126598
3727.86,0.01799201278344288
3728.76,0.018245449386024352
3729.66,0.018160947474190167
3730.56,0.017847338666629055
3731.46,0.017314800511811564
3732.36,0.01630405574056308
3733.26,0.015046625042776627
3734.16,0.013872092808188474
3735.06,0.012879004904572652
3735.96,0.012521798151921344
3736.86,0.012831601937723628
3737.76,0.013799568230654957
3738.66,0.015447440696456463
3739.56,0.01733656713435839
3740.46,0.018984865321292756
3741.36,0.020171482900486648
3742.26,0.020626079100927047
3743.16,0.020172087189484687
3744.06,0.01936871840425472
3744.96,0.018317774529158844
3745.86,0.017156637040909323
3746.76,0.016237389629374765
3747.67,0.015533019264366768
3748.57,0.015364614899681555
3749.47,0.015613322370543916
3750.37,0.016499589188967247
3751.27,0.018255385675788535
3752.17,0.020583423154724077
3753.07,0.02321945551338574
3753.97,0.025638223863263823
3754.87,0.027351687643771366
3755.77,0.028309356306474305
3756.67,0.028051688634844616
3757.57,0.02717756364167464
3758.47,0.02596612038983228
3759.37,0.02513231593757547
3760.27,0.024777697740196822
3761.17,0.025059865721496443
3762.07,0.025688982385468368
3762.97,0.026459287739494596
3763.87,0.02703519854372672
3764.77,0.027585822007951462
3765.67,0.027942780572142695
3766.57,0.0282578686162803
3767.47,0.028848954029908377
3768.37,0.02961432547309078
3769.27,0.030541924489215926
3770.17,0.03185647445914932
3771.07,0.03334376431711574
3771.97,0.03517407400389448
3772.87,0.03678454780770366
3773.77,0.03840557510859145
3774.67,0.03954813340057769
3775.57,0.04077779890362302
3776.47,0.04167340298389508
3777.37,0.042480571738822685
3778.27,0.04337166513497261
3779.17,0.04450361595275955
3780.07,0.046112371664170815
3780.97,0.04776012673177297
3781.87,0.04913488205762273
3782.77,0.0499635300089478
3783.67,0.05031734723112739
3784.57,0.050052436360808215
3785.47,0.04910591535721003
3786.38,0.04726369516938009
3787.28,0.04523981953155626
3788.18,0.04326273184959264
3789.08,0.042030283641790754
3789.98,0.04142983316820963
3790.88,0.04203902108808855
3791.78,0.04236367186292685
3792.68,0.042818178270629524
3793.58,0.04284212504902712
3794.48,0.042687121617588274
3795.38,0.041630023935923736
3796.28,0.040846840721449965
3797.18,0.04041294074850527
3798.08,0.0401767463669255
3798.98,0.04083403362578816
3799.88,0.042614572510887835
3800.78,0.04563237692123712
3801.68,0.049378895105666475
3802.58,0.053133184268564886
3803.48,0.05716140445785518
3804.38,0.059931561704115704
3805.28,0.06158048324740408
3806.18,0.06232667994402531
3807.08,0.06262881311105603
3807.98,0.06329273341513343
3808.88,0.06459371400869572
3809.78,0.06579864521122697
3810.68,0.06720970120504005
3811.58,0.06787954342388053
3812.48,0.06641876497313805
3813.38,0.06429600930768474
3814.28,0.06160842312240462
3815.18,0.05889331542904705
3816.08,0.05712756109282046
3816.98,0.05588567825746209
3817.88,0.05563855843928766
3818.78,0.05567253973465854
3819.68,0.05519289628513793
3820.58,0.05456548432347405
3821.48,0.054342180999687996
3822.38,0.05410755904750058
3823.28,0.05402499380310598
3824.18,0.0536108772161925
3825.09,0.052622494218608755
3825.99,0.05127370576051991
3826.89,0.05009697732894577
3827.79,0.04996459247150831
3828.69,0.05044346491470094
3829.59,0.05143208038691332
3830.49,0.052429387180827715
3831.39,0.05258580601138561
3832.29,0.05231623968327783
3833.19,0.05221058057814044
3834.09,0.05180504855408955
3834.99,0.05228565793004374
3835.89,0.05324133183572577
3836.79,0.054551967038408616
3837.69,0.05577205093438713
3838.59,0.05669461832190115
3839.49,0.05849494218913827
3840.39,0.061316791750043224
3841.29,0.06594117478958386
3842.19,0.07154121610357149
3843.09,0.07857305344791835
3843.99,0.08504326164346289
3844.89,0.09097215616917372
3845.79,0.09555393218490485
3846.69,0.09920794225466036
3847.59,0.10169037474469278
3848.49,0.10294108467341921
3849.39,0.10310936888236474
3850.29,0.10392177513605483
3851.19,0.10486221213463881
3852.09,0.10620108848608525
3852.99,0.10746238704787078
3853.89,0.10837374858930594
3854.79,0.1075803398646702
3855.69,0.10636495621425786
3856.59,0.1044483337561105
3857.49,0.10220334150400429
3858.39,0.09976728221291262
3859.29,0.09811389365721551
3860.19,0.09942012022586315
3861.09,0.10261237916694259
3861.99,0.10927730438426364
3862.9,0.11747136526035823
3863.8,0.12495160914686192
3864.7,0.13144695787893562
3865.6,0.13559065158885752
3866.5,0.13677659636853254
3867.4,0.13709012849188765
3868.3,0.13575971888207147
3869.2,0.13383603063731414
3870.1,0.1317893155763298
3871.0,0.12955162622727362
3871.9,0.12894898128453985
3872.8,0.13019072466340004
3873.7,0.13546110574685613
3874.6,0.14291634832781885
3875.5,0.15048381900991364
3876.4,0.15565421784284553
3877.3,0.15747867980478172
3878.2,0.1568853078112053
3879.1,0.15580827292819668
3880.0,0.15550472455073364
3880.9,0.1560082488409402
3881.8,0.1583094660220581
3882.7,0.16063885948380918
3883.6,0.1636217316558719
3884.5,0.16579097680078167
3885.4,0.16683269840823967
3886.3,0.16531264669872717
3887.2,0.16581104144931125
3888.1,0.16725566326658217
3889.0,0.1716525532343803
3889.9,0.18037279887852203
3890.8,0.19355440998253914
3891.7,0.20787231399601844
3892.6,0.22272344408691647
3893.5,0.23500480472441698
3894.4,0.24245537615936844
3895.3,0.24883119592022543
3896.2,0.25299232522390414
3897.1,0.25820955612725455
3898.0,0.2631856735098533
3898.9,0.2670995576715934
3899.8,0.2703714712062918
3900.7,0.27483660139035304
3901.6,0.27660753250342357
3902.51,0.27796558390304293
3903.41,0.27834572232172183
3904.31,0.2768531424665265
3905.21,0.2771031567855255
3906.11,0.2801107029168603
3907.01,0.28770173699183493
3907.91,0.30131899521237177
3908.81,0.3178874604598976
3909.71,0.3350361991426914
3910.61,0.3501164144211326
3911.51,0.36324929767778724
3912.41,0.372949926225328
3913.31,0.3814957463253816
3914.21,0.3858813881825824
3915.11,0.38707594376324184
3916.01,0.38535068494522257
3916.91,0.3822320505832948
3917.81,0.37479690939335714
3918.71,0.36684109258985836
3919.61,0.35750691783701083
3920.51,0.34734204732694485
3921.41,0.33856229948267036
3922.31,0.33617303831443246
3923.21,0.3324644127683082
3924.11,0.33180898734888425
3925.01,0.33003615954154264
3925.91,0.3228472250792056
3926.81,0.30970591452500595
3927.71,0.2898687576113757
3928.61,0.2643555208336261
3929.51,0.23637942591078168
3930.41,0.2094356046128828
3931.31,0.18269958732549885
3932.21,0.1602785639982012
3933.11,0.14457573856331365
3934.01,0.13570678851907866
3934.91,0.1365018359513784
3935.81,0.14749186112948307
3936.71,0.16739314925868518
3937.61,0.1957414231251302
3938.51,0.22813282969402032
3939.42,0.2636894309922127
3940.32,0.2956485149214076
3941.22,0.3230206007437297
3942.12,0.3439075597912147
3943.02,0.36130165161263483
3943.92,0.3762864974960927
3944.82,0.39575337407206324
3945.72,0.41886609551843573
3946.62,0.4440984843870172
3947.52,0.47049217536412263
3948.42,0.4972557274768757
3949.32,0.5206352280645581
3950.22,0.5392168236991266
3951.12,0.5598731475676042
3952.02,0.5711160070030158
3952.92,0.5825208628833869
3953.82,0.5900125242913424
3954.72,0.5928534565005917
3955.62,0.5955463045641405
3956.52,0.594874319718023
3957.42,0.5915502737680141
3958.32,0.5843282485493657
3959.22,0.5725949322758757
3960.12,0.5566176379223036
3961.02,0.5273130556607201
3961.92,0.4922127164480771
3962.82,0.4555000401822438
3963.72,0.41552698968109536
3964.62,0.3787019458541346
3965.52,0.34206802984197954
3966.42,0.30431814362620396
3967.32,0.2705501248356472
3968.22,0.24372968092184094
3969.12,0.22898016237009935
3970.02,0.22849302724346388
3970.92,0.2461030302511118
3971.82,0.2772793442457732
3972.72,0.318999819294456
3973.62,0.368666289281989
3974.52,0.42150082405716693
3975.42,0.47569555413536585
3976.32,0.5306131384597023
3977.22,0.579911221725628
3978.13,0.6316961875162225
3979.03,0.6740653900970679
3979.93,0.7129846498783012
3980.83,0.7429984472148606
3981.73,0.7642855639010837
3982.63,0.774416941223767
3983.53,0.7801561754220154
3984.43,0.7932467280295982
3985.33,0.8037485085438928
3986.23,0.8138714657418129
3987.13,0.8280055538732494
3988.03,0.8439863091277438
3988.93,0.8636746177897393
3989.83,0.8745193127489813
3990.73,0.8851296550860739
3991.63,0.8955018730860966
3992.53,0.9033366781184965
3993.43,0.9109660713451245
3994.33,0.9154880415115721
3995.23,0.9140217495547542
3996.13,0.9075450079626778
3997.03,0.901813461595066
3997.93,0.9052496608142978
3998.83,0.9198834352120168
3999.73,0.9366872974231035
4000.63,0.953377921538541
4001.53,0.9768006167445967
4002.43,0.9873951250584551
4003.33,0.9836479819169821
4004.23,0.9707102649321856
4005.13,0.9520116848277499
4006.03,0.9343313768763811
4006.93,0.9258839878079801
4007.83,0.9304975479950734
4008.73,0.9450687847801277
4009.63,0.9686420053422348
4010.53,0.9856372651386244
4011.43,1.0020560814859305
4012.33,1.0186216879742434
4013.23,1.0304044402829606
4014.13,1.0418151440502628
4015.03,1.0502133893560401
4015.93,1.0564317925725386
4016.84,1.05631223884446
4017.74,1.0574709187697715
4018.64,1.0648298576210573
4019.54,1.0676871397155687
4020.44,1.0712267928682877
4021.34,1.07516896302343
4022.24,1.0720506791811728
4023.14,1.0668949873616986
4024.04,1.0635504265013038
4024.94,1.065421968551051
4025.84,1.0653770017033557
4026.74,1.0732828527917837
4027.64,1.0759869551608379
4028.54,1.069623201317834
4029.44,1.0479352056860831
4030.34,1.0191469242686895
4031.24,0.9807552010656083
4032.14,0.9391230680830888
4033.04,0.9175066601638658
4033.94,0.9031284802724053
4034.84,0.9132850657171945
4035.74,0.9481589377519138
4036.64,0.9920567296061912
4037.54,1.0333153889999644
4038.44,1.0674373157352919
4039.34,1.0952162495889999
4040.24,1.0977051356063408
4041.14,1.0929403964575823
4042.04,1.0715379464635615
4042.94,1.0395897919409192
4043.84,0.9998889722912134
4044.74,0.9524415914822375
4045.64,0.9127206451171256
4046.54,0.8908452460972237
4047.44,0.8969255858334377
4048.34,0.9227627699082677
4049.24,0.9672072722786519
4050.14,1.0111599305921084
4051.04,1.045420386310683
4051.94,1.0610826779058669
4052.84,1.0580486744392406
4053.74,1.0485907047619942
4054.65,1.030046329663206
4055.55,1.0067988249610054
4056.45,0.9880328793614852
4057.35,0.9675125802135021
4058.25,0.9587211525330601
4059.15,0.9540599589978742
4060.05,0.9565245685682076
4060.95,0.9534915729339666
4061.85,0.9434976360964916
4062.75,0.9264953484339907
4063.65,0.9058843236238654
4064.55,0.8917238076550109
4065.45,0.8916279148399667
4066.35,0.9083445499707723
4067.25,0.9258323134539508
4068.15,0.9485447833904322
4069.05,0.9689794749671781
4069.95,0.9781825694019776
4070.85,0.983320645292743
4071.75,0.9762947218253964
4072.65,0.9694421267151299
4073.55,0.9632129244255926
4074.45,0.9567073691759115
4075.35,0.9508813867651836
4076.25,0.9401748766317205
4077.15,0.9334635293079501
4078.05,0.9241218169804223
4078.95,0.9311088520488985
4079.85,0.951600194518213
4080.75,0.9857462513880626
4081.65,1.0131991613035396
4082.55,1.0407418920837508
4083.45,1.0602611916096365
4084.35,1.0590716595745442
4085.25,1.0650426728544042
4086.15,1.0698944177310128
4087.05,1.0860295710145724
4087.95,1.1088557033342095
4088.85,1.1283184876686114
4089.75,1.140182560936362
4090.65,1.1454615888015856
4091.55,1.1370842865303088
4092.45,1.1261004170533295
4093.36,1.105545799954249
4094.26,1.0824566888711193
4095.16,1.0590018012828724
4096.06,1.0286716886482983
4096.96,0.997146614938911
4097.86,0.9682636787902271
4098.76,0.9327939079243432
4099.66,0.9080775643941866
4100.56,0.8764420276376096
4101.46,0.8510519040835691
4102.36,0.8446656214301451
4103.26,0.8491638733184276
4104.16,0.8686961708905455
4105.06,0.9021397272034457
4105.96,0.9423318124370544
4106.86,0.9762447229124561
4107.76,0.9995082488553246
4108.66,1.0126860645711937
4109.56,1.0171158297634748
4110.46,1.0203882603807801
4111.36,1.0235558713456987
4112.26,1.0292191841243057
4113.16,1.0339470425617303
4114.06,1.047970654560801
4114.96,1.0629908658537222
4115.86,1.0711582978596614
4116.76,1.0738041323814143
4117.66,1.0693848611126227
4118.56,1.0629315472214997
4119.46,1.0509658222426508
4120.36,1.0382946233654968
4121.26,1.0335860481367236
4122.16,1.0305981323026756
4123.06,1.0319238031562108
4123.96,1.036236742179618
4124.86,1.0396180846092549
4125.76,1.0408547100242362
4126.66,1.0427605122653445
4127.56,1.0327050782433742
4128.46,1.0192954486844805
4129.36,1.0065027892280702
4130.26,0.9907977754305191
4131.17,0.9709119151269012
4132.06,0.953078076685535
4132.97,0.9410949461019936
4133.87,0.9423492912261057
4134.77,0.9521525692131321
4135.67,0.9671965786677428
4136.57,0.9971244233261451
4137.47,1.0239700466530275
4138.37,1.0433258288759324
4139.27,1.055248206581699
4140.17,1.0568727713949604
4141.07,1.0437372782053878
4141.97,1.0145199583664597
4142.87,0.9885601745298301
4143.77,0.9608433132192861
4144.67,0.939633572760456
4145.57,0.939310906640058
4146.47,0.9481398805062348
4147.37,0.9639168546207019
4148.27,0.9781015692355857
4149.17,0.9861207218793472
4150.07,0.9886898892426883
4150.97,0.9838247142891433
4151.87,0.9744447919962126
4152.77,0.9640765338057828
4153.67,0.9623094981203365
4154.57,0.9525543311174234
4155.47,0.9506844113754122
4156.37,0.9565908596513822
4157.27,0.959083907887112
4158.17,0.9747026509643475
4159.07,0.9956206536929946
4159.97,1.0129611393630755
4160.87,1.0367050813849237
4161.77,1.0545552444485593
4162.67,1.0636971090899805
4163.57,1.0715750315474002
4164.47,1.0746578650121639
4165.37,1.0659372981390776
4166.27,1.053962001423821
4167.17,1.0395034435229809
4168.07,1.0265893726286524
4168.98,1.0160492786561113
4169.88,1.0051763644174188
4170.78,0.9893339086639833
4171.68,0.9733238910445121
4172.58,0.9514027701535719
4173.48,0.9358289708902446
4174.38,0.9238427198846075
4175.28,0.9188700689064776
4176.18,0.9246147372280774
4177.08,0.9269909941783558
4177.98,0.9377123684523408
4178.88,0.95031573391146
4179.78,0.9518122239606549
4180.68,0.964807346402995
4181.58,0.9717790727309479
4182.48,0.9784203985701775
4183.38,0.9887125858565137
4184.28,0.9899914100688408
4185.18,0.995584163769056
4186.08,0.9999048708452145
4186.98,0.9976415834834023
4187.88,0.9930524169481805
4188.78,0.9947140479448796
4189.68,1.004177975844861
4190.58,1.008826568645039
4191.48,1.0214455921730479
4192.38,1.0300789709980456
4193.28,1.037272092454626
4194.18,1.0380408707326154
4195.08,1.0273987897354022
4195.98,1.0060625480814174
4196.88,0.9818391180079603
4197.78,0.9580513141435384
4198.68,0.936139842854656
4199.58,0.922421342492363
4200.48,0.9196681622793462
4201.38,0.919072130474387
4202.28,0.9278378937719954
4203.18,0.9443044321330106
4204.08,0.9612680574687527
4204.98,0.9867652844564766
4205.88,1.017083399780521
4206.79,1.0409147927416988
4207.69,1.0671266036290792
4208.59,1.0786443699326012
4209.49,1.087995518852273
4210.39,1.0879165399120583
4211.29,1.08583575003621
4212.19,1.0774283999848977
4213.09,1.0662425367732744
4213.99,1.0602065152771947
4214.89,1.0364774918914506
4215.79,1.0363059253028701
4216.69,1.0332449481357087
4217.59,1.0452578355450124
4218.49,1.0654688228392826
4219.39,1.087999984799525
4220.29,1.108138563651829
4221.19,1.1101407480995973
4222.09,1.0972790782977733
4222.99,1.0617960475474006
4223.89,1.0155572077608872
4224.79,0.9501969848081961
4225.69,0.8906030432119508
4226.59,0.8428704398541761
4227.49,0.8229542019877454
4228.39,0.8326750420820198
4229.29,0.8694196526801066
4230.19,0.9193866482240212
4231.09,0.9707735930009929
4231.99,1.0144421172142846
4232.89,1.0411480758492648
4233.79,1.048462274806569
4234.69,1.037721631129931
4235.59,1.0307939572951546
4236.49,1.0229189418007651
4237.39,1.0126037471550786
4238.29,1.0138427384261957
4239.19,1.0232558406419219
4240.09,1.0401741787058305
4240.99,1.066250638078797
4241.89,1.081087661036641
4242.79,1.1056857846223422
4243.69,1.132581073228126
4244.59,1.1449293805462473
4245.5,1.1468785259452907
4246.4,1.137284780012281
4247.3,1.1210648397526763
4248.2,1.093150754249445
4249.1,1.0630373248500715
4250.0,1.030892633610615
4250.9,1.0153990696586792
4251.8,1.0008969453175214
4252.7,0.998948938849117
4253.6,1.0026063194296426
4254.5,1.0111475951494295
4255.4,1.0191218067854921
4256.3,1.0264195240368061
4257.2,1.025511737683727
4258.1,1.029208386387236
4259.0,1.0202062602540602
4259.9,1.0182816298778659
4260.8,1.008721504474589
4261.7,1.0108946247287467
4262.6,1.033938618485428
4263.5,1.0622090920426748
4264.4,1.09892856803874
4265.3,1.1291959928104969
4266.2,1.1407114087343835
4267.1,1.1376584061144976
4268.0,1.1212073676497736
4268.9,1.0816579170386578
4269.8,1.0337331889420311
4270.7,0.9837225572269971
4271.6,0.9359388259737963
4272.5,0.8945757774886515
4273.4,0.8789028782670775
4274.3,0.8818536218612301
4275.2,0.8982263226594411
4276.1,0.9353889011900525
4277.0,0.9712986132069923
4277.9,1.0094313659172507
4278.8,1.0401784733119015
4279.7,1.0567217559125794
4280.6,1.0643450239010543
4281.5,1.0601423525536937
4282.4,1.0563663825071743
4283.31,1.0484123365797269
4284.21,1.042519247778405
4285.11,1.0326819252747583
4286.01,1.0155647559341663
4286.91,1.0006719375783866
4287.81,0.9784649998754628
4288.71,0.9542898776383896
4289.61,0.9348746983930909
4290.51,0.9226807978410643
4291.41,0.9222017180045936
4292.31,0.9260050889771957
4293.21,0.9383152465474669
4294.11,0.9489341077230152
4295.01,0.9555107977284955
4295.91,0.9462923823542173
4296.81,0.9273567523055699
4297.71,0.8987832619280196
4298.61,0.8616649426199219
4299.51,0.8240710633740751
4300.41,0.7881334701296167
4301.31,0.7594327076581597
4302.21,0.7448038997805176
4303.11,0.7381037275365728
4304.01,0.7358630281275785
4304.91,0.733565756252058
4305.81,0.7256018187347517
4306.71,0.7174871609562095
4307.61,0.7076377452431685
4308.51,0.7004919602190268
4309.41,0.6992577170642793
4310.31,0.7109216577704186
4311.21,0.7410207176352266
4312.11,0.7803000914425454
4313.01,0.8316174974041032
4313.91,0.8976609460328479
4314.81,0.9648128689228577
4315.71,1.034951833468306
4316.61,1.0958334702297163
4317.51,1.1515067383278776
4318.41,1.1821655944938707
4319.31,1.2001879442728856
4320.21,1.203845941326163
4321.12,1.1801754770922277
4322.02,1.1383352095006147
4322.92,1.085686554632093
4323.82,1.0305059694292897
4324.72,0.9803073927863188
4325.62,0.9428803353093368
4326.52,0.9320696933448837
4327.42,0.9453071209938625
4328.32,0.9799836428081876
4329.22,1.0317004227628983
4330.12,1.0789682892537635
4331.02,1.1206216006199843
4331.92,1.1496570004571964
4332.82,1.1644814435046076
4333.72,1.1719477191317638
4334.62,1.1682524125371525
4335.52,1.1474180495915887
4336.42,1.1189847647654507
4337.32,1.0656824257550916
4338.22,1.0153005501162773
4339.12,0.9642261961628932
4340.02,0.9212825221239531
4340.92,0.8962604559405313
4341.82,0.8892433867311745
4342.72,0.9080894322523505
4343.62,0.9394865929316554
4344.52,0.9775940721663499
4345.42,1.0188138939749385
4346.32,1.0535898635206642
4347.22,1.085307451311501
4348.12,1.1015043422289488
4349.02,1.1097963575552818
4349.92,1.1079666520796536
4350.82,1.0852781546526586
4351.72,1.0670781687332438
4352.62,1.0444419650215613
4353.52,1.0301095556938666
4354.42,1.0318886572766426
4355.32,1.030584194166064
4356.22,1.053330022352957
4357.12,1.0684951711903456
4358.02,1.081046351983901
4358.92,1.0888252550499404
4359.83,1.0996116990261735
4360.73,1.1113620359360792
