wave,flux
3700.85,-7.945901456285964e-05
3701.75,-7.901400274277072e-05
3702.65,-7.792212028018046e-05
3703.55,-7.539936180675703e-05
3704.45,-7.261812590863005e-05
3705.35,-7.101376511401046e-05
3706.25,-7.036708134292367e-05
3707.15,-7.063116493063762e-05
3708.05,-7.15914330182981e-05
3708.96,-7.306600326860257e-05
3709.86,-7.411786844032717e-05
3710.76,-7.49938765451863e-05
3711.66,-7.635325346573913e-05
3712.56,-7.879856410653225e-05
3713.46,-8.122347125358305e-05
3714.36,-8.498001768783499e-05
3715.26,-8.764765455352748e-05
3716.16,-8.999838513441979e-05
3717.06,-9.086892210504927e-05
3717.96,-8.994324615874081e-05
3718.86,-8.684345163092096e-05
3719.76,-8.295144006138378e-05
3720.66,-7.865731434857124e-05
3721.56,-7.496804596107196e-05
3722.46,-7.380262318980362e-05
3723.36,-7.526323646039242e-05
3724.26,-7.882365678088273e-05
3725.16,-8.345325252610395e-05
3726.06,-8.800866686254982e-05
3726.96,-9.177840056562475e-05
3727.86,-9.390236979730455e-05
3728.76,-9.487889035221751e-05
3729.66,-9.545586837849818e-05
3730.56,-9.405199992424072e-05
3731.46,-9.116112429900886e-05
3732.36,-8.681615959546941e-05
3733.26,-8.195487981158517e-05
3734.16,-7.689374997380041e-05
3735.06,-7.343082085089761e-05
3735.96,-7.324941420341769e-05
3736.86,-7.511979776879591e-05
3737.76,-7.976484151723341e-05
3738.66,-8.647634092600889e-05
3739.56,-9.352744269567787e-05
3740.46,-9.953631782087447e-05
3741.36,-0.00010388616476412357
3742.26,-0.00010581021644451196
3743.16,-0.00010556685187610278
3744.06,-0.00010438005281057319
3744.96,-0.00010160391811006674
3745.86,-9.78924813287859e-05
3746.76,-9.34462292254711e-05
3747.67,-8.854847570433513e-05
3748.57,-8.465246700678696e-05
3749.47,-8.141245114273573e-05
3750.37,-8.041794220711334e-05
3751.27,-8.281167237427214e-05
3752.17,-8.854459309738418e-05
3753.07,-9.59740031154268e-05
3753.97,-0.00010341767427798053
3754.87,-0.00011090091376628036
3755.77,-0.00011567324990125494
3756.67,-0.00011896450433645657
3757.57,-0.00011893672642597493
3758.47,-0.0001182766660826634
3759.37,-0.00011744979283061062
3760.27,-0.00011756405062282347
3761.17,-0.00011857211017396556
3762.07,-0.00012102939025111114
3762.97,-0.00012326820582832248
3763.87,-0.00012481852857569635
3764.77,-0.00012546822648868366
3765.67,-0.00012497673286799652
3766.57,-0.00012253381708267596
3767.47,-0.0001188114575116421
3768.37,-0.0001152474224493825
3769.27,-0.00011181666724457886
3770.17,-0.00010831691829634594
3771.07,-0.00010703747292448817
3771.97,-0.00010930018472962564
3772.87,-0.00011238030361968251
3773.77,-0.00011837568020803762
3774.67,-0.00012421424795766304
3775.57,-0.00013086192315839943
3776.47,-0.0001364058377929343
3777.37,-0.00014226268999388103
3778.27,-0.00014692052860868749
3779.17,-0.00015296501811876514
3780.07,-0.00015646051784796755
3780.97,-0.00016172696224066993
3781.87,-0.0001650554406890231
3782.77,-0.00016716513680930517
3783.67,-0.00016803341765805427
3784.57,-0.00016784612977196407
3785.47,-0.00016647159966038551
3786.38,-0.00016446561872389894
3787.28,-0.0001609062343321432
3788.18,-0.00015895283038022548
3789.08,-0.0001567055739838856
3789.98,-0.00015524758714962367
3790.88,-0.00015370774455179185
3791.78,-0.000151670540556244
3792.68,-0.00014840819030690448
3793.58,-0.00014457215649314376
3794.48,-0.00013941169711114448
3795.38,-0.00013282011697663893
3796.28,-0.00012617738197821945
3797.18,-0.00012014991990997228
3798.08,-0.00011694820578086092
3798.98,-0.00011734620343409699
3799.88,-0.00012172888143703332
3800.78,-0.00012963023577903864
3801.68,-0.000139826009300634
3802.58,-0.000150751320188603
3803.48,-0.00016136424933260672
3804.38,-0.0001696783520937607
3805.28,-0.00017613125508131222
3806.18,-0.00017894685530823616
3807.08,-0.00018284429673341837
3807.98,-0.0001874391237387861
3808.88,-0.00019140696078413186
3809.78,-0.00019490525902379833
3810.68,-0.00019818123012270954
3811.58,-0.00019985067288441597
3812.48,-0.00019904701616584828
3813.38,-0.00019864046838577053
3814.28,-0.0001951989481597119
3815.18,-0.00019400421280535107
3816.08,-0.0001941934120193811
3816.98,-0.00019516177264295757
3817.88,-0.00019717569146106222
3818.78,-0.00019775751260951417
3819.68,-0.00019832002794297762
3820.58,-0.00019928728859153658
3821.48,-0.00019719386618864823
3822.38,-0.00019675517800543584
3823.28,-0.00019519481622672435
3824.18,-0.00019269872278703754
3825.09,-0.00018944699876333415
3825.99,-0.00018627257208758308
3826.89,-0.0001830979440085969
3827.79,-0.00018017098097818505
3828.69,-0.00017693690993246145
3829.59,-0.00017290353711299156
3830.49,-0.0001697005440515087
3831.39,-0.00016260967421120103
3832.29,-0.0001553481639523054
3833.19,-0.00014748297899471675
3834.09,-0.0001384272944234519
3834.99,-0.00013305267166526988
3835.89,-0.00013038006002005415
3836.79,-0.00013054125920519002
3837.69,-0.00013479106358225713
3838.59,-0.00014175458629316336
3839.49,-0.00015077677914214903
3840.39,-0.0001619659301506338
3841.29,-0.0001737828329256253
3842.19,-0.00018577255940781603
3843.09,-0.00019832301273904583
3843.99,-0.00020924823074418668
3844.89,-0.0002184674695641709
3845.79,-0.00022695442824014552
3846.69,-0.00023467196474422831
3847.59,-0.00023940290762464788
3848.49,-0.00024378598001183636
3849.39,-0.0002466762212785054
3850.29,-0.00025008992561220385
3851.19,-0.0002544961622603069
3852.09,-0.0002583002450170548
3852.99,-0.0002614311085841324
3853.89,-0.00026394854984957116
3854.79,-0.0002659445091971279
3855.69,-0.00026629330768734844
3856.59,-0.000265992067566069
3857.49,-0.0002648217883479611
3858.39,-0.00026277325088230213
3859.29,-0.0002634311819124797
3860.19,-0.00026531179450907394
3861.09,-0.0002676799475429748
3861.99,-0.0002737273040956721
3862.9,-0.00028019678623171653
3863.8,-0.00028655725333359043
3864.7,-0.0002912619820827114
3865.6,-0.0002939598495681114
3866.5,-0.0002955686718351471
3867.4,-0.00029610867113450057
3868.3,-0.0002967246788537928
3869.2,-0.0002984139642407522
3870.1,-0.0002969575066402191
3871.0,-0.0002945655503827921
3871.9,-0.000290101413999991
3872.8,-0.00028721562041645785
3873.7,-0.00028523318323753335
3874.6,-0.0002846384429941818
3875.5,-0.00028607203792440787
3876.4,-0.00028639616170118094
3877.3,-0.00028542119574202475
3878.2,-0.0002846877936589721
3879.1,-0.00028215831066532904
3880.0,-0.0002804424182167281
3880.9,-0.0002789581637978063
3881.8,-0.0002785270861107899
3882.7,-0.00027555631047412215
3883.6,-0.0002722868003788499
3884.5,-0.0002633924207081717
3885.4,-0.0002540483891651082
3886.3,-0.00024315140988217927
3887.2,-0.00023022460996758876
3888.1,-0.0002189767788270028
3889.0,-0.00021223871008045327
3889.9,-0.00021078349892441218
3890.8,-0.0002154524729503836
3891.7,-0.00022747925489096898
3892.6,-0.00024092173964617014
3893.5,-0.00025537297248578566
3894.4,-0.00026814730564248625
3895.3,-0.00028098887271697017
3896.2,-0.00029270369360378905
3897.1,-0.0002992946843500617
3898.0,-0.00030951669375804875
3898.9,-0.0003171080102684179
3899.8,-0.0003239432748176812
3900.7,-0.0003287183531029054
3901.6,-0.00033683562628905866
3902.51,-0.00033969963755877883
3903.41,-0.00034257922715919713
3904.31,-0.0003458248652695382
3905.21,-0.00034789651427661076
3906.11,-0.00035186971272705813
3907.01,-0.00035757842321574885
3907.91,-0.00036365809753168796
3908.81,-0.00037170447683020086
3909.71,-0.00038225071492029646
3910.61,-0.00039464857268083775
3911.51,-0.0003983888816613115
3912.41,-0.00040327319133409635
3913.31,-0.0004069440283912528
3914.21,-0.00040677246064225076
3915.11,-0.00040672181777967354
3916.01,-0.00040698271452102824
3916.91,-0.0004057867127609536
3917.81,-0.00040313865468849004
3918.71,-0.0004022193521880268
3919.61,-0.0004018405452525212
3920.51,-0.00040090207577877645
3921.41,-0.0004000186792660595
3922.31,-0.0004000003234380747
3923.21,-0.000403516663315351
3924.11,-0.00040248569970495745
3925.01,-0.0004003514037901191
3925.91,-0.00039517264370562516
3926.81,-0.000386143323663634
3927.71,-0.00036873683267453364
3928.61,-0.0003494260008057884
3929.51,-0.0003243995160001082
3930.41,-0.00029679545480331424
3931.31,-0.0002666867328912394
3932.21,-0.00023551456304079957
3933.11,-0.00021187073627909693
3934.01,-0.00019646119576190575
3934.91,-0.00019470848862621675
3935.81,-0.00020708220436876194
3936.71,-0.00023059827731077495
3937.61,-0.0002632148185752575
3938.51,-0.0002996757077924444
3939.42,-0.00033689616976681833
3940.32,-0.0003686530949909567
3941.22,-0.00039497159119944523
3942.12,-0.0004116422312958627
3943.02,-0.00042878057259053567
3943.92,-0.00043984401661039296
3944.82,-0.0004513101490717987
3945.72,-0.0004593253351707906
3946.62,-0.00046878847951651204
3947.52,-0.00047838888435689376
3948.42,-0.00048317084678873554
3949.32,-0.0004876012931898759
3950.22,-0.0004934971851706581
3951.12,-0.0005000672711682821
3952.02,-0.0005019576307402846
3952.92,-0.000505288993876076
3953.82,-0.0005107071626281998
3954.72,-0.0005111104146966645
3955.62,-0.0005137171119239362
3956.52,-0.00051249420462798
3957.42,-0.0005084525851182423
3958.32,-0.00050485420963357
3959.22,-0.0005004725826710831
3960.12,-0.0004935257251665665
3961.02,-0.0004809683356846615
3961.92,-0.0004653364957191064
3962.82,-0.0004419237748852618
3963.72,-0.00041944028600529083
3964.62,-0.0003904678304378592
3965.52,-0.00035684874165775414
3966.42,-0.0003203981996486083
3967.32,-0.00028311500070797243
3968.22,-0.00025241797934110155
3969.12,-0.00023017316497720225
3970.02,-0.00022238792285531422
3970.92,-0.00023063809843696216
3971.82,-0.00025408452157073735
3972.72,-0.0002880102525108289
3973.62,-0.00033037018410845165
3974.52,-0.000371385333012372
3975.42,-0.0004136176694585832
3976.32,-0.0004528193510838641
3977.22,-0.0004867035173799248
3978.13,-0.0005192483608849676
3979.03,-0.0005443749889791139
3979.93,-0.0005696131567220595
3980.83,-0.0005861474846107853
3981.73,-0.0006024713791068716
3982.63,-0.0006142048499580341
3983.53,-0.0006256737416555633
3984.43,-0.0006360481608560994
3985.33,-0.0006449219526484163
3986.23,-0.0006581899373306574
3987.13,-0.0006689144654224313
3988.03,-0.0006818698442419249
3988.93,-0.0006934013123088914
3989.83,-0.0007045096964749973
3990.73,-0.0007153480932086226
3991.63,-0.0007288733017485245
3992.53,-0.0007328673938371847
3993.43,-0.0007428883494583402
3994.33,-0.0007461531599673041
3995.23,-0.000746717032016927
3996.13,-0.0007473660715912807
3997.03,-0.0007460546172688647
3997.93,-0.0007506193261144099
3998.83,-0.0007553220515613226
3999.73,-0.0007680866466018033
4000.63,-0.0007801987806338481
4001.53,-0.0007937043473384421
4002.43,-0.000802667991095111
4003.33,-0.0008104234186241428
4004.23,-0.0008127614861671114
4005.13,-0.0008101711002515105
4006.03,-0.0008117162173918589
4006.93,-0.0008144136688232086
4007.83,-0.000821861350325492
4008.73,-0.0008360918790297706
4009.63,-0.000851959707624428
4010.53,-0.0008655628459661832
4011.43,-0.0008775347517414653
4012.33,-0.0008835394211832012
4013.23,-0.0008890930288374044
4014.13,-0.00089387706545944
4015.03,-0.0009055685160626767
4015.93,-0.0009119793944156392
4016.84,-0.0009201738210970667
4017.74,-0.0009263050375344003
4018.64,-0.0009346124775505758
4019.54,-0.0009447247544459974
4020.44,-0.0009517450891290876
4021.34,-0.0009595828183935665
4022.24,-0.0009666452919609018
4023.14,-0.0009679351936608003
4024.04,-0.000976878017763938
4024.94,-0.000982622972326549
4025.84,-0.000996900767481454
4026.74,-0.0009964740218832634
4027.64,-0.0010107799267748585
4028.54,-0.0010160362351013517
4029.44,-0.0010158300163947338
4030.34,-0.0010109802030645128
4031.24,-0.0010000783664674102
4032.14,-0.0009962432178426993
4033.04,-0.0009931140097982432
4033.94,-0.001003574744416607
4034.84,-0.0010158140079029026
4035.74,-0.0010391684391303185
4036.64,-0.0010628466582482047
4037.54,-0.001088545880468173
4038.44,-0.0011074828476243697
4039.34,-0.001126506941669995
4040.24,-0.0011312837055390446
4041.14,-0.0011336078759727657
4042.04,-0.0011292075373413527
4042.94,-0.0011240514433703216
4043.84,-0.0011134803075890092
4044.74,-0.0011112482833259573
4045.64,-0.0010967309695569642
4046.54,-0.0011011368925904327
4047.44,-0.001111626479820129
4048.34,-0.0011287191120807414
4049.24,-0.0011546218426512812
4050.14,-0.0011804465331958875
4051.04,-0.0011951920647186075
4051.94,-0.001208575861650945
4052.84,-0.0012141356369052099
4053.74,-0.001218463697984083
4054.65,-0.001215501606092624
4055.55,-0.0012197426752986833
4056.45,-0.0012217637201842409
4057.35,-0.0012245127970151308
4058.25,-0.0012334215334982932
4059.15,-0.0012465447515017205
4060.05,-0.0012580021707746718
4060.95,-0.0012649319894995597
4061.85,-0.0012646876731845337
4062.75,-0.001264242405335784
4063.65,-0.0012618105983681397
4064.55,-0.001263844089231885
4065.45,-0.001266457181273354
4066.35,-0.0012747062351244449
4067.25,-0.0012863093721693852
4068.15,-0.0013096533625938753
4069.05,-0.0013279628791086897
4069.95,-0.0013445358396927546
4070.85,-0.0013539796773538537
4071.75,-0.0013573181972233977
4072.65,-0.0013601709312309443
4073.55,-0.0013683142701938831
4074.45,-0.0013654604511530377
4075.35,-0.0013607952671876465
4076.25,-0.0013484673939554133
4077.15,-0.001340544657057361
4078.05,-0.0013350135075500306
4078.95,-0.0013378852373052796
4079.85,-0.0013662369188127037
4080.75,-0.0013883049220738937
4081.65,-0.0014066565042662733
4082.55,-0.0014373405729193522
4083.45,-0.0014525728817602259
4084.35,-0.0014624901172196315
4085.25,-0.0014750388722792947
4086.15,-0.0014845265270718344
4087.05,-0.0015027667150291624
4087.95,-0.0015265945037789181
4088.85,-0.0015521616405208133
4089.75,-0.001567551765364455
4090.65,-0.001563148711020924
4091.55,-0.001566083486664691
4092.45,-0.001563433593418778
4093.36,-0.0015561622733943849
4094.26,-0.0015353047538017807
4095.16,-0.0015187908364238411
4096.06,-0.0014871333887014424
4096.96,-0.0014489267132614422
4097.86,-0.0014030686610754925
4098.76,-0.0013526839756981632
4099.66,-0.0012967294850580026
4100.56,-0.0012414421280975804
4101.46,-0.0011946594199464988
4102.36,-0.001173487859419891
4103.26,-0.0011797809315974156
4104.16,-0.0012180806908067897
4105.06,-0.0012842207846613179
4105.96,-0.0013539964062296572
4106.86,-0.0014285454493063016
4107.76,-0.0015034503966717613
4108.66,-0.0015610444599557663
4109.56,-0.0016098245878024147
4110.46,-0.0016473639743527638
4111.36,-0.0016929697837203617
4112.26,-0.0017353216719210246
4113.16,-0.0017718162997642443
4114.06,-0.0018036407564046464
4114.96,-0.00184512167900488
4115.86,-0.0018778472445045637
4116.76,-0.0019085897038179176
4117.66,-0.0019197052036287734
4118.56,-0.0019347414393305134
4119.46,-0.0019398346195018594
4120.36,-0.0019543697593895435
4121.26,-0.0019634681109185156
4122.16,-0.0019881424049137415
4123.06,-0.0020060941213007584
4123.96,-0.0020328985367945147
4124.86,-0.0020573989575977656
4125.76,-0.0020838244955659435
4126.66,-0.0021103705934959103
4127.56,-0.002129710814279935
4128.46,-0.0021271343393197235
4129.36,-0.002127551587195114
4130.26,-0.002145041292681825
4131.17,-0.002146658140909187
4132.06,-0.0021564635546060247
4132.97,-0.0021549093629536944
4133.87,-0.002180477755594452
4134.77,-0.00219978045421848
4135.67,-0.0022286341921882204
4136.57,-0.0022780827306381033
4137.47,-0.0023365296113805655
4138.37,-0.0023727565042877424
4139.27,-0.0024100706608661065
4140.17,-0.0024416093324373545
4141.07,-0.0024350350771687717
4141.97,-0.002445573052130145
4142.87,-0.0024268050677288327
4143.77,-0.0024238641993566097
4144.67,-0.002418945919358629
4145.57,-0.002445642211620351
4146.47,-0.0024824597045219974
4147.37,-0.0025187656987896495
4148.27,-0.0025586207474307164
4149.17,-0.002589651799727851
4150.07,-0.002604642153532492
4150.97,-0.002619648619755363
4151.87,-0.002643803014165765
4152.77,-0.0026554513721015853
4153.67,-0.0026600949305231533
4154.57,-0.0026604675015441054
4155.47,-0.0026892235523064576
4156.37,-0.0027143682987581393
4157.27,-0.0027350523163140257
4158.17,-0.0027631992834290346
4159.07,-0.002810143146490778
4159.97,-0.0028517005982713474
4160.87,-0.002902779714802389
4161.77,-0.002929649045256163
4162.67,-0.002963365018285703
4163.57,-0.002998590153339543
4164.47,-0.0030214695597510686
4165.37,-0.003030317743757302
4166.27,-0.003055528546829538
4167.17,-0.003070867586503127
4168.07,-0.003072312573147762
4168.98,-0.003094967551412589
4169.88,-0.0030809600960265793
4170.78,-0.0030813354280824976
4171.68,-0.003051706631572859
4172.58,-0.003044684820012506
4173.48,-0.003048636519262554
4174.38,-0.0030560781537535284
4175.28,-0.003067406276199328
4176.18,-0.003098442360394115
4177.08,-0.003127731233318342
4177.98,-0.003193726335245567
4178.88,-0.0032311983245656294
4179.78,-0.003273886578337218
4180.68,-0.003321635152907709
4181.58,-0.0033743368895972586
4182.48,-0.003414591174173945
4183.38,-0.00342905372665005
4184.28,-0.003470929609541255
4185.18,-0.003496441353999992
4186.08,-0.0035187197736155423
4186.98,-0.0035342033987954204
4187.88,-0.003559979400564905
4188.78,-0.003593109547754986
4189.68,-0.003637153977800097
4190.58,-0.003668292438290086
4191.48,-0.0037083663841753515
4192.38,-0.003763490236952324
4193.28,-0.003831076458806085
4194.18,-0.0038578629888701118
4195.08,-0.00387701646576339
4195.98,-0.003869307943888696
4196.88,-0.003853089788082955
4197.78,-0.0038518506650391466
4198.68,-0.003859842178125677
4199.58,-0.0038572361515708366
4200.48,-0.0038726274058644905
4201.38,-0.0038933306132195623
4202.28,-0.003927586252887209
4203.18,-0.003969757013171539
4204.08,-0.00402787144908524
4204.98,-0.004083645616774336
4205.88,-0.004146698915211751
4206.79,-0.0042141211769350624
4207.69,-0.004275608159390368
4208.59,-0.0043529304536228785
4209.49,-0.004395294311754988
4210.39,-0.004462724071080434
4211.29,-0.004497174495023069
4212.19,-0.004511350213680815
4213.09,-0.0045521998867302915
4213.99,-0.004572980139987775
4214.89,-0.0045675944755798415
4215.79,-0.004580199595471924
4216.69,-0.004598889312467193
4217.59,-0.004642771320835334
4218.49,-0.00467177770958307
4219.39,-0.00476635564043755
4220.29,-0.004839747304378259
4221.19,-0.004891801656427371
4222.09,-0.004891693039117972
4222.99,-0.0049027834314174885
4223.89,-0.0048478988845677565
4224.79,-0.0047836308897790435
4225.69,-0.004726149844856269
4226.59,-0.004680708552954232
4227.49,-0.004671921186685862
4228.39,-0.004731143337296102
4229.29,-0.004841102327846768
4230.19,-0.00501682633831897
4231.09,-0.005140556985818453
4231.99,-0.005251839449688862
4232.89,-0.00535209821064355
4233.79,-0.005353836651895346
4234.69,-0.0054139940319014035
4235.59,-0.005445739019687928
4236.49,-0.005456631438311444
4237.39,-0.005465995636438045
4238.29,-0.0055190540287162575
4239.19,-0.005592890638532617
4240.09,-0.005673975248239375
4240.99,-0.005765147750787138
4241.89,-0.005850626978018824
4242.79,-0.0059330580529673455
4243.69,-0.005996334113006923
4244.59,-0.006083280535341945
4245.5,-0.006117104487624336
4246.4,-0.006100129514823982
4247.3,-0.006117144573639905
4248.2,-0.006127236403587272
4249.1,-0.006128268906666207
4250.0,-0.006154347215196852
4250.9,-0.0061985945917419705
4251.8,-0.006291679450725785
4252.7,-0.006386635299600381
4253.6,-0.006493916824720706
4254.5,-0.006549456835408046
4255.4,-0.006605115326031931
4256.3,-0.006725740141956412
4257.2,-0.006803444328189391
4258.1,-0.006827976784024421
4259.0,-0.0068617829454771006
4259.9,-0.006877116637660021
4260.8,-0.006958314347445042
4261.7,-0.006975612954768123
4262.6,-0.007105619930437042
4263.5,-0.0072196069072635845
4264.4,-0.00737611638583101
4265.3,-0.007475659749896881
4266.2,-0.007578921717977644
4267.1,-0.00763692211815822
4268.0,-0.0076758987434091255
4268.9,-0.007648503139806172
4269.8,-0.007626645430901474
4270.7,-0.007541324608937764
4271.6,-0.007492811576139934
4272.5,-0.007493904606533706
4273.4,-0.007527809549427775
4274.3,-0.007562341268735919
4275.2,-0.007687682561618249
4276.1,-0.007825383094891898
4277.0,-0.008019771181508345
4277.9,-0.008163044013947695
4278.8,-0.008310720019242086
4279.7,-0.008412652544418728
4280.6,-0.008473736174271015
4281.5,-0.00853520748891827
4282.4,-0.00858319320861453
4283.31,-0.008629017536573398
