wave,flux
3700.85,-5.311082098168917e-07
3701.75,-5.26340812508562e-07
3702.65,-5.103036567874352e-07
3703.55,-4.80836732313676e-07
3704.45,-4.5484326396700515e-07
3705.35,-4.3009493241500576e-07
3706.25,-4.1196969020498795e-07
3707.15,-4.011746107162648e-07
3708.05,-4.0192229629449594e-07
3708.96,-4.1001548172491243e-07
3709.86,-4.2313188261700326e-07
3710.76,-4.4275925657460156e-07
3711.66,-4.673041751124409e-07
3712.56,-4.929837331341692e-07
3713.46,-5.179099878713473e-07
3714.36,-5.382263949683652e-07
3715.26,-5.476647519523998e-07
3716.16,-5.469269488077239e-07
3717.06,-5.361603064411645e-07
3717.96,-5.13125662407053e-07
3718.86,-4.788022353489149e-07
3719.76,-4.425856361067529e-07
3720.66,-4.104629794391268e-07
3721.56,-3.8536506319476485e-07
3722.46,-3.822905493710783e-07
3723.36,-3.9572751970219726e-07
3724.26,-4.2030240841665357e-07
3725.16,-4.4776268787774386e-07
3726.06,-4.705117181697235e-07
3726.96,-4.848107023491891e-07
3727.86,-4.874355026484748e-07
3728.76,-4.887440262070449e-07
3729.66,-4.827584586095477e-07
3730.56,-4.713822115438606e-07
3731.46,-4.5140563495622913e-07
3732.36,-4.2485578201462006e-07
3733.26,-3.938376073384464e-07
3734.16,-3.62251295862945e-07
3735.06,-3.3905999645598023e-07
3735.96,-3.3315200632469617e-07
3736.86,-3.417155972357282e-07
3737.76,-3.6430937505346283e-07
3738.66,-3.9769903213663764e-07
3739.56,-4.340833827355591e-07
3740.46,-4.6424451748756874e-07
3741.36,-4.85545500856125e-07
3742.26,-4.894345136523801e-07
3743.16,-4.790262636747023e-07
3744.06,-4.620399117206376e-07
3744.96,-4.353632949379312e-07
3745.86,-4.108953576000252e-07
3746.76,-3.863840072036902e-07
3747.67,-3.6751858373517525e-07
3748.57,-3.5150617422388277e-07
3749.47,-3.468031874475649e-07
3750.37,-3.53691368652017e-07
3751.27,-3.781053774152004e-07
3752.17,-4.134798305537112e-07
3753.07,-4.574635360751957e-07
3753.97,-4.969947312296333e-07
3754.87,-5.299481030617196e-07
3755.77,-5.448979823269268e-07
3756.67,-5.412718135089642e-07
3757.57,-5.269531378280226e-07
3758.47,-5.033819310929056e-07
3759.37,-4.869716931393154e-07
3760.27,-4.780683375049288e-07
3761.17,-4.799816003964731e-07
3762.07,-4.88501541946455e-07
3762.97,-4.928666848779543e-07
3763.87,-4.979499888381091e-07
3764.77,-4.990656635437713e-07
3765.67,-4.974810942215365e-07
3766.57,-4.925678452285083e-07
3767.47,-4.862556596886216e-07
3768.37,-4.782845623929051e-07
3769.27,-4.735784934836505e-07
3770.17,-4.7629035521255964e-07
3771.07,-4.844210031089952e-07
3771.97,-5.000422543561151e-07
3772.87,-5.179340077266803e-07
3773.77,-5.392616223580628e-07
3774.67,-5.617687160965972e-07
3775.57,-5.717796274592465e-07
3776.47,-5.872142084876693e-07
3777.37,-6.020294689983591e-07
3778.27,-6.143753187694246e-07
3779.17,-6.287777839947715e-07
3780.07,-6.460570686146765e-07
3780.97,-6.576398400513015e-07
3781.87,-6.713574841387792e-07
3782.77,-6.811259015905006e-07
3783.67,-6.764537950796911e-07
3784.57,-6.703966064496993e-07
3785.47,-6.501428868782917e-07
3786.38,-6.274925996112289e-07
3787.28,-5.967014062816407e-07
3788.18,-5.714921181186305e-07
3789.08,-5.52253343662633e-07
3789.98,-5.398051332395108e-07
3790.88,-5.339410700988585e-07
3791.78,-5.286094696768523e-07
3792.68,-5.224430829043676e-07
3793.58,-5.114613435377062e-07
3794.48,-4.942239222577021e-07
3795.38,-4.737595920854449e-07
3796.28,-4.542180912615007e-07
3797.18,-4.355265949677885e-07
3798.08,-4.266786538402343e-07
3798.98,-4.277195057676366e-07
3799.88,-4.42716635094544e-07
3800.78,-4.686455872123478e-07
3801.68,-5.042681666476434e-07
3802.58,-5.434946644235894e-07
3803.48,-5.752295557550281e-07
3804.38,-5.985801894824601e-07
3805.28,-6.100688534180865e-07
3806.18,-6.189744612902552e-07
3807.08,-6.220379059790797e-07
3807.98,-6.260582147017604e-07
3808.88,-6.355343382428754e-07
3809.78,-6.409270639572379e-07
3810.68,-6.493447174451535e-07
3811.58,-6.457799320349778e-07
3812.48,-6.343306185145711e-07
3813.38,-6.12085806959504e-07
3814.28,-5.866210632117045e-07
3815.18,-5.632959764378146e-07
3816.08,-5.456663574324466e-07
3816.98,-5.406426679747104e-07
3817.88,-5.360325599887103e-07
3818.78,-5.359354617767155e-07
3819.68,-5.302144837669351e-07
3820.58,-5.235384241011126e-07
3821.48,-5.149015080098353e-07
3822.38,-5.079287443038705e-07
3823.28,-5.016582627615542e-07
3824.18,-4.889925021161678e-07
3825.09,-4.778767836097564e-07
3825.99,-4.5983683149948624e-07
3826.89,-4.468461903377347e-07
3827.79,-4.37054716396807e-07
3828.69,-4.3210331460803213e-07
3829.59,-4.282513497831855e-07
3830.49,-4.2357459605155553e-07
3831.39,-4.159275847948889e-07
3832.29,-4.0354717343608274e-07
3833.19,-3.883334938645125e-07
3834.09,-3.726428704928423e-07
3834.99,-3.6490192942986303e-07
3835.89,-3.5994560632227506e-07
3836.79,-3.626787866906177e-07
3837.69,-3.7069095377487035e-07
3838.59,-3.8221050248465087e-07
3839.49,-3.9569513970304695e-07
3840.39,-4.1771659827036546e-07
3841.29,-4.438113845352098e-07
3842.19,-4.7454193093825556e-07
3843.09,-5.049924175390589e-07
3843.99,-5.364642707867974e-07
3844.89,-5.620283977533094e-07
3845.79,-5.813327392664303e-07
3846.69,-5.943009699395651e-07
3847.59,-6.051733808545329e-07
3848.49,-6.090685593186448e-07
3849.39,-6.148549761884167e-07
3850.29,-6.161243299380439e-07
3851.19,-6.164416467759444e-07
3852.09,-6.200412596239752e-07
3852.99,-6.21098554045489e-07
3853.89,-6.171954081306868e-07
3854.79,-6.122675978791686e-07
3855.69,-6.041163669218884e-07
3856.59,-5.919537102111209e-07
3857.49,-5.794687003095036e-07
3858.39,-5.640381708199211e-07
3859.29,-5.557722240775578e-07
3860.19,-5.544095631920712e-07
3861.09,-5.634012407024518e-07
3861.99,-5.833177819647912e-07
3862.9,-6.060510263860402e-07
3863.8,-6.28597763599375e-07
3864.7,-6.438723025325932e-07
3865.6,-6.501611515196618e-07
3866.5,-6.485094965586708e-07
3867.4,-6.418449135382104e-07
3868.3,-6.348443581346445e-07
3869.2,-6.223871506679754e-07
3870.1,-6.094816206125752e-07
3871.0,-5.954981115980592e-07
3871.9,-5.86277623326805e-07
3872.8,-5.846155673021712e-07
3873.7,-5.892721733617821e-07
3874.6,-6.018109728124256e-07
3875.5,-6.167344802266418e-07
3876.4,-6.250396540075104e-07
3877.3,-6.232197104087321e-07
3878.2,-6.149636014707599e-07
3879.1,-6.07857129509943e-07
3880.0,-5.952547224057968e-07
3880.9,-5.908399830625373e-07
3881.8,-5.850231968865748e-07
3882.7,-5.824365771942684e-07
3883.6,-5.755947510586104e-07
3884.5,-5.666850461547343e-07
3885.4,-5.51464549175315e-07
3886.3,-5.307395887804073e-07
3887.2,-5.089874575396916e-07
3888.1,-4.95920013476621e-07
3889.0,-4.923454811821284e-07
3889.9,-5.001701352307021e-07
3890.8,-5.236235212251945e-07
3891.7,-5.547371309005346e-07
3892.6,-5.893879320143629e-07
3893.5,-6.200989632181268e-07
3894.4,-6.433098968963872e-07
3895.3,-6.629684316534356e-07
3896.2,-6.742611390847968e-07
3897.1,-6.870101683067316e-07
3898.0,-6.949278998040573e-07
3898.9,-7.024634320402577e-07
3899.8,-7.06923338859437e-07
3900.7,-7.117460549360816e-07
3901.6,-7.164725635459138e-07
3902.51,-7.166940013091387e-07
3903.41,-7.103305814747547e-07
3904.31,-7.047098780601093e-07
3905.21,-6.987636627814832e-07
3906.11,-6.973642026550179e-07
3907.01,-7.088074732119493e-07
3907.91,-7.284149637750612e-07
3908.81,-7.530917703725302e-07
3909.71,-7.78466736303879e-07
3910.61,-8.013554656476329e-07
3911.51,-8.216877293430928e-07
3912.41,-8.332836853635133e-07
3913.31,-8.366694595736058e-07
3914.21,-8.314624676339327e-07
3915.11,-8.256942590544906e-07
3916.01,-8.171142874132842e-07
3916.91,-8.042495217070425e-07
3917.81,-7.881935234428229e-07
3918.71,-7.695970915208092e-07
3919.61,-7.500078088977261e-07
3920.51,-7.323217488631634e-07
3921.41,-7.190189222205693e-07
3922.31,-7.07869293808989e-07
3923.21,-7.049060230905601e-07
3924.11,-6.976583165099121e-07
3925.01,-6.853007275511785e-07
3925.91,-6.630184580113232e-07
3926.81,-6.330580913441417e-07
3927.71,-5.876474078207365e-07
3928.61,-5.348030518284625e-07
3929.51,-4.776021868868909e-07
3930.41,-4.1986534046401036e-07
3931.31,-3.659658443495677e-07
3932.21,-3.1481431463192033e-07
3933.11,-2.781201152972991e-07
3934.01,-2.5771679641886137e-07
3934.91,-2.5464429800125915e-07
3935.81,-2.7354011829477e-07
3936.71,-3.099793035103704e-07
3937.61,-3.6051824260954347e-07
3938.51,-4.1777122795933683e-07
3939.42,-4.7446054391383583e-07
3940.32,-5.256817836502977e-07
3941.22,-5.677232268966271e-07
3942.12,-6.017142634545993e-07
3943.02,-6.255388692082105e-07
3943.92,-6.414391666419795e-07
3944.82,-6.627651963546816e-07
3945.72,-6.888539571692375e-07
3946.62,-7.143993206761601e-07
3947.52,-7.398160245321531e-07
3948.42,-7.667265030766841e-07
3949.32,-7.841815384371495e-07
3950.22,-8.025690517710358e-07
3951.12,-8.152283156643993e-07
3952.02,-8.226717131898857e-07
3952.92,-8.32243334305199e-07
3953.82,-8.337610686196465e-07
3954.72,-8.374662043563598e-07
3955.62,-8.360742222894216e-07
3956.52,-8.253252911884757e-07
3957.42,-8.183629048770014e-07
3958.32,-8.065353975741209e-07
3959.22,-7.898514735726514e-07
3960.12,-7.701620632424982e-07
3961.02,-7.363067432920424e-07
3961.92,-6.911591730816647e-07
3962.82,-6.405192961559887e-07
3963.72,-5.899412318367666e-07
3964.62,-5.353447799484307e-07
3965.52,-4.803344539647301e-07
3966.42,-4.2674100912694597e-07
3967.32,-3.763796204126776e-07
3968.22,-3.3559300452268767e-07
3969.12,-3.1012012691133647e-07
3970.02,-3.057884391464732e-07
3970.92,-3.2240987279611515e-07
3971.82,-3.5898689628984073e-07
3972.72,-4.1157276944157475e-07
3973.62,-4.698596262818231e-07
3974.52,-5.330297582447525e-07
3975.42,-5.926641427874686e-07
3976.32,-6.512126912346271e-07
3977.22,-7.067974074074374e-07
3978.13,-7.5769940505002e-07
3979.03,-8.050445453292251e-07
3979.93,-8.436428663849447e-07
3980.83,-8.791154417907788e-07
3981.73,-8.966797839838844e-07
3982.63,-9.089381460959047e-07
3983.53,-9.137385194639887e-07
3984.43,-9.240999443422015e-07
3985.33,-9.304710257577413e-07
3986.23,-9.433739750527004e-07
3987.13,-9.527402590824818e-07
3988.03,-9.705976634613333e-07
3988.93,-9.832291158337492e-07
3989.83,-9.973708953230115e-07
3990.73,-1.0111718309274145e-06
3991.63,-1.0161250224388732e-06
3992.53,-1.0325150248539131e-06
3993.43,-1.0403441808892533e-06
3994.33,-1.0401403300781968e-06
3995.23,-1.0329626010181037e-06
3996.13,-1.0242275175531183e-06
3997.03,-1.0209395858716216e-06
3997.93,-1.0263448174419035e-06
3998.83,-1.0312050678416054e-06
3999.73,-1.0476336485197676e-06
4000.63,-1.0674476799454027e-06
4001.53,-1.0873211179866193e-06
4002.43,-1.095267607593092e-06
4003.33,-1.0968232402450026e-06
4004.23,-1.07814946609405e-06
4005.13,-1.0641365124926132e-06
4006.03,-1.0494217884787717e-06
4006.93,-1.0408748175509103e-06
4007.83,-1.0441551024788356e-06
4008.73,-1.0548618481320138e-06
4009.63,-1.0727355630634096e-06
4010.53,-1.1005084274815184e-06
4011.43,-1.1139167783893824e-06
4012.33,-1.1232736720942573e-06
4013.23,-1.1333506769205156e-06
4014.13,-1.138611390399558e-06
4015.03,-1.145314043729317e-06
4015.93,-1.1471145028311016e-06
4016.84,-1.1551189267741864e-06
4017.74,-1.1630784912072507e-06
4018.64,-1.1684585766439333e-06
4019.54,-1.1758775505618132e-06
4020.44,-1.183380483836273e-06
4021.34,-1.1838269936788387e-06
4022.24,-1.1860958483224705e-06
4023.14,-1.177495018752068e-06
4024.04,-1.1692329114251655e-06
4024.94,-1.169545900296825e-06
4025.84,-1.1759638082856467e-06
4026.74,-1.1768765245656392e-06
4027.64,-1.1795989402922002e-06
4028.54,-1.1691995522505786e-06
4029.44,-1.1566576533647647e-06
4030.34,-1.1290790198312306e-06
4031.24,-1.095332097989194e-06
4032.14,-1.0537496476106756e-06
4033.04,-1.0339643326914747e-06
4033.94,-1.0281798249649336e-06
4034.84,-1.0438932106805798e-06
4035.74,-1.0739885481000873e-06
4036.64,-1.1134131777277506e-06
4037.54,-1.1564220616154513e-06
4038.44,-1.1893295980863772e-06
4039.34,-1.2110712268631924e-06
4040.24,-1.2219288613855504e-06
4041.14,-1.214485613970309e-06
4042.04,-1.2020746325440456e-06
4042.94,-1.16990602786965e-06
4043.84,-1.135836366374251e-06
4044.74,-1.09959382970922e-06
4045.64,-1.0635974984813365e-06
4046.54,-1.0460781699008131e-06
4047.44,-1.051826105812344e-06
4048.34,-1.0816610516670696e-06
4049.24,-1.121288723730734e-06
4050.14,-1.1565070245569838e-06
4051.04,-1.1862546716974744e-06
4051.94,-1.197797477862997e-06
4052.84,-1.185928073188039e-06
4053.74,-1.1829137038648204e-06
4054.65,-1.1571619699545967e-06
4055.55,-1.13455845828755e-06
4056.45,-1.1156887093181943e-06
4057.35,-1.1022819052194585e-06
4058.25,-1.0982116829392866e-06
4059.15,-1.1000609241437087e-06
4060.05,-1.1045965189093306e-06
4060.95,-1.107858441651058e-06
4061.85,-1.1039969882238598e-06
4062.75,-1.0912142419726627e-06
4063.65,-1.0727718213766564e-06
4064.55,-1.0610222263001997e-06
4065.45,-1.0595252391552422e-06
4066.35,-1.0777526563637889e-06
4067.25,-1.0872816415966356e-06
4068.15,-1.112620324202248e-06
4069.05,-1.132687393510698e-06
4069.95,-1.141099078992703e-06
4070.85,-1.148181222904179e-06
4071.75,-1.1415672050305715e-06
4072.65,-1.1374846057443773e-06
4073.55,-1.132319651833394e-06
4074.45,-1.1234946873286757e-06
4075.35,-1.1100235444476514e-06
4076.25,-1.0900648536221042e-06
4077.15,-1.0849574139260224e-06
4078.05,-1.0808431495624039e-06
4078.95,-1.0803870645995356e-06
4079.85,-1.1008698066762737e-06
4080.75,-1.1324118362555506e-06
4081.65,-1.1646930186028983e-06
4082.55,-1.1928245978906816e-06
4083.45,-1.2043289695671205e-06
4084.35,-1.211610976913996e-06
4085.25,-1.2181727854685656e-06
4086.15,-1.2215829272278886e-06
4087.05,-1.2386010590175355e-06
4087.95,-1.2555492697474462e-06
4088.85,-1.2754219872664646e-06
4089.75,-1.2736885678939113e-06
4090.65,-1.2806723391639466e-06
4091.55,-1.2778189542249504e-06
4092.45,-1.265151258221423e-06
4093.36,-1.239492396323759e-06
4094.26,-1.2146892292715907e-06
4095.16,-1.1856990973073626e-06
4096.06,-1.1549139210557627e-06
4096.96,-1.1148286937620123e-06
4097.86,-1.0742562936358816e-06
4098.76,-1.0288356149464643e-06
4099.66,-9.839693169435277e-07
4100.56,-9.457487526806033e-07
4101.46,-9.160705449643837e-07
4102.36,-8.982286934090429e-07
4103.26,-9.040848471192108e-07
4104.16,-9.299153236156115e-07
4105.06,-9.68935639981126e-07
4105.96,-1.0241812253275316e-06
4106.86,-1.071590474841191e-06
4107.76,-1.1110372483622652e-06
4108.66,-1.1409436390822092e-06
4109.56,-1.1569759799633142e-06
4110.46,-1.1685460357049255e-06
4111.36,-1.1829703752299582e-06
4112.26,-1.1942995817002695e-06
4113.16,-1.2029153521758872e-06
4114.06,-1.2289845106158022e-06
4114.96,-1.249493257781407e-06
4115.86,-1.2689174107562616e-06
4116.76,-1.2747064588671866e-06
4117.66,-1.2751679458514409e-06
4118.56,-1.2711246489011404e-06
4119.46,-1.2597323532787161e-06
4120.36,-1.2491832540866274e-06
4121.26,-1.2437873797833186e-06
4122.16,-1.2454525132220196e-06
4123.06,-1.2454357089789531e-06
4123.96,-1.2530569566263703e-06
4124.86,-1.2577388609368648e-06
4125.76,-1.2633789459465816e-06
4126.66,-1.2620548025915753e-06
4127.56,-1.2509170222296618e-06
4128.46,-1.2470091578352075e-06
4129.36,-1.2346945031257197e-06
4130.26,-1.2228061172370045e-06
4131.17,-1.202306500953989e-06
4132.06,-1.196859113696789e-06
4132.97,-1.183633460334694e-06
4133.87,-1.1857823294812177e-06
4134.77,-1.2037092871811786e-06
4135.67,-1.231245189666795e-06
4136.57,-1.2599277774280293e-06
4137.47,-1.2931007466934872e-06
4138.37,-1.3177500895282818e-06
4139.27,-1.3288977559767886e-06
4140.17,-1.3367426173830545e-06
4141.07,-1.3237037071551556e-06
4141.97,-1.2985282873987371e-06
4142.87,-1.2699973989274835e-06
4143.77,-1.2436436554344046e-06
4144.67,-1.2244824000739036e-06
4145.57,-1.225877695064833e-06
4146.47,-1.2286508639449963e-06
4147.37,-1.251738476364358e-06
4148.27,-1.2668946692787377e-06
4149.17,-1.2722834258195535e-06
4150.07,-1.2678222825581353e-06
4150.97,-1.2651138999294964e-06
4151.87,-1.2534436727890952e-06
4152.77,-1.2552236561842806e-06
4153.67,-1.2405556868982338e-06
4154.57,-1.2352755953098548e-06
4155.47,-1.229548501995844e-06
4156.37,-1.2270545330253597e-06
4157.27,-1.2363467304183195e-06
4158.17,-1.2528964193002278e-06
4159.07,-1.2714462985607212e-06
4159.97,-1.294876532837183e-06
4160.87,-1.3138298505260698e-06
4161.77,-1.3368782424297489e-06
4162.67,-1.357032591499124e-06
4163.57,-1.3691179658333407e-06
4164.47,-1.3713503959133313e-06
4165.37,-1.364940303001023e-06
4166.27,-1.3599499685322923e-06
4167.17,-1.3450725181415533e-06
4168.07,-1.3352463274839258e-06
4168.98,-1.3144406541791392e-06
4169.88,-1.3096546174881533e-06
4170.78,-1.2819544210162214e-06
4171.68,-1.2642903799178824e-06
4172.58,-1.2424565604469701e-06
4173.48,-1.2224959972426283e-06
4174.38,-1.2029128416453775e-06
4175.28,-1.2072799881751907e-06
4176.18,-1.210484734571583e-06
4177.08,-1.2163995253624225e-06
4177.98,-1.225674192386121e-06
4178.88,-1.2357202847683237e-06
4179.78,-1.2498958297040685e-06
4180.68,-1.260990858348896e-06
4181.58,-1.2763094134490786e-06
4182.48,-1.2807466784832287e-06
4183.38,-1.2956631535172134e-06
4184.28,-1.303722897894671e-06
4185.18,-1.3158759689200074e-06
4186.08,-1.3192389431222865e-06
4186.98,-1.3228611255757308e-06
4187.88,-1.3193803060375265e-06
4188.78,-1.3234312773797665e-06
4189.68,-1.3343293983678505e-06
4190.58,-1.346832153909009e-06
4191.48,-1.3611424503871987e-06
4192.38,-1.374430727404677e-06
4193.28,-1.3872331063386332e-06
4194.18,-1.3869370372940411e-06
4195.08,-1.3800149172470083e-06
4195.98,-1.3536409336745563e-06
4196.88,-1.3286957996222344e-06
4197.78,-1.29908169987356e-06
4198.68,-1.2721774304927328e-06
4199.58,-1.2624473640644476e-06
4200.48,-1.2615054766234991e-06
4201.38,-1.2595875297211354e-06
4202.28,-1.2650575267016747e-06
4203.18,-1.2887787496236337e-06
4204.08,-1.3079805147006562e-06
4204.98,-1.3315581948317153e-06
4205.88,-1.362775093651761e-06
4206.79,-1.3932896685575258e-06
4207.69,-1.4160083853015347e-06
4208.59,-1.431730957090354e-06
4209.49,-1.4402924230590786e-06
4210.39,-1.4491875263319178e-06
4211.29,-1.4522251096763827e-06
4212.19,-1.448316318199212e-06
4213.09,-1.4437029793123152e-06
4213.99,-1.4286903087988643e-06
4214.89,-1.4136762083856016e-06
4215.79,-1.4050576432834878e-06
4216.69,-1.404745288756518e-06
4217.59,-1.420921075431874e-06
4218.49,-1.4390230503499596e-06
4219.39,-1.4745864837536378e-06
4220.29,-1.4859369840059182e-06
4221.19,-1.498507797461448e-06
4222.09,-1.4913401690738055e-06
4222.99,-1.4580166716947945e-06
4223.89,-1.4065273324985012e-06
4224.79,-1.3361727770041135e-06
4225.69,-1.2772889400107426e-06
4226.59,-1.222937009285092e-06
4227.49,-1.2041999426006893e-06
4228.39,-1.2170557508595177e-06
4229.29,-1.258027128545995e-06
4230.19,-1.3206397692606143e-06
4231.09,-1.3782004914310165e-06
4231.99,-1.4218454595266763e-06
4232.89,-1.44649747798985e-06
4233.79,-1.4498171672869265e-06
4234.69,-1.4415069316198821e-06
4235.59,-1.4347539379939683e-06
4236.49,-1.415614541375999e-06
4237.39,-1.416024841938908e-06
4238.29,-1.4097300974272322e-06
4239.19,-1.4278512630427585e-06
4240.09,-1.4445141441697399e-06
4240.99,-1.4697863348111085e-06
4241.89,-1.5033940683987483e-06
4242.79,-1.522513142709906e-06
4243.69,-1.5497321415338262e-06
4244.59,-1.5698924295901505e-06
4245.5,-1.5794763166712746e-06
4246.4,-1.5674142178695425e-06
4247.3,-1.5443427446914813e-06
4248.2,-1.5149587964562153e-06
4249.1,-1.4885008922610743e-06
4250.0,-1.46763389408411e-06
4250.9,-1.4526463341982631e-06
4251.8,-1.4446444174208885e-06
4252.7,-1.4391987691299787e-06
4253.6,-1.4612257886231984e-06
4254.5,-1.4681592360459269e-06
4255.4,-1.473921115394365e-06
4256.3,-1.4816383743012301e-06
4257.2,-1.4879094642456844e-06
4258.1,-1.4910551812209788e-06
4259.0,-1.4740263548786886e-06
4259.9,-1.4674896627079143e-06
4260.8,-1.462527142543493e-06
4261.7,-1.4659613383471244e-06
4262.6,-1.4915582048331872e-06
4263.5,-1.5323990142106666e-06
4264.4,-1.5790537375395367e-06
4265.3,-1.619568665522428e-06
4266.2,-1.6284851685040426e-06
4267.1,-1.6341887623814474e-06
4268.0,-1.61394989593783e-06
4268.9,-1.5751489978679408e-06
4269.8,-1.511931696928313e-06
4270.7,-1.4623900764934858e-06
4271.6,-1.4080819022092497e-06
4272.5,-1.3677729531611727e-06
4273.4,-1.3512604053463043e-06
4274.3,-1.3542131571361922e-06
4275.2,-1.3760996124910374e-06
