wave,flux
3700.85,-4.9034298655660524e-05
3701.75,-4.808257476538352e-05
3702.65,-4.603597544069193e-05
3703.55,-4.309709233659096e-05
3704.45,-3.987834130272413e-05
3705.35,-3.66328490405657e-05
3706.25,-3.4020553508223206e-05
3707.15,-3.261048562137693e-05
3708.05,-3.262365359463797e-05
3708.96,-3.365396070592052e-05
3709.86,-3.599734969394501e-05
3710.76,-3.934048561833844e-05
3711.66,-4.3408266528050174e-05
3712.56,-4.7394003873125894e-05
3713.46,-5.06976311932019e-05
3714.36,-5.288662522395067e-05
3715.26,-5.316922480895367e-05
3716.16,-5.146520886526423e-05
3717.06,-4.8567654760400654e-05
3717.96,-4.429629871782933e-05
3718.86,-3.9521687214343465e-05
3719.76,-3.48802694319482e-05
3720.66,-3.1350137218115976e-05
3721.56,-2.9569735262006208e-05
3722.46,-2.99694805786477e-05
3723.36,-3.212901548951609e-05
3724.26,-3.553315012978687e-05
3725.16,-3.8871685794529795e-05
3726.06,-4.1347167765928444e-05
3726.96,-4.285394878258504e-05
3727.86,-4.346697521744401e-05
3728.76,-4.3285908038117445e-05
3729.66,-4.3134308000703715e-05
3730.56,-4.179482209159918e-05
3731.46,-3.9983572515380806e-05
3732.36,-3.711213109022303e-05
3733.26,-3.3616043840673846e-05
3734.16,-2.9914010532651667e-05
3735.06,-2.6962274701676933e-05
3735.96,-2.5594542611365595e-05
3736.86,-2.597485815399953e-05
3737.76,-2.799606319108745e-05
3738.66,-3.146797703745263e-05
3739.56,-3.571876939364052e-05
3740.46,-3.944555366984144e-05
3741.36,-4.192280429125153e-05
3742.26,-4.2342018404713485e-05
3743.16,-4.1068494560959474e-05
3744.06,-3.8604336838845944e-05
3744.96,-3.5616061550724654e-05
3745.86,-3.266030197247134e-05
3746.76,-3.0396260081131336e-05
3747.67,-2.8943612571133464e-05
3748.57,-2.8376756824471898e-05
3749.47,-2.9310071458920472e-05
3750.37,-3.18518105134461e-05
3751.27,-3.574308966618381e-05
3752.17,-4.082597118483819e-05
3753.07,-4.604458675705544e-05
3753.97,-5.082790547142517e-05
3754.87,-5.3932400422517794e-05
3755.77,-5.488622185987709e-05
3756.67,-5.370509137686943e-05
3757.57,-5.112004755515811e-05
3758.47,-4.785503565226294e-05
3759.37,-4.564589276529922e-05
3760.27,-4.460769432753436e-05
3761.17,-4.4893943245685015e-05
3762.07,-4.573859506316728e-05
3762.97,-4.664462329623512e-05
3763.87,-4.7358134583006675e-05
3764.77,-4.786128055371634e-05
3765.67,-4.824479448495083e-05
3766.57,-4.916996838380728e-05
3767.47,-5.0356344638718406e-05
3768.37,-5.2636537380827996e-05
3769.27,-5.536156985888417e-05
3770.17,-5.8474751736400826e-05
3771.07,-6.164610031637043e-05
3771.97,-6.453993658374476e-05
3772.87,-6.715037858176733e-05
3773.77,-6.86813345396e-05
3774.67,-7.019028638907599e-05
3775.57,-7.090060979900944e-05
3776.47,-7.110272596042446e-05
3777.37,-7.178094754578995e-05
3778.27,-7.26617602668225e-05
3779.17,-7.416609232433521e-05
3780.07,-7.584745752341463e-05
3780.97,-7.768420550279028e-05
3781.87,-7.905565694026709e-05
3782.77,-7.967805263183469e-05
3783.67,-7.982259710595916e-05
3784.57,-7.84326561734723e-05
3785.47,-7.541154431957646e-05
3786.38,-7.127394070430279e-05
3787.28,-6.724613068842132e-05
3788.18,-6.363115341628396e-05
3789.08,-6.1159736258771e-05
3789.98,-5.985328090338332e-05
3790.88,-6.013368954201525e-05
3791.78,-6.06593488758097e-05
3792.68,-6.12833929525704e-05
3793.58,-6.095792558442072e-05
3794.48,-6.0281653948153076e-05
3795.38,-5.9035361262840206e-05
3796.28,-5.7620203851077004e-05
3797.18,-5.63864628602491e-05
3798.08,-5.5853638498644915e-05
3798.98,-5.640787547433776e-05
3799.88,-5.8647787414169176e-05
3800.78,-6.195551081702476e-05
3801.68,-6.676872647396643e-05
3802.58,-7.151692261540763e-05
3803.48,-7.572871436503962e-05
3804.38,-7.89520898358747e-05
3805.28,-8.004401348351421e-05
3806.18,-8.01857845772241e-05
3807.08,-7.92387041192609e-05
3807.98,-7.908617360851958e-05
3808.88,-7.928609075319428e-05
3809.78,-8.025841278159492e-05
3810.68,-8.081153309933786e-05
3811.58,-8.011411353648135e-05
3812.48,-7.810168406785914e-05
3813.38,-7.429676894555653e-05
3814.28,-7.006578184097884e-05
3815.18,-6.526772016728464e-05
3816.08,-6.205146223744228e-05
3816.98,-5.9648527108740325e-05
3817.88,-5.840121480576513e-05
3818.78,-5.7081124587758246e-05
3819.68,-5.5864409093679755e-05
3820.58,-5.4422147722523316e-05
3821.48,-5.3377899751698555e-05
3822.38,-5.225671151568609e-05
3823.28,-5.156081809195919e-05
3824.18,-5.043383423869843e-05
3825.09,-4.9107693052914716e-05
3825.99,-4.7188801093422924e-05
3826.89,-4.6025661027383724e-05
3827.79,-4.5666717540077756e-05
3828.69,-4.598853611218974e-05
3829.59,-4.7127315946253444e-05
3830.49,-4.8018996369613605e-05
3831.39,-4.8454409373169384e-05
3832.29,-4.824004589181337e-05
3833.19,-4.783513615703231e-05
3834.09,-4.7967833848299053e-05
3834.99,-4.851800462889843e-05
3835.89,-4.961300279264978e-05
3836.79,-5.033670595642211e-05
3837.69,-5.054016349788101e-05
3838.59,-5.090141968912602e-05
3839.49,-5.1157632824593154e-05
3840.39,-5.2641735115029355e-05
3841.29,-5.62884508001015e-05
3842.19,-6.126147346594896e-05
3843.09,-6.731128925818329e-05
3843.99,-7.334595358520782e-05
3844.89,-7.842993142035284e-05
3845.79,-8.194677077150218e-05
3846.69,-8.40628312448344e-05
3847.59,-8.515070892420358e-05
3848.49,-8.450956298733253e-05
3849.39,-8.41002713433319e-05
3850.29,-8.342906164070181e-05
3851.19,-8.294452555999731e-05
3852.09,-8.30055529198568e-05
3852.99,-8.286003365563491e-05
3853.89,-8.240351359511841e-05
3854.79,-8.10130744415995e-05
3855.69,-7.853680390267649e-05
3856.59,-7.546343611515799e-05
3857.49,-7.225205802829979e-05
3858.39,-6.93354628362728e-05
3859.29,-6.719325643106587e-05
3860.19,-6.729834001356004e-05
3861.09,-6.936345493350578e-05
3861.99,-7.391991106744959e-05
3862.9,-7.963068908363577e-05
3863.8,-8.522282504850423e-05
3864.7,-8.928484043849314e-05
3865.6,-9.158411595671506e-05
3866.5,-9.193307747465618e-05
3867.4,-9.160567456480708e-05
3868.3,-9.010438618150389e-05
3869.2,-8.794414425630919e-05
3870.1,-8.550510817312693e-05
3871.0,-8.358855899265029e-05
3871.9,-8.245107898265284e-05
3872.8,-8.317018321149153e-05
3873.7,-8.639279487227086e-05
3874.6,-9.016300119696527e-05
3875.5,-9.430194959847282e-05
3876.4,-9.665788026847574e-05
3877.3,-9.656078218254925e-05
3878.2,-9.522620758053502e-05
3879.1,-9.321983382401975e-05
3880.0,-9.253967647778507e-05
3880.9,-9.240793255862205e-05
3881.8,-9.377780715466157e-05
3882.7,-9.504477619792532e-05
3883.6,-9.712852124538589e-05
3884.5,-9.848806913636178e-05
3885.4,-9.885638907791036e-05
3886.3,-9.810503587828844e-05
3887.2,-9.835020712022563e-05
3888.1,-9.921475093923112e-05
3889.0,-0.00010266509657914299
3889.9,-0.00010942847178034512
3890.8,-0.00011742980570272961
3891.7,-0.00012614988490022215
3892.6,-0.0001329748006688572
3893.5,-0.00013854710416824186
3894.4,-0.00014108586547506628
3895.3,-0.00014189531927076047
3896.2,-0.00014244298892060678
3897.1,-0.00014281008695949857
3898.0,-0.00014291817296984365
3898.9,-0.00014352779834382067
3899.8,-0.00014289994258972016
3900.7,-0.00014357623366535906
3901.6,-0.00014338911300412478
3902.51,-0.00014339999894536013
3903.41,-0.00014222253036234894
3904.31,-0.0001410588238298481
3905.21,-0.0001408116985787522
3906.11,-0.00014150341393930098
3907.01,-0.00014503019806102498
3907.91,-0.0001516326448695575
3908.81,-0.000158963911587322
3909.71,-0.0001675838679621751
3910.61,-0.00017500933771770642
3911.51,-0.00018120303935768
3912.41,-0.00018602903957606776
3913.31,-0.00018856600194505047
3914.21,-0.00018945428687278812
3915.11,-0.00018934683610242814
3916.01,-0.0001866359407578411
3916.91,-0.00018370391253740584
3917.81,-0.00017785924020194196
3918.71,-0.000171568666999604
3919.61,-0.00016482152967275273
3920.51,-0.00015649239311798596
3921.41,-0.00015151307191081984
3922.31,-0.0001468058830028065
3923.21,-0.000144471483523316
3924.11,-0.00014342807726878325
3925.01,-0.00014230437618222244
3925.91,-0.00013881164010938588
3926.81,-0.00013256008665835786
3927.71,-0.00012330010452240239
3928.61,-0.00011188143056630513
3929.51,-9.949054528781021e-05
3930.41,-8.81368987851795e-05
3931.31,-7.753148311940964e-05
3932.21,-6.845056534085063e-05
3933.11,-6.265563939457883e-05
3934.01,-5.948611628722388e-05
3934.91,-6.029248754567948e-05
3935.81,-6.463583036180237e-05
3936.71,-7.265632570661118e-05
3937.61,-8.339916057259804e-05
3938.51,-9.582355372980059e-05
3939.42,-0.00010887381910422273
3940.32,-0.0001216865620122481
3941.22,-0.00013139301637118373
3942.12,-0.00013913765050949735
3943.02,-0.00014440619371731403
3943.92,-0.00015073313256227096
3944.82,-0.00015777985849442267
3945.72,-0.00016710164343666293
3946.62,-0.00017848946830144837
3947.52,-0.00019081809698307472
3948.42,-0.0002015812432528753
3949.32,-0.00021151766578905249
3950.22,-0.00022101364260891605
3951.12,-0.0002289281749525529
3952.02,-0.0002345956438023052
3952.92,-0.00024061929609451788
3953.82,-0.00024315771773987548
3954.72,-0.00024366394253077955
3955.62,-0.0002454955860584515
3956.52,-0.0002440199900290112
3957.42,-0.00024000061058382626
3958.32,-0.00023562268267902654
3959.22,-0.0002291793625368841
3960.12,-0.00021709182918863492
3961.02,-0.00020372343598029633
3961.92,-0.00018913271029900319
3962.82,-0.00017241561825202413
3963.72,-0.0001575535856434913
3964.62,-0.0001438813955714852
3965.52,-0.00013068606621260604
3966.42,-0.00011829134713619328
3967.32,-0.00010626509302715058
3968.22,-9.683677820867277e-05
3969.12,-9.208501320191994e-05
3970.02,-9.316718819590057e-05
3970.92,-0.00010087269038161488
3971.82,-0.00011407560379113647
3972.72,-0.0001304487912288088
3973.62,-0.00015162899191143787
3974.52,-0.0001736938518009929
3975.42,-0.00019649821815276354
3976.32,-0.00022068296627438495
3977.22,-0.00024231188588123801
3978.13,-0.0002639533798563139
3979.03,-0.00028419078430267844
3979.93,-0.0003008681151158485
3980.83,-0.0003146037281875706
3981.73,-0.00032489748530333435
3982.63,-0.00033073274253948176
3983.53,-0.00033639233241635754
3984.43,-0.0003405651974501995
3985.33,-0.0003464933573783481
3986.23,-0.00035323622649598895
3987.13,-0.00036237101738546704
3988.03,-0.00036922154373496
3988.93,-0.00037722278065533343
3989.83,-0.00038400764556112085
3990.73,-0.00039106024804076505
3991.63,-0.0003961870476443399
3992.53,-0.0004008620737844475
3993.43,-0.0004043980118341115
3994.33,-0.0004075569348598213
3995.23,-0.0004064911943604804
3996.13,-0.00040651302120479205
3997.03,-0.00040514542682587454
3997.93,-0.00040704854947313325
3998.83,-0.0004147282437809535
3999.73,-0.00042503465076362313
4000.63,-0.0004365451701758611
4001.53,-0.00044686024538127556
4002.43,-0.0004545826737573582
4003.33,-0.0004567254916409608
4004.23,-0.00044979736727089804
4005.13,-0.00044550929788319215
4006.03,-0.0004380913719478388
4006.93,-0.0004383919028043614
4007.83,-0.0004410316347513311
4008.73,-0.0004516842537371915
4009.63,-0.00046550275403671237
4010.53,-0.00047952236214231946
4011.43,-0.0004922986212619607
4012.33,-0.00050370148004314
4013.23,-0.0005131850254188717
4014.13,-0.0005201086549845867
4015.03,-0.0005254630610348459
4015.93,-0.0005321756497240232
4016.84,-0.000535018597266389
4017.74,-0.0005385783465576156
4018.64,-0.0005441583586053584
4019.54,-0.0005475471112660223
4020.44,-0.0005512331436345338
4021.34,-0.0005546468160282157
4022.24,-0.0005584667706793423
4023.14,-0.0005594018159568954
4024.04,-0.0005639559215890409
4024.94,-0.000567294183401151
4025.84,-0.0005738385694819645
4026.74,-0.0005786527813868555
4027.64,-0.0005855983203258528
4028.54,-0.0005858443567271709
4029.44,-0.0005802896608990844
4030.34,-0.0005638496387555193
4031.24,-0.0005432695743250292
4032.14,-0.0005238003198141751
4033.04,-0.0005113625429505737
4033.94,-0.0005065600071207105
4034.84,-0.0005166007517409886
4035.74,-0.0005396327480691667
4036.64,-0.0005710554515592925
4037.54,-0.0006009061000569705
4038.44,-0.000628362374646173
4039.34,-0.0006460710034180433
4040.24,-0.0006590069083870151
4041.14,-0.0006550647986999424
4042.04,-0.000647557936071842
4042.94,-0.0006276149705185532
4043.84,-0.0006014996821623791
4044.74,-0.0005733535315081155
4045.64,-0.0005479966581566764
4046.54,-0.0005400936288127064
4047.44,-0.0005460733905043061
4048.34,-0.0005733642406345562
4049.24,-0.000607312468740394
4050.14,-0.0006447356445483749
4051.04,-0.000677741735804905
4051.94,-0.0006949413261036604
4052.84,-0.0007039331441657429
4053.74,-0.0007045957304728054
4054.65,-0.0006952063876062816
4055.55,-0.0006844553442574258
4056.45,-0.0006744804148716795
4057.35,-0.0006698907237289662
4058.25,-0.0006673491512777963
4059.15,-0.0006688618499470951
4060.05,-0.0006737089967134534
4060.95,-0.0006697192056756064
4061.85,-0.0006669941156513242
4062.75,-0.0006538099850733955
4063.65,-0.0006431301152094828
4064.55,-0.0006341122898920276
4065.45,-0.0006410428091373376
4066.35,-0.0006501002555909965
4067.25,-0.0006773777341000691
4068.15,-0.000704851544075283
4069.05,-0.0007268976149255919
4069.95,-0.0007381967049717383
4070.85,-0.0007462204356231828
4071.75,-0.0007482848931056231
4072.65,-0.0007455168051654043
4073.55,-0.0007502607369724114
4074.45,-0.0007528107604396269
4075.35,-0.0007568812630304038
4076.25,-0.0007564556630304244
4077.15,-0.0007577992541135279
4078.05,-0.0007646908555785672
4078.95,-0.0007756988167657205
4079.85,-0.0007990594975870714
4080.75,-0.0008331344021716668
4081.65,-0.000869624795999496
4082.55,-0.0008952317238807773
4083.45,-0.0009137053920971195
4084.35,-0.0009245519409240186
4085.25,-0.0009392706542853201
4086.15,-0.0009508258333354668
4087.05,-0.0009739704422171761
4087.95,-0.001007582081957375
4088.85,-0.0010327516478574963
4089.75,-0.0010584477408769782
4090.65,-0.0010699817635361395
4091.55,-0.001072717721103989
4092.45,-0.0010729891857848683
4093.36,-0.0010559467817193543
4094.26,-0.001040547879289054
4095.16,-0.0010247185137787283
4096.06,-0.0010071989698631342
4096.96,-0.0009828495365527374
4097.86,-0.0009627622606795921
4098.76,-0.0009420552104728715
4099.66,-0.0009220191457621624
4100.56,-0.0009066521567439183
4101.46,-0.0008954655257595425
4102.36,-0.0008910175185785057
4103.26,-0.0009069149548663211
4104.16,-0.0009308033218578156
4105.06,-0.0009721461626700986
4105.96,-0.0010156466523871855
4106.86,-0.0010541595779495396
4107.76,-0.0010860144974789558
4108.66,-0.0011024186672054172
4109.56,-0.001111809687086949
4110.46,-0.0011222522319838803
4111.36,-0.0011207746843310757
4112.26,-0.001133582334131436
4113.16,-0.0011562634601939032
4114.06,-0.00117697280859992
4114.96,-0.0011943526151250042
4115.86,-0.001216932239469916
4116.76,-0.0012267861648733735
4117.66,-0.0012285895544847192
4118.56,-0.0012252666252362918
4119.46,-0.0012252587839547515
4120.36,-0.0012198660275393274
4121.26,-0.0012294814842522574
4122.16,-0.001234550311386871
4123.06,-0.00125045855027897
4123.96,-0.0012724559378661268
4124.86,-0.0012840024339502655
4125.76,-0.0012953656704512444
4126.66,-0.0013040988366044808
4127.56,-0.001303077288046204
4128.46,-0.0012996657430649403
4129.36,-0.0012810068988593985
4130.26,-0.0012663605022187872
4131.17,-0.0012408864033849885
4132.06,-0.0012252214500872742
4132.97,-0.0012162441991000832
4133.87,-0.001228910792486763
4134.77,-0.0012456603799019135
4135.67,-0.001280114461682482
4136.57,-0.0013349059296297585
4137.47,-0.0013826623380487377
4138.37,-0.0014258258966259709
4139.27,-0.0014545405424909992
4140.17,-0.0014515661051001777
4141.07,-0.001436295999143029
4141.97,-0.0014037944433114092
4142.87,-0.001370195103557588
4143.77,-0.0013316626908164713
4144.67,-0.00132191098134219
4145.57,-0.0013261303082929968
4146.47,-0.0013580446253424188
4147.37,-0.0013933782560167855
4148.27,-0.001440777163964111
4149.17,-0.0014646879566619162
4150.07,-0.0014834368089587024
4150.97,-0.0014858449149266633
4151.87,-0.0014886383023785458
4152.77,-0.0014904897789646053
4153.67,-0.0014885720595320454
4154.57,-0.0014924473976602546
4155.47,-0.0015044170292017166
4156.37,-0.0015212817211174672
4157.27,-0.0015467041457010453
4158.17,-0.0015889897951413378
4159.07,-0.0016414766948112257
4159.97,-0.0016885411515465908
4160.87,-0.0017340880702696182
4161.77,-0.0017754272022911743
4162.67,-0.0018114622147854553
4163.57,-0.0018354607466650329
4164.47,-0.0018476262837983537
4165.37,-0.0018428949768393129
4166.27,-0.0018391803958736947
4167.17,-0.0018224425604614336
4168.07,-0.001808012417563577
4168.98,-0.0018019368191359393
4169.88,-0.001798005071872383
4170.78,-0.0017857335040697853
4171.68,-0.001765690060570601
4172.58,-0.0017522647901019397
4173.48,-0.0017320416600223678
4174.38,-0.001719308553366856
4175.28,-0.001731317997183711
4176.18,-0.0017502994008241565
4177.08,-0.0017841957300652586
4177.98,-0.0018255698256138461
4178.88,-0.0018524517747489705
4179.78,-0.0018851875337293266
4180.68,-0.0019175901537214584
4181.58,-0.0019442982678733645
4182.48,-0.0019772042471147603
4183.38,-0.0020040311881828273
4184.28,-0.002027610994537674
4185.18,-0.0020472445694156177
4186.08,-0.002063528731635124
4186.98,-0.0020689618320870458
4187.88,-0.0020726246536630294
4188.78,-0.0020917156340579863
4189.68,-0.0021157252147102255
4190.58,-0.0021528212021886335
4191.48,-0.0021961442076621077
4192.38,-0.002234475754192299
4193.28,-0.0022727528029510063
4194.18,-0.0023018226267433046
4195.08,-0.0022909333709227966
4195.98,-0.0022575260168390234
4196.88,-0.0022121470998477757
4197.78,-0.0021666928448774363
4198.68,-0.0021413676155898486
4199.58,-0.002125021493650063
4200.48,-0.0021177688667303562
4201.38,-0.0021389708294206585
4202.28,-0.0021832325844396666
4203.18,-0.0022419802999028553
4204.08,-0.0023327793397813347
4204.98,-0.0024166632433561485
4205.88,-0.0025046935230255223
4206.79,-0.002604402211696009
4207.69,-0.002675917799046299
4208.59,-0.0027545469484938317
4209.49,-0.002779439803537232
4210.39,-0.0028218994350039045
4211.29,-0.002831114874258671
4212.19,-0.002844165743295486
4213.09,-0.0028253233466346535
4213.99,-0.0028185697882317905
4214.89,-0.0027995612023037734
4215.79,-0.0028038471059488998
4216.69,-0.0028190258619763945
4217.59,-0.002889572472313266
4218.49,-0.0029751644748032308
4219.39,-0.0030572746943121135
4220.29,-0.0031238879383619802
4221.19,-0.0031603848354019625
4222.09,-0.0031314034973670695
4222.99,-0.003024824369173181
4223.89,-0.0028828179116759723
4224.79,-0.0026976426329599146
4225.69,-0.002513522193914162
4226.59,-0.0023860018876109227
4227.49,-0.002344117356639477
4228.39,-0.0024021544773977247
4229.29,-0.0025413554100127272
4230.19,-0.002725568672287784
4231.09,-0.0029394204285807407
4231.99,-0.003122304283378414
4232.89,-0.003244454522963902
4233.79,-0.0032998864616132924
4234.69,-0.003326179736235633
4235.59,-0.0033024496529756252
4236.49,-0.0033349557023694717
4237.39,-0.0033299253121502758
4238.29,-0.0033633395384408396
4239.19,-0.0034708918640531
4240.09,-0.003540352287010263
4240.99,-0.0036587474048595343
4241.89,-0.0037847628974441204
4242.79,-0.0039052412949794908
4243.69,-0.004033467106586118
4244.59,-0.004116493261667089
4245.5,-0.004172962390052042
4246.4,-0.004174579689997909
4247.3,-0.004120998165848249
4248.2,-0.004053733230005423
4249.1,-0.003943256197438287
4250.0,-0.0038689955024223603
4250.9,-0.003803842278939173
4251.8,-0.0037748380712009453
4252.7,-0.0037861735577263806
4253.6,-0.003818572548291735
4254.5,-0.003878469719041486
4255.4,-0.003948925464565423
4256.3,-0.004038406193760859
4257.2,-0.004106808441682388
4258.1,-0.004154086724449261
4259.0,-0.004202579236460588
4259.9,-0.004194266689784672
4260.8,-0.004211825561237056
4261.7,-0.0042850015244363365
4262.6,-0.0044184340475982905
4263.5,-0.004611729317207774
4264.4,-0.004820142111506802
4265.3,-0.005003971592200524
4266.2,-0.005110997079547869
4267.1,-0.005142356308569116
4268.0,-0.0050968229002666425
4268.9,-0.004942426874497107
4269.8,-0.004762438798453729
4270.7,-0.004523444930829663
4271.6,-0.004318050745319627
4272.5,-0.0041644217940456285
4273.4,-0.0040969471543061955
4274.3,-0.004134394205532918
4275.2,-0.004297993729091806
4276.1,-0.00449950904466765
4277.0,-0.004759320146965285
4277.9,-0.005039150301941982
4278.8,-0.0052907454571590904
4279.7,-0.005445791282786536
4280.6,-0.005537771288063199
4281.5,-0.00557589755814144
4282.4,-0.005608302717465895
