wave,flux
3700.85,-4.466805162567432e-07
3701.75,-4.415431224233566e-07
3702.65,-4.272733347736187e-07
3703.55,-4.082218498758579e-07
3704.45,-3.879949470288529e-07
3705.35,-3.701018823872648e-07
3706.25,-3.591739592626576e-07
3707.15,-3.5330388741982477e-07
3708.05,-3.545840867028908e-07
3708.96,-3.5954270215093583e-07
3709.86,-3.7100405271988627e-07
3710.76,-3.828617659732097e-07
3711.66,-4.0119983081732897e-07
3712.56,-4.170345080637031e-07
3713.46,-4.3402083956580926e-07
3714.36,-4.514176769163706e-07
3715.26,-4.6237026979447556e-07
3716.16,-4.635540003737508e-07
3717.06,-4.5648824942221515e-07
3717.96,-4.4071323500715215e-07
3718.86,-4.165163766648227e-07
3719.76,-3.877349159168767e-07
3720.66,-3.599853365825298e-07
3721.56,-3.41858910688639e-07
3722.46,-3.388595232900412e-07
3723.36,-3.4956068152382174e-07
3724.26,-3.688446550188585e-07
3725.16,-3.922384712326492e-07
3726.06,-4.1146853064917064e-07
3726.96,-4.2486120071758055e-07
3727.86,-4.3056040531483076e-07
3728.76,-4.31574430924586e-07
3729.66,-4.295523440314144e-07
3730.56,-4.224074372303159e-07
3731.46,-4.094488691508334e-07
3732.36,-3.877843654906586e-07
3733.26,-3.6205002363475375e-07
3734.16,-3.3558108294420716e-07
3735.06,-3.141690981691401e-07
3735.96,-3.0478031591028845e-07
3736.86,-3.098730382181509e-07
3737.76,-3.2672264625886605e-07
3738.66,-3.5303520414609874e-07
3739.56,-3.8020597099470116e-07
3740.46,-4.0826741055943833e-07
3741.36,-4.260162111307564e-07
3742.26,-4.3178463708001397e-07
3743.16,-4.2755221436994473e-07
3744.06,-4.135822024629615e-07
3744.96,-3.9666129632505715e-07
3745.86,-3.773459393225801e-07
3746.76,-3.5625483116515483e-07
3747.67,-3.389744906853306e-07
3748.57,-3.254793372028431e-07
3749.47,-3.1824300320857425e-07
3750.37,-3.242738201517625e-07
3751.27,-3.4202616836380634e-07
3752.17,-3.683844221831791e-07
3753.07,-4.0407008208763114e-07
3753.97,-4.3366156151786465e-07
3754.87,-4.5973145438206573e-07
3755.77,-4.7103591403797166e-07
3756.67,-4.721791873659003e-07
3757.57,-4.60796209344474e-07
3758.47,-4.467206075755534e-07
3759.37,-4.3334025427108925e-07
3760.27,-4.288867161180357e-07
3761.17,-4.3101945529355704e-07
3762.07,-4.379958634245681e-07
3762.97,-4.477910731679287e-07
3763.87,-4.5281896221213474e-07
3764.77,-4.566973855374375e-07
3765.67,-4.580464920995538e-07
3766.57,-4.554494986359761e-07
3767.47,-4.518041293664835e-07
3768.37,-4.440694158913626e-07
3769.27,-4.4052453015126875e-07
3770.17,-4.377090663514842e-07
3771.07,-4.4175201351216106e-07
3771.97,-4.5187564662176186e-07
3772.87,-4.6520034741355626e-07
3773.77,-4.784316237629237e-07
3774.67,-4.948165486511582e-07
3775.57,-5.09876245755735e-07
3776.47,-5.193282147614673e-07
3777.37,-5.320910746981227e-07
3778.27,-5.408435917360804e-07
3779.17,-5.512954270304421e-07
3780.07,-5.641686865652416e-07
3780.97,-5.736414400062373e-07
3781.87,-5.803573902212105e-07
3782.77,-5.859944671143606e-07
3783.67,-5.86356637381259e-07
3784.57,-5.78387440451813e-07
3785.47,-5.674202622607621e-07
3786.38,-5.540169452628704e-07
3787.28,-5.322143031128638e-07
3788.18,-5.175037606645955e-07
3789.08,-5.063815790265083e-07
3789.98,-5.007210569460383e-07
3790.88,-4.964046979645868e-07
3791.78,-4.927100914988813e-07
3792.68,-4.898609473536712e-07
3793.58,-4.800339115934554e-07
3794.48,-4.6828033172516364e-07
3795.38,-4.491945873328906e-07
3796.28,-4.354376465892853e-07
3797.18,-4.193246761210504e-07
3798.08,-4.101214086917985e-07
3798.98,-4.10531959335281e-07
3799.88,-4.2228268864715573e-07
3800.78,-4.4579672009409127e-07
3801.68,-4.764084095383889e-07
3802.58,-5.073148830600747e-07
3803.48,-5.371050687199812e-07
3804.38,-5.567148786879167e-07
3805.28,-5.678779239079481e-07
3806.18,-5.746222975144745e-07
3807.08,-5.751594054235141e-07
3807.98,-5.759230873205829e-07
3808.88,-5.777543120541353e-07
3809.78,-5.839567141477815e-07
3810.68,-5.895898776483913e-07
3811.58,-5.838210835086688e-07
3812.48,-5.744021932447212e-07
3813.38,-5.594678612763967e-07
3814.28,-5.409513247979547e-07
3815.18,-5.237920322235343e-07
3816.08,-5.134742686617431e-07
3816.98,-5.068545109369033e-07
3817.88,-5.063975819839805e-07
3818.78,-5.03582493085465e-07
3819.68,-5.003343291006062e-07
3820.58,-4.93206947246374e-07
3821.48,-4.88525761965688e-07
3822.38,-4.820903774743893e-07
3823.28,-4.769563155637058e-07
3824.18,-4.6937080381557645e-07
3825.09,-4.5827530107594333e-07
3825.99,-4.4410800943587093e-07
3826.89,-4.339754156386284e-07
3827.79,-4.253419403026746e-07
3828.69,-4.2149491075065126e-07
3829.59,-4.157797714885422e-07
3830.49,-4.1267596783134727e-07
3831.39,-4.020125976844405e-07
3832.29,-3.8849279926685873e-07
3833.19,-3.748743123883566e-07
3834.09,-3.5925390156107145e-07
3834.99,-3.5178543093799936e-07
3835.89,-3.4747809299698414e-07
3836.79,-3.48252602759064e-07
3837.69,-3.538249216731961e-07
3838.59,-3.635066864809874e-07
3839.49,-3.768752397374721e-07
3840.39,-3.946166629506578e-07
3841.29,-4.2082374720106494e-07
3842.19,-4.5242228488201143e-07
3843.09,-4.833512309761858e-07
3843.99,-5.150960662082595e-07
3844.89,-5.38010509662065e-07
3845.79,-5.545039401110352e-07
3846.69,-5.703906508626027e-07
3847.59,-5.753739003995505e-07
3848.49,-5.802321484223509e-07
3849.39,-5.808442688742436e-07
3850.29,-5.834006102403814e-07
3851.19,-5.847675872739884e-07
3852.09,-5.847701304580228e-07
3852.99,-5.851826229134787e-07
3853.89,-5.901856629869388e-07
3854.79,-5.847053625750873e-07
3855.69,-5.742328457365813e-07
3856.59,-5.652132622504588e-07
3857.49,-5.494950397848817e-07
3858.39,-5.35772218371031e-07
3859.29,-5.242933693893456e-07
3860.19,-5.234937460826088e-07
3861.09,-5.298148790323827e-07
3861.99,-5.458437340979268e-07
3862.9,-5.662149787536596e-07
3863.8,-5.845443435162848e-07
3864.7,-6.022561372437663e-07
3865.6,-6.0835665446267e-07
3866.5,-6.135654520591559e-07
3867.4,-6.104182267946095e-07
3868.3,-6.070534710765354e-07
3869.2,-6.023521121890042e-07
3870.1,-5.900115000598476e-07
3871.0,-5.76940523611561e-07
3871.9,-5.624001467918458e-07
3872.8,-5.544610818987633e-07
3873.7,-5.505102038303077e-07
3874.6,-5.53518075093944e-07
3875.5,-5.598094758111203e-07
3876.4,-5.656565010842668e-07
3877.3,-5.650884360673403e-07
3878.2,-5.617601683529389e-07
3879.1,-5.550954545373906e-07
3880.0,-5.524906055729828e-07
3880.9,-5.526470064747704e-07
3881.8,-5.546862258660611e-07
3882.7,-5.54204078356723e-07
3883.6,-5.494465416251245e-07
3884.5,-5.40541061161989e-07
3885.4,-5.248312743067736e-07
3886.3,-5.082973980466541e-07
3887.2,-4.874656501485672e-07
3888.1,-4.724234443768667e-07
3889.0,-4.6702924161428584e-07
3889.9,-4.676186778532922e-07
3890.8,-4.837045037876353e-07
3891.7,-5.075309072399562e-07
3892.6,-5.313051762788604e-07
3893.5,-5.525014075226258e-07
3894.4,-5.684010917526766e-07
3895.3,-5.826380881462461e-07
3896.2,-5.913682491525547e-07
3897.1,-6.011335524824028e-07
3898.0,-6.109213912808495e-07
3898.9,-6.150993681240622e-07
3899.8,-6.189227739134118e-07
3900.7,-6.23009552001336e-07
3901.6,-6.264489270249212e-07
3902.51,-6.23989166443022e-07
3903.41,-6.202351192902335e-07
3904.31,-6.185575723492859e-07
3905.21,-6.138706546971309e-07
3906.11,-6.13464149457324e-07
3907.01,-6.180144983163573e-07
3907.91,-6.31474176152407e-07
3908.81,-6.459224748947592e-07
3909.71,-6.648646934356507e-07
3910.61,-6.850692038075381e-07
3911.51,-6.94975392377382e-07
3912.41,-7.034986921273713e-07
3913.31,-7.064118727602992e-07
3914.21,-7.075883797512759e-07
3915.11,-7.029381585918672e-07
3916.01,-6.885003188324029e-07
3916.91,-6.801675833203812e-07
3917.81,-6.69131528522525e-07
3918.71,-6.580683370023785e-07
3919.61,-6.436913329907578e-07
3920.51,-6.289052927958395e-07
3921.41,-6.182387060466226e-07
3922.31,-6.08932731359791e-07
3923.21,-6.044822831091688e-07
3924.11,-5.956621737032033e-07
3925.01,-5.876478357912239e-07
3925.91,-5.685034327115411e-07
3926.81,-5.433548504177947e-07
3927.71,-5.069330665220552e-07
3928.61,-4.6195685394148925e-07
3929.51,-4.1426117106601417e-07
3930.41,-3.6291951183038096e-07
3931.31,-3.148758782858887e-07
3932.21,-2.722311357958412e-07
3933.11,-2.3767417226573004e-07
3934.01,-2.185588721030509e-07
3934.91,-2.1518487254512353e-07
3935.81,-2.2994819506902017e-07
3936.71,-2.5993783590680824e-07
3937.61,-3.034030508125042e-07
3938.51,-3.5387382061451014e-07
3939.42,-4.055023832388479e-07
3940.32,-4.5470836096250694e-07
3941.22,-4.926546195913299e-07
3942.12,-5.25419307016719e-07
3943.02,-5.490920640473772e-07
3943.92,-5.702365396254354e-07
3944.82,-5.863330443817924e-07
3945.72,-6.102788277602621e-07
3946.62,-6.299841193245089e-07
3947.52,-6.486895669920564e-07
3948.42,-6.678274286511974e-07
3949.32,-6.795891725701855e-07
3950.22,-6.919231231590511e-07
3951.12,-7.03468074084221e-07
3952.02,-7.110624124475565e-07
3952.92,-7.167220728633782e-07
3953.82,-7.215736578779346e-07
3954.72,-7.195478700537515e-07
3955.62,-7.211997466160099e-07
3956.52,-7.167737724650192e-07
3957.42,-7.136717837642737e-07
3958.32,-7.020274982654039e-07
3959.22,-6.885430272809585e-07
3960.12,-6.759318699889284e-07
3961.02,-6.507775189667307e-07
3961.92,-6.122441888120311e-07
3962.82,-5.718364966922719e-07
3963.72,-5.285574508744378e-07
3964.62,-4.833486381606832e-07
3965.52,-4.331456143944704e-07
3966.42,-3.818385241637557e-07
3967.32,-3.3408471880219393e-07
3968.22,-2.9397029726909966e-07
3969.12,-2.6896483321172235e-07
3970.02,-2.653315952219578e-07
3970.92,-2.812964322779385e-07
3971.82,-3.14651946390766e-07
3972.72,-3.6388557717965755e-07
3973.62,-4.1777851782510003e-07
3974.52,-4.737912937960195e-07
3975.42,-5.315491370120681e-07
3976.32,-5.85054953544748e-07
3977.22,-6.348578066113385e-07
3978.13,-6.746121794821394e-07
3979.03,-7.118253245653664e-07
3979.93,-7.410711939189903e-07
3980.83,-7.653608206105518e-07
3981.73,-7.759501955929298e-07
3982.63,-7.868894897016228e-07
3983.53,-7.942335917570945e-07
3984.43,-7.984988828099563e-07
3985.33,-8.086871569200759e-07
3986.23,-8.135093686009392e-07
3987.13,-8.293397203524539e-07
3988.03,-8.386585110131814e-07
3988.93,-8.476301775606244e-07
3989.83,-8.568278657496008e-07
3990.73,-8.656361423811182e-07
3991.63,-8.736011007410166e-07
3992.53,-8.800195316032779e-07
3993.43,-8.812985436586783e-07
3994.33,-8.826209147098791e-07
3995.23,-8.769188731570351e-07
3996.13,-8.710777212900399e-07
3997.03,-8.598348742457052e-07
3997.93,-8.603866020627346e-07
3998.83,-8.627661980188788e-07
3999.73,-8.712221072712201e-07
4000.63,-8.864011380684292e-07
4001.53,-8.968638552131103e-07
4002.43,-9.064328460482809e-07
4003.33,-9.044484933305127e-07
4004.23,-9.040063068445934e-07
4005.13,-8.865539321982015e-07
4006.03,-8.843250093450969e-07
4006.93,-8.784780663791764e-07
4007.83,-8.858180935264597e-07
4008.73,-8.922068089498387e-07
4009.63,-9.083886086672063e-07
4010.53,-9.264235960851061e-07
4011.43,-9.35037235557971e-07
4012.33,-9.429517127518847e-07
4013.23,-9.454629486302689e-07
4014.13,-9.510325584842489e-07
4015.03,-9.530905490105558e-07
4015.93,-9.503911391352608e-07
4016.84,-9.558266792936074e-07
4017.74,-9.59343690824796e-07
4018.64,-9.62185485000238e-07
4019.54,-9.70757768622184e-07
4020.44,-9.703674445933725e-07
4021.34,-9.690756387203125e-07
4022.24,-9.732680039548886e-07
4023.14,-9.67895732875876e-07
4024.04,-9.745447405149596e-07
4024.94,-9.760444498312962e-07
4025.84,-9.777190336757115e-07
4026.74,-9.832794586437635e-07
4027.64,-9.90709834434178e-07
4028.54,-9.911076315262075e-07
4029.44,-9.839272124263441e-07
4030.34,-9.628539314642547e-07
4031.24,-9.461987264470036e-07
4032.14,-9.263285055703784e-07
4033.04,-9.153290693800262e-07
4033.94,-9.144532672232023e-07
4034.84,-9.2570167178375e-07
4035.74,-9.452318236050061e-07
4036.64,-9.707128224925027e-07
4037.54,-9.986199888391097e-07
4038.44,-1.0152842201650388e-06
4039.34,-1.0292230733121496e-06
4040.24,-1.0348889353918493e-06
4041.14,-1.0307110159199716e-06
4042.04,-1.0218514993048927e-06
4042.94,-9.960301396107116e-07
4043.84,-9.73279457505075e-07
4044.74,-9.512672628247301e-07
4045.64,-9.32520054892464e-07
4046.54,-9.213056910953155e-07
4047.44,-9.249756689541696e-07
4048.34,-9.467849480682772e-07
4049.24,-9.712277834382244e-07
4050.14,-1.0004968141967866e-06
4051.04,-1.018150689694077e-06
4051.94,-1.0277636010386894e-06
4052.84,-1.0295291663575186e-06
4053.74,-1.0219407285772007e-06
4054.65,-1.0132703279137429e-06
4055.55,-1.0053709497813266e-06
4056.45,-1.0008211012013063e-06
4057.35,-9.948189152688784e-07
4058.25,-9.969095840705703e-07
4059.15,-1.0018909937072271e-06
4060.05,-1.0040383507254884e-06
4060.95,-1.0009897438531055e-06
4061.85,-9.978417761858642e-07
4062.75,-9.859813153395465e-07
4063.65,-9.730008563002907e-07
4064.55,-9.61122981485582e-07
4065.45,-9.608167803184696e-07
4066.35,-9.62604218654979e-07
4067.25,-9.8081558456374e-07
4068.15,-9.927229975049993e-07
4069.05,-1.0086827829115713e-06
4069.95,-1.0174015045991438e-06
4070.85,-1.0227026538792288e-06
4071.75,-1.019157502516347e-06
4072.65,-1.0149129245329496e-06
4073.55,-1.0103344157155776e-06
4074.45,-1.0067567592614426e-06
4075.35,-9.942202961777836e-07
4076.25,-9.806814320897232e-07
4077.15,-9.69373410491147e-07
4078.05,-9.664625116317261e-07
4078.95,-9.668808872917703e-07
4079.85,-9.775105149517817e-07
4080.75,-9.983896538659157e-07
4081.65,-1.0202038401448807e-06
4082.55,-1.0395554553719288e-06
4083.45,-1.0520502815506553e-06
4084.35,-1.0561212244710111e-06
4085.25,-1.0670286711990676e-06
4086.15,-1.0718282545000402e-06
4087.05,-1.0897653925249169e-06
4087.95,-1.1068542172103928e-06
4088.85,-1.1305643399063277e-06
4089.75,-1.134662211312842e-06
4090.65,-1.1395228008757857e-06
4091.55,-1.1431675708041233e-06
4092.45,-1.1391679651589938e-06
4093.36,-1.1204639786730955e-06
4094.26,-1.1139605133723625e-06
4095.16,-1.098810055341009e-06
4096.06,-1.0721317085039923e-06
4096.96,-1.0469060813766934e-06
4097.86,-1.0195693241973062e-06
4098.76,-9.914478397339618e-07
4099.66,-9.522330177737219e-07
4100.56,-9.143993726852097e-07
4101.46,-8.860836608578622e-07
4102.36,-8.698122821743468e-07
4103.26,-8.701862042420633e-07
4104.16,-8.864520561376179e-07
4105.06,-9.243904419971883e-07
4105.96,-9.631932738997015e-07
4106.86,-9.996828840427113e-07
4107.76,-1.029507497488243e-06
4108.66,-1.0562654431953333e-06
4109.56,-1.0703665845505037e-06
4110.46,-1.0809175738358528e-06
4111.36,-1.0877594484732888e-06
4112.26,-1.1029207831931347e-06
4113.16,-1.1163686250865412e-06
4114.06,-1.130968645695132e-06
4114.96,-1.1383901196531393e-06
4115.86,-1.1525638783100564e-06
4116.76,-1.1569498979710305e-06
4117.66,-1.1518535650448779e-06
4118.56,-1.1501231583367828e-06
4119.46,-1.138184262336347e-06
4120.36,-1.1371659784625424e-06
4121.26,-1.1312753254583277e-06
4122.16,-1.1297012195726024e-06
4123.06,-1.137685803210748e-06
4123.96,-1.1398150670922732e-06
4124.86,-1.150449239043771e-06
4125.76,-1.1570509346453273e-06
4126.66,-1.1544516711461753e-06
4127.56,-1.1523404684300022e-06
4128.46,-1.149626342932019e-06
4129.36,-1.1406866427543355e-06
4130.26,-1.1278881651855879e-06
4131.17,-1.1219527962370971e-06
4132.06,-1.1103775035009664e-06
4132.97,-1.1004024299945479e-06
4133.87,-1.1001455823147083e-06
4134.77,-1.1103613016584727e-06
4135.67,-1.1224582315266587e-06
4136.57,-1.1458393254271908e-06
4137.47,-1.168020591094863e-06
4138.37,-1.185219417430579e-06
4139.27,-1.1986776591024323e-06
4140.17,-1.2038864366738731e-06
4141.07,-1.1947464796447707e-06
4141.97,-1.176721648370528e-06
4142.87,-1.1511975209741165e-06
4143.77,-1.1350987044018925e-06
4144.67,-1.1226674955059063e-06
4145.57,-1.1296929434571137e-06
4146.47,-1.1449890052991658e-06
4147.37,-1.1610367647002586e-06
4148.27,-1.1721178968085233e-06
4149.17,-1.1844532572789093e-06
4150.07,-1.1911340099816425e-06
4150.97,-1.190805298100122e-06
4151.87,-1.1828241963357025e-06
4152.77,-1.1827379963803988e-06
4153.67,-1.1772968172125277e-06
4154.57,-1.172458689773801e-06
4155.47,-1.169980501799153e-06
4156.37,-1.1704396805933752e-06
4157.27,-1.1808836339826336e-06
4158.17,-1.194201856647129e-06
4159.07,-1.208589917173969e-06
4159.97,-1.2206241648377753e-06
4160.87,-1.2419437850038038e-06
4161.77,-1.250299388293818e-06
4162.67,-1.2550253343276292e-06
4163.57,-1.2639899914222088e-06
4164.47,-1.268010514880325e-06
4165.37,-1.2684809287494152e-06
4166.27,-1.2589422283459192e-06
4167.17,-1.2540996082339495e-06
4168.07,-1.2396814689606614e-06
4168.98,-1.2301869202762368e-06
4169.88,-1.2218601902253075e-06
4170.78,-1.2070764271158396e-06
4171.68,-1.1915138899689534e-06
4172.58,-1.1736363083708624e-06
4173.48,-1.1570348587358827e-06
4174.38,-1.151097169736466e-06
4175.28,-1.1487519815489886e-06
4176.18,-1.155061957635489e-06
4177.08,-1.1667611856902534e-06
4177.98,-1.1858418242966265e-06
4178.88,-1.1940864558421452e-06
4179.78,-1.2063036890797369e-06
4180.68,-1.2190856056858444e-06
4181.58,-1.2245080234624703e-06
4182.48,-1.230854390904676e-06
4183.38,-1.2346918396960872e-06
4184.28,-1.2354192748070918e-06
4185.18,-1.237923404814109e-06
4186.08,-1.2380067780673494e-06
4186.98,-1.2286978152284922e-06
4187.88,-1.2269829138084657e-06
4188.78,-1.2295366376780876e-06
4189.68,-1.2434729972224012e-06
4190.58,-1.243447317340102e-06
4191.48,-1.2566194733465953e-06
4192.38,-1.26346039482712e-06
4193.28,-1.277179150846919e-06
4194.18,-1.2774082854051847e-06
4195.08,-1.2791105042197965e-06
4195.98,-1.2593846601726761e-06
4196.88,-1.2477078412657692e-06
4197.78,-1.2258042578838554e-06
4198.68,-1.2089464971454874e-06
4199.58,-1.200341479909688e-06
4200.48,-1.1968848822439048e-06
4201.38,-1.1906629842622936e-06
4202.28,-1.1999803360024272e-06
4203.18,-1.2121373091507343e-06
4204.08,-1.2187931964824348e-06
4204.98,-1.2374822938339207e-06
4205.88,-1.2559408534794143e-06
4206.79,-1.2765182656873925e-06
4207.69,-1.2928482174787454e-06
4208.59,-1.3051549193206516e-06
4209.49,-1.318550837096081e-06
4210.39,-1.3264542093612919e-06
4211.29,-1.3280053505334905e-06
4212.19,-1.3320768298959587e-06
4213.09,-1.3260155733925777e-06
4213.99,-1.3199368007536424e-06
4214.89,-1.3081105343626115e-06
4215.79,-1.2959143062695023e-06
4216.69,-1.289316827730903e-06
4217.59,-1.2931335137776523e-06
4218.49,-1.3032827910219822e-06
4219.39,-1.3134001412858283e-06
4220.29,-1.3347517558571608e-06
4221.19,-1.3333683378447962e-06
4222.09,-1.3293116964739236e-06
4222.99,-1.3040429085437961e-06
4223.89,-1.2709668613885092e-06
4224.79,-1.2267481296634998e-06
4225.69,-1.1769350378213622e-06
4226.59,-1.1391026556405774e-06
4227.49,-1.1279428707553066e-06
4228.39,-1.1425289723317912e-06
4229.29,-1.1751038736097987e-06
4230.19,-1.2160895101867993e-06
4231.09,-1.2614357564856923e-06
4231.99,-1.2907760952964319e-06
4232.89,-1.3093520247526095e-06
4233.79,-1.3221438643816113e-06
4234.69,-1.31548673348403e-06
4235.59,-1.3026171324003234e-06
4236.49,-1.2993329650159016e-06
4237.39,-1.293833209174895e-06
4238.29,-1.2977889521132238e-06
4239.19,-1.3043715432227586e-06
4240.09,-1.3152225473307643e-06
4240.99,-1.3344422121314967e-06
4241.89,-1.3512569947464511e-06
4242.79,-1.3689912516694913e-06
4243.69,-1.3772238819728138e-06
4244.59,-1.3858280242671459e-06
4245.5,-1.3847256021712095e-06
4246.4,-1.3767778144392494e-06
4247.3,-1.3579157266001225e-06
4248.2,-1.3480807243506983e-06
4249.1,-1.330898646265628e-06
4250.0,-1.316092995039654e-06
4250.9,-1.3149178707940743e-06
4251.8,-1.3168786376123434e-06
4252.7,-1.3272687048305727e-06
4253.6,-1.3407738232412171e-06
4254.5,-1.3487796377825253e-06
4255.4,-1.351264444364303e-06
4256.3,-1.3581083498440637e-06
4257.2,-1.363176511307384e-06
4258.1,-1.3611989221139762e-06
4259.0,-1.351788485233932e-06
4259.9,-1.345649445645212e-06
4260.8,-1.3452564930545255e-06
4261.7,-1.3542396140712056e-06
4262.6,-1.3688431566973067e-06
4263.5,-1.3899331810527515e-06
4264.4,-1.41125787552858e-06
4265.3,-1.4300379041446693e-06
4266.2,-1.4483812662540728e-06
4267.1,-1.4456222934878984e-06
4268.0,-1.4324781569371028e-06
4268.9,-1.4102444934955875e-06
4269.8,-1.3785204016925293e-06
4270.7,-1.3468325505443185e-06
4271.6,-1.3174991476214512e-06
4272.5,-1.2871092405052033e-06
4273.4,-1.2730891341790366e-06
4274.3,-1.2770347499490477e-06
4275.2,-1.291290873938141e-06
4276.1,-1.3178631760355294e-06
