wave,flux
3700.85,-4.601593656925055e-07
3701.75,-4.5231179850692245e-07
3702.65,-4.306055610161027e-07
3703.55,-4.018479586853197e-07
3704.45,-3.656593442294799e-07
3705.35,-3.3415664658610967e-07
3706.25,-3.093425594627052e-07
3707.15,-2.942546428136411e-07
3708.05,-2.9121584955463825e-07
3708.96,-3.03092723891077e-07
3709.86,-3.239958927455408e-07
3710.76,-3.574000072110124e-07
3711.66,-3.954326275250016e-07
3712.56,-4.352453885479753e-07
3713.46,-4.6539441791424977e-07
3714.36,-4.826829300133882e-07
3715.26,-4.814303120830141e-07
3716.16,-4.6163096675625753e-07
3717.06,-4.3192856998874333e-07
3717.96,-3.900491419993226e-07
3718.86,-3.4155830727076355e-07
3719.76,-2.988965347283592e-07
3720.66,-2.651702813243643e-07
3721.56,-2.499312631635059e-07
3722.46,-2.5329268834882905e-07
3723.36,-2.729784135655799e-07
3724.26,-3.016317818281829e-07
3725.16,-3.30855229243388e-07
3726.06,-3.5367697834817715e-07
3726.96,-3.648758185238913e-07
3727.86,-3.680812498443211e-07
3728.76,-3.6621804893173695e-07
3729.66,-3.601962160254385e-07
3730.56,-3.4946807960121285e-07
3731.46,-3.311331493836277e-07
3732.36,-3.0531436451222737e-07
3733.26,-2.7419607787009015e-07
3734.16,-2.4181383607156927e-07
3735.06,-2.1770179360460586e-07
3735.96,-2.0519595921341754e-07
3736.86,-2.0767943588532342e-07
3737.76,-2.2457391903767931e-07
3738.66,-2.543574943364789e-07
3739.56,-2.8859977904555245e-07
3740.46,-3.188610003621582e-07
3741.36,-3.3880411018244245e-07
3742.26,-3.409364705021254e-07
3743.16,-3.2647512129344073e-07
3744.06,-3.0383114305235506e-07
3744.96,-2.789453412462991e-07
3745.86,-2.5470459723077553e-07
3746.76,-2.344811691803081e-07
3747.67,-2.23065818557268e-07
3748.57,-2.2037755277818654e-07
3749.47,-2.2877082056275489e-07
3750.37,-2.482401129050064e-07
3751.27,-2.821821027151143e-07
3752.17,-3.2321289495590025e-07
3753.07,-3.6648415163716704e-07
3753.97,-4.0422456670986766e-07
3754.87,-4.297597757738765e-07
3755.77,-4.336006912852458e-07
3756.67,-4.2409831306462985e-07
3757.57,-3.995006272546933e-07
3758.47,-3.7449402030874365e-07
3759.37,-3.5318180198417543e-07
3760.27,-3.445285120092763e-07
3761.17,-3.450757605148974e-07
3762.07,-3.507602101109122e-07
3762.97,-3.5514678754525564e-07
3763.87,-3.5728015463417157e-07
3764.77,-3.620472129207083e-07
3765.67,-3.6424147242450256e-07
3766.57,-3.7157417866934836e-07
3767.47,-3.816494103827935e-07
3768.37,-3.997052389352849e-07
3769.27,-4.2476742718237715e-07
3770.17,-4.504087499994023e-07
3771.07,-4.778320405950524e-07
3771.97,-5.016961389328618e-07
3772.87,-5.199695642770347e-07
3773.77,-5.344351042646811e-07
3774.67,-5.401180612146264e-07
3775.57,-5.412155552956171e-07
3776.47,-5.41854067635884e-07
3777.37,-5.436435890883267e-07
3778.27,-5.479028940086626e-07
3779.17,-5.569203156546517e-07
3780.07,-5.675527004123798e-07
3780.97,-5.790934738538949e-07
3781.87,-5.898892488128302e-07
3782.77,-5.945625953022482e-07
3783.67,-5.920567463686325e-07
3784.57,-5.747609529263168e-07
3785.47,-5.531272580638149e-07
3786.38,-5.186762696117726e-07
3787.28,-4.814992387118188e-07
3788.18,-4.515964212810964e-07
3789.08,-4.319605268485665e-07
3789.98,-4.2255610400878717e-07
3790.88,-4.2043731553270815e-07
3791.78,-4.264113991921392e-07
3792.68,-4.309970530263889e-07
3793.58,-4.2838839627049186e-07
3794.48,-4.2147926793455917e-07
3795.38,-4.1035861414908625e-07
3796.28,-4.0145123201145724e-07
3797.18,-3.9262922560038355e-07
3798.08,-3.885417803044134e-07
3798.98,-3.9065213578341864e-07
3799.88,-4.038028099870492e-07
3800.78,-4.247030450143244e-07
3801.68,-4.55801662753274e-07
3802.58,-4.892331417639635e-07
3803.48,-5.191675514410526e-07
3804.38,-5.382353099434188e-07
3805.28,-5.455522414319982e-07
3806.18,-5.43122313156001e-07
3807.08,-5.348103861018794e-07
3807.98,-5.319883790576054e-07
3808.88,-5.316891281812897e-07
3809.78,-5.341972490452233e-07
3810.68,-5.376650895721458e-07
3811.58,-5.31393146900079e-07
3812.48,-5.124472731914863e-07
3813.38,-4.853187406613151e-07
3814.28,-4.5284421800653435e-07
3815.18,-4.207280940079052e-07
3816.08,-3.966983824188682e-07
3816.98,-3.7754398895894097e-07
3817.88,-3.6774478515309e-07
3818.78,-3.5818414085444473e-07
3819.68,-3.4786051874458645e-07
3820.58,-3.350670377269809e-07
3821.48,-3.2698619277365845e-07
3822.38,-3.2127822696160485e-07
3823.28,-3.164132527102528e-07
3824.18,-3.092197907428335e-07
3825.09,-2.9818302439306585e-07
3825.99,-2.873472607395059e-07
3826.89,-2.7961177543583485e-07
3827.79,-2.777044130264414e-07
3828.69,-2.818713091064029e-07
3829.59,-2.871244565626839e-07
3830.49,-2.937399975447757e-07
3831.39,-2.9558942834903004e-07
3832.29,-2.9648704168171656e-07
3833.19,-2.965378543903169e-07
3834.09,-2.9660104344442545e-07
3834.99,-2.997540425288504e-07
3835.89,-3.058951261095663e-07
3836.79,-3.1020682277231515e-07
3837.69,-3.127449409250352e-07
3838.59,-3.114905653447288e-07
3839.49,-3.1028447376514495e-07
3840.39,-3.183035145159356e-07
3841.29,-3.3578805789828824e-07
3842.19,-3.6556171680102506e-07
3843.09,-3.996153076695937e-07
3843.99,-4.344657029979292e-07
3844.89,-4.6079381722718447e-07
3845.79,-4.822123347845369e-07
3846.69,-4.933961533314939e-07
3847.59,-4.947894897068386e-07
3848.49,-4.916338248806286e-07
3849.39,-4.849489547732902e-07
3850.29,-4.78775306141157e-07
3851.19,-4.7271219876971274e-07
3852.09,-4.7284310119974876e-07
3852.99,-4.7085741556294346e-07
3853.89,-4.6508594951996135e-07
3854.79,-4.56862440470357e-07
3855.69,-4.390368472033455e-07
3856.59,-4.194078556862018e-07
3857.49,-4.006259612377391e-07
3858.39,-3.8223805516017986e-07
3859.29,-3.7030469396577225e-07
3860.19,-3.679743669477841e-07
3861.09,-3.7974987433806473e-07
3861.99,-4.0586426718538034e-07
3862.9,-4.417800448810178e-07
3863.8,-4.6774056466575843e-07
3864.7,-4.907603661933644e-07
3865.6,-5.02034854088952e-07
3866.5,-5.033374556987863e-07
3867.4,-4.958142025972784e-07
3868.3,-4.874811566929466e-07
3869.2,-4.7366756617999333e-07
3870.1,-4.596732045936169e-07
3871.0,-4.453686989758729e-07
3871.9,-4.3980858638525676e-07
3872.8,-4.472741724353803e-07
3873.7,-4.6729936247462636e-07
3874.6,-4.93044984236736e-07
3875.5,-5.153156840180479e-07
3876.4,-5.271865320500797e-07
3877.3,-5.264399767146634e-07
3878.2,-5.173900408656011e-07
3879.1,-5.045667762524639e-07
3880.0,-4.939064499293272e-07
3880.9,-4.910519319882784e-07
3881.8,-4.954424735642671e-07
3882.7,-5.056119055308606e-07
3883.6,-5.157211018139355e-07
3884.5,-5.251835362390682e-07
3885.4,-5.281013790440773e-07
3886.3,-5.264532707702109e-07
3887.2,-5.262942242485925e-07
3888.1,-5.340731931231107e-07
3889.0,-5.576406551599619e-07
3889.9,-5.952632356882686e-07
3890.8,-6.404700960509091e-07
3891.7,-6.920598701446398e-07
3892.6,-7.319194819573516e-07
3893.5,-7.610980664840001e-07
3894.4,-7.72357713359333e-07
3895.3,-7.738103182162275e-07
3896.2,-7.687773364794395e-07
3897.1,-7.645633384855112e-07
3898.0,-7.621207367437088e-07
3898.9,-7.550417135277595e-07
3899.8,-7.548856801028124e-07
3900.7,-7.538930984759025e-07
3901.6,-7.473104154923789e-07
3902.51,-7.43868943153973e-07
3903.41,-7.351917733890534e-07
3904.31,-7.269394156632299e-07
3905.21,-7.201195749384867e-07
3906.11,-7.235178594066669e-07
3907.01,-7.470528959341577e-07
3907.91,-7.788796339660023e-07
3908.81,-8.205414163901864e-07
3909.71,-8.661587283420482e-07
3910.61,-9.031752681327774e-07
3911.51,-9.34953367178359e-07
3912.41,-9.574062642100743e-07
3913.31,-9.720694440526076e-07
3914.21,-9.79444613872875e-07
3915.11,-9.671658273152547e-07
3916.01,-9.48581343247555e-07
3916.91,-9.300823851561636e-07
3917.81,-9.006233658561302e-07
3918.71,-8.597306396792302e-07
3919.61,-8.174747524494848e-07
3920.51,-7.78559676567268e-07
3921.41,-7.385519489264219e-07
3922.31,-7.14501521208627e-07
3923.21,-7.022906453185992e-07
3924.11,-6.946393120732755e-07
3925.01,-6.866489898455319e-07
3925.91,-6.698277501419691e-07
3926.81,-6.403005736975781e-07
3927.71,-5.944357564227757e-07
3928.61,-5.397410102553096e-07
3929.51,-4.815802639601277e-07
3930.41,-4.2432998791964786e-07
3931.31,-3.734760376768025e-07
3932.21,-3.316674743853534e-07
3933.11,-3.033561299208038e-07
3934.01,-2.895738702280182e-07
3934.91,-2.9079036389858996e-07
3935.81,-3.115509144188419e-07
3936.71,-3.487475124758477e-07
3937.61,-3.995130795105847e-07
3938.51,-4.5817953751134697e-07
3939.42,-5.158106297553502e-07
3940.32,-5.700035144364391e-07
3941.22,-6.108924666846941e-07
3942.12,-6.422896914101663e-07
3943.02,-6.643515051433288e-07
3943.92,-6.866653291617333e-07
3944.82,-7.194683788357642e-07
3945.72,-7.582362513559894e-07
3946.62,-8.064212258610114e-07
3947.52,-8.607206721290348e-07
3948.42,-9.118230747174472e-07
3949.32,-9.62545435737988e-07
3950.22,-1.0052730320876293e-06
3951.12,-1.03813265652663e-06
3952.02,-1.0662559299356188e-06
3952.92,-1.0867368550689551e-06
3953.82,-1.092750479499196e-06
3954.72,-1.0989404564841452e-06
3955.62,-1.095985715896048e-06
3956.52,-1.082310791869762e-06
3957.42,-1.061192880722277e-06
3958.32,-1.0379646266126404e-06
3959.22,-9.988697566508661e-07
3960.12,-9.519999748787508e-07
3961.02,-8.833110272251388e-07
3961.92,-8.078123118283424e-07
3962.82,-7.373475690170742e-07
3963.72,-6.712229388058344e-07
3964.62,-6.143417796468231e-07
3965.52,-5.589713327642775e-07
3966.42,-5.062947837108591e-07
3967.32,-4.5664787797470467e-07
3968.22,-4.1719879480366515e-07
3969.12,-3.9947400414048437e-07
3970.02,-4.0336367690555136e-07
3970.92,-4.3573701468249895e-07
3971.82,-4.890472514877818e-07
3972.72,-5.620470823905873e-07
3973.62,-6.45477651433247e-07
3974.52,-7.390490003390658e-07
3975.42,-8.324679965066095e-07
3976.32,-9.246139384395327e-07
3977.22,-1.0179422496966478e-06
3978.13,-1.106536081298187e-06
3979.03,-1.1932435574721916e-06
3979.93,-1.2561073042104252e-06
3980.83,-1.3045111783104694e-06
3981.73,-1.3454719209710471e-06
3982.63,-1.3688779267201683e-06
3983.53,-1.3770414322722799e-06
3984.43,-1.3989346520991708e-06
3985.33,-1.4145802359630497e-06
3986.23,-1.4369400917429375e-06
3987.13,-1.4667628642153976e-06
3988.03,-1.4922974064516558e-06
3988.93,-1.5258363987743518e-06
3989.83,-1.5447402515392716e-06
3990.73,-1.560227516579806e-06
3991.63,-1.5747171604108486e-06
3992.53,-1.5972403118440636e-06
3993.43,-1.6075329957729758e-06
3994.33,-1.6144560583149351e-06
3995.23,-1.6062720139458755e-06
3996.13,-1.603491485029438e-06
3997.03,-1.5932354688362745e-06
3997.93,-1.5950615782224551e-06
3998.83,-1.6183247435931949e-06
3999.73,-1.6574423086462675e-06
4000.63,-1.6975853627113564e-06
4001.53,-1.7454043290763905e-06
4002.43,-1.7627168311143004e-06
4003.33,-1.766881516991279e-06
4004.23,-1.7332407744227936e-06
4005.13,-1.6994993119614181e-06
4006.03,-1.6620941374950708e-06
4006.93,-1.6462894183196143e-06
4007.83,-1.6628431280787492e-06
4008.73,-1.6977513757865755e-06
4009.63,-1.7434339388357771e-06
4010.53,-1.7957307538340417e-06
4011.43,-1.8418021557471692e-06
4012.33,-1.8921273761887203e-06
4013.23,-1.9099221301026605e-06
4014.13,-1.9377435537683427e-06
4015.03,-1.9524770354465902e-06
4015.93,-1.963049168799798e-06
4016.84,-1.980669259005996e-06
4017.74,-1.9896004419296104e-06
4018.64,-1.996748874708885e-06
4019.54,-2.014337796452559e-06
4020.44,-2.0192103266764728e-06
4021.34,-2.018683907112494e-06
4022.24,-2.0361376719958865e-06
4023.14,-2.0276307767142077e-06
4024.04,-2.0207749691986016e-06
4024.94,-2.02390318195833e-06
4025.84,-2.036135672293079e-06
4026.74,-2.054488504495148e-06
4027.64,-2.0594460485125984e-06
4028.54,-2.0645267358058498e-06
4029.44,-2.016808637933456e-06
4030.34,-1.9403648029328616e-06
4031.24,-1.8545253107678249e-06
4032.14,-1.7680935775411932e-06
4033.04,-1.7017120581393592e-06
4033.94,-1.679241709220951e-06
4034.84,-1.715227385444314e-06
4035.74,-1.791461846504651e-06
4036.64,-1.8924007554053743e-06
4037.54,-2.0080867421875626e-06
4038.44,-2.1041880315456883e-06
4039.34,-2.1674709982876833e-06
4040.24,-2.1990145772150365e-06
4041.14,-2.1897039947940128e-06
4042.04,-2.1402643821715727e-06
4042.94,-2.0696220065752726e-06
4043.84,-1.965042998201123e-06
4044.74,-1.851055388705286e-06
4045.64,-1.7639534838049031e-06
4046.54,-1.71560228359966e-06
4047.44,-1.7293655201370239e-06
4048.34,-1.8008853656420192e-06
4049.24,-1.9200931030492157e-06
4050.14,-2.048114034384877e-06
4051.04,-2.1462218057040535e-06
4051.94,-2.21504518182645e-06
4052.84,-2.229551066457908e-06
4053.74,-2.2220855378617864e-06
4054.65,-2.1841413253551557e-06
4055.55,-2.146093095372891e-06
4056.45,-2.080173202453176e-06
4057.35,-2.058502816196482e-06
4058.25,-2.04561114773374e-06
4059.15,-2.0421634652451123e-06
4060.05,-2.0319745049520333e-06
4060.95,-2.0208417769932072e-06
4061.85,-1.9976702350599543e-06
4062.75,-1.9488421686904318e-06
4063.65,-1.9007953424736345e-06
4064.55,-1.8741550147209655e-06
4065.45,-1.8711586879957456e-06
4066.35,-1.9235228570819696e-06
4067.25,-1.987231463708004e-06
4068.15,-2.0578575283193288e-06
4069.05,-2.1184956063793133e-06
4069.95,-2.1586783096294714e-06
4070.85,-2.173242013422512e-06
4071.75,-2.153095455123438e-06
4072.65,-2.159180142718591e-06
4073.55,-2.150219888632574e-06
4074.45,-2.152525232346284e-06
4075.35,-2.160839684304769e-06
4076.25,-2.1557923219770235e-06
4077.15,-2.1553784592248543e-06
4078.05,-2.16764272824423e-06
4078.95,-2.2049929257905114e-06
4079.85,-2.282988950193847e-06
4080.75,-2.379443930355984e-06
4081.65,-2.458779306167343e-06
4082.55,-2.538280491365902e-06
4083.45,-2.5765941525402694e-06
4084.35,-2.6104923831823406e-06
4085.25,-2.6268267775359694e-06
4086.15,-2.6639902570004247e-06
4087.05,-2.724717569921182e-06
4087.95,-2.808461415817411e-06
4088.85,-2.865293657899564e-06
4089.75,-2.915557726665094e-06
4090.65,-2.933654981260083e-06
4091.55,-2.9231759582792948e-06
4092.45,-2.895054143661229e-06
4093.36,-2.844973786963961e-06
4094.26,-2.791798023891001e-06
4095.16,-2.724867486951762e-06
4096.06,-2.661339268501491e-06
4096.96,-2.5910356511588645e-06
4097.86,-2.514066847228714e-06
4098.76,-2.443008689636974e-06
4099.66,-2.3959376035739584e-06
4100.56,-2.3501982622767547e-06
4101.46,-2.3204910043899503e-06
4102.36,-2.3106866301505154e-06
4103.26,-2.336661628026535e-06
4104.16,-2.41015619285486e-06
4105.06,-2.494637124616154e-06
4105.96,-2.6012378268469122e-06
4106.86,-2.6755877441926537e-06
4107.76,-2.7371963486424835e-06
4108.66,-2.7763684574464597e-06
4109.56,-2.7850392426036434e-06
4110.46,-2.781171061117617e-06
4111.36,-2.7799428815756443e-06
4112.26,-2.7865242479052824e-06
4113.16,-2.8149887118590942e-06
4114.06,-2.8509911435101832e-06
4114.96,-2.894680852477962e-06
4115.86,-2.9434715396831927e-06
4116.76,-2.950500278975717e-06
4117.66,-2.954867908654194e-06
4118.56,-2.9401869826421702e-06
4119.46,-2.903834767167558e-06
4120.36,-2.891726185465949e-06
4121.26,-2.892782597326634e-06
4122.16,-2.8994219647894485e-06
4123.06,-2.9090817379382338e-06
4123.96,-2.941304215399857e-06
4124.86,-2.9854997679391496e-06
4125.76,-3.0027741163608636e-06
4126.66,-3.0008169773225122e-06
4127.56,-2.9791212079874256e-06
4128.46,-2.9412208043289994e-06
4129.36,-2.902248840856852e-06
4130.26,-2.844119580101159e-06
4131.17,-2.7770632054509344e-06
4132.06,-2.7260453028317296e-06
4132.97,-2.687487345472047e-06
4133.87,-2.6816554681571063e-06
4134.77,-2.701099930349819e-06
4135.67,-2.804962039372269e-06
4136.57,-2.8964984393478905e-06
4137.47,-2.985374027642844e-06
4138.37,-3.084891014465433e-06
4139.27,-3.128802773839599e-06
4140.17,-3.1275024918916775e-06
4141.07,-3.057632497470603e-06
4141.97,-2.970978382082321e-06
4142.87,-2.8563014349104884e-06
4143.77,-2.7870408277681896e-06
4144.67,-2.73523339450471e-06
4145.57,-2.732640035747972e-06
4146.47,-2.7885461153738106e-06
4147.37,-2.854756263120776e-06
4148.27,-2.922995807293436e-06
4149.17,-2.9685740497231646e-06
4150.07,-2.992365923994295e-06
4150.97,-2.998764672673584e-06
4151.87,-2.9723664362166832e-06
4152.77,-2.9526448306086865e-06
4153.67,-2.9462325092839516e-06
4154.57,-2.9414371298288876e-06
4155.47,-2.94879678899441e-06
4156.37,-2.97506681596121e-06
4157.27,-3.0205716651912613e-06
4158.17,-3.085463396914534e-06
4159.07,-3.1761973273064247e-06
4159.97,-3.2611516133483426e-06
4160.87,-3.3535321197876927e-06
4161.77,-3.436537448561111e-06
4162.67,-3.4939403122485553e-06
4163.57,-3.5183477501615813e-06
4164.47,-3.5234993342280324e-06
4165.37,-3.491141826106899e-06
4166.27,-3.4552663734117576e-06
4167.17,-3.413792774109537e-06
4168.07,-3.369720020997322e-06
4168.98,-3.3389823675324252e-06
4169.88,-3.31912071194822e-06
4170.78,-3.2980753788959564e-06
4171.68,-3.250914953151987e-06
4172.58,-3.2073405057075584e-06
4173.48,-3.140343879520257e-06
4174.38,-3.102562796370324e-06
4175.28,-3.0908792244223644e-06
4176.18,-3.1124779031710505e-06
4177.08,-3.1559041307596036e-06
4177.98,-3.208974991794895e-06
4178.88,-3.229684565738952e-06
4179.78,-3.2880330499178136e-06
4180.68,-3.339430187562698e-06
4181.58,-3.3628194634992978e-06
4182.48,-3.3957797611296226e-06
4183.38,-3.440682030803135e-06
4184.28,-3.4754292919215946e-06
4185.18,-3.522990580030673e-06
4186.08,-3.523215276418531e-06
4186.98,-3.526003441865826e-06
4187.88,-3.5202647622903894e-06
4188.78,-3.5343424784587762e-06
4189.68,-3.536247140811229e-06
4190.58,-3.60224672180076e-06
4191.48,-3.653106548502009e-06
4192.38,-3.7250030415080214e-06
4193.28,-3.7541690571737153e-06
4194.18,-3.7549234851815105e-06
4195.08,-3.720091036666945e-06
4195.98,-3.6594501693270003e-06
4196.88,-3.5661120734855935e-06
4197.78,-3.460025191579316e-06
4198.68,-3.3873153991587393e-06
4199.58,-3.3243546190172216e-06
4200.48,-3.321079973523118e-06
4201.38,-3.350239153913025e-06
4202.28,-3.4278765506676166e-06
4203.18,-3.4991332776620825e-06
4204.08,-3.6206518507174305e-06
4204.98,-3.754386814888434e-06
4205.88,-3.896876872567095e-06
4206.79,-4.042016803400832e-06
4207.69,-4.1548429931422575e-06
4208.59,-4.221841467307852e-06
4209.49,-4.269051537135619e-06
4210.39,-4.28944747958817e-06
4211.29,-4.2718671921609355e-06
4212.19,-4.238391762938193e-06
4213.09,-4.207239105782794e-06
4213.99,-4.153618001265237e-06
4214.89,-4.09618908206283e-06
4215.79,-4.085007170145541e-06
4216.69,-4.10279778263455e-06
4217.59,-4.2073236570594415e-06
4218.49,-4.322456966415387e-06
4219.39,-4.436245167653346e-06
4220.29,-4.5235698822670864e-06
4221.19,-4.538918859214907e-06
4222.09,-4.45697913077431e-06
4222.99,-4.294532780087598e-06
4223.89,-4.048183182350208e-06
4224.79,-3.747702054943824e-06
4225.69,-3.4453930524083485e-06
4226.59,-3.2318099530563875e-06
4227.49,-3.1321755355845096e-06
4228.39,-3.201142066264564e-06
4229.29,-3.396301468929295e-06
4230.19,-3.655496748834759e-06
4231.09,-3.922139986253142e-06
4231.99,-4.170430476153446e-06
4232.89,-4.342024261073671e-06
4233.79,-4.401687627657754e-06
4234.69,-4.41202827154883e-06
4235.59,-4.387267715012545e-06
4236.49,-4.372864552624875e-06
4237.39,-4.372629221974885e-06
4238.29,-4.404794917214065e-06
4239.19,-4.507141145472258e-06
4240.09,-4.613003559767251e-06
4240.99,-4.752310652624097e-06
4241.89,-4.903007821799457e-06
4242.79,-5.055339227060531e-06
4243.69,-5.196656380468959e-06
4244.59,-5.310017049615087e-06
4245.5,-5.3474013322106766e-06
4246.4,-5.337423656949127e-06
4247.3,-5.2668810050031e-06
4248.2,-5.115569874906596e-06
4249.1,-4.913058386958958e-06
4250.0,-4.75664041250805e-06
4250.9,-4.607290973822515e-06
4251.8,-4.548348108864229e-06
4252.7,-4.516507951595922e-06
4253.6,-4.5473760003167506e-06
4254.5,-4.566922575712532e-06
4255.4,-4.642246855897217e-06
4256.3,-4.732983373236586e-06
4257.2,-4.789790574299635e-06
4258.1,-4.857124571960266e-06
4259.0,-4.857084547509463e-06
4259.9,-4.85072652994645e-06
4260.8,-4.854352444954661e-06
4261.7,-4.89941793368409e-06
4262.6,-5.050216320342469e-06
4263.5,-5.265132129383241e-06
4264.4,-5.472577553411217e-06
4265.3,-5.691666204528523e-06
4266.2,-5.804748542684956e-06
4267.1,-5.7867575675076516e-06
4268.0,-5.700159771780455e-06
4268.9,-5.511672601657119e-06
4269.8,-5.21964706722319e-06
4270.7,-4.902000364407089e-06
4271.6,-4.602502564320656e-06
4272.5,-4.376336892246915e-06
4273.4,-4.260476414012436e-06
4274.3,-4.3043870156768046e-06
4275.2,-4.425654431479319e-06
4276.1,-4.659522779239036e-06
