wave,flux
3700.85,-4.011272649998974e-07
3701.75,-3.9663071015664054e-07
3702.65,-3.8572142204906837e-07
3703.55,-3.6831242367307514e-07
3704.45,-3.4869433918735437e-07
3705.35,-3.31360385486436e-07
3706.25,-3.2060143328895926e-07
3707.15,-3.165578438529909e-07
3708.05,-3.175852066606261e-07
3708.96,-3.2310023612637566e-07
3709.86,-3.318996575062305e-07
3710.76,-3.4272087356432467e-07
3711.66,-3.574697003603798e-07
3712.56,-3.738358391026434e-07
3713.46,-3.9022545319547037e-07
3714.36,-4.0338345297567187e-07
3715.26,-4.145970323066373e-07
3716.16,-4.1709582701694166e-07
3717.06,-4.115273163617007e-07
3717.96,-3.980767388671864e-07
3718.86,-3.7685037823794435e-07
3719.76,-3.5231148068930306e-07
3720.66,-3.274231099433251e-07
3721.56,-3.1015569249296657e-07
3722.46,-3.0673791481924615e-07
3723.36,-3.1455377356220975e-07
3724.26,-3.3273046294506814e-07
3725.16,-3.52517480106131e-07
3726.06,-3.7092567182159223e-07
3726.96,-3.8190052867836916e-07
3727.86,-3.8794697674742284e-07
3728.76,-3.891020751642206e-07
3729.66,-3.848365109896634e-07
3730.56,-3.7690095934620945e-07
3731.46,-3.6493137783299824e-07
3732.36,-3.436350345933663e-07
3733.26,-3.1966090160648923e-07
3734.16,-2.9572680617747915e-07
3735.06,-2.795611969373309e-07
3735.96,-2.7151703041425556e-07
3736.86,-2.7965383586372e-07
3737.76,-2.958361525953613e-07
3738.66,-3.221380824349237e-07
3739.56,-3.4819915693388343e-07
3740.46,-3.731295791482976e-07
3741.36,-3.8712274514481044e-07
3742.26,-3.9230677338469557e-07
3743.16,-3.883495816607957e-07
3744.06,-3.7557703954724156e-07
3744.96,-3.590477503374531e-07
3745.86,-3.412824112256516e-07
3746.76,-3.233934144697987e-07
3747.67,-3.054532699096732e-07
3748.57,-2.9240020101264635e-07
3749.47,-2.853478923875823e-07
3750.37,-2.875574377812934e-07
3751.27,-3.027761852281201e-07
3752.17,-3.289251434006777e-07
3753.07,-3.590661111931961e-07
3753.97,-3.8890010021743244e-07
3754.87,-4.1281315252798507e-07
3755.77,-4.2608587709950054e-07
3756.67,-4.2762072816243234e-07
3757.57,-4.1776864672018015e-07
3758.47,-4.0638246844521277e-07
3759.37,-3.947176266162789e-07
3760.27,-3.884948132679916e-07
3761.17,-3.915796433926499e-07
3762.07,-3.973557903192258e-07
3762.97,-4.026100487749054e-07
3763.87,-4.09932797872705e-07
3764.77,-4.086824923338373e-07
3765.67,-4.0879856406412467e-07
3766.57,-4.030195254053497e-07
3767.47,-3.9653329992486884e-07
3768.37,-3.90513501256184e-07
3769.27,-3.825218791345219e-07
3770.17,-3.7902760329845504e-07
3771.07,-3.8188032480727755e-07
3771.97,-3.8990626432174645e-07
3772.87,-4.035792822828945e-07
3773.77,-4.1920940159547777e-07
3774.67,-4.3611772725695293e-07
3775.57,-4.4893185140768794e-07
3776.47,-4.6093035147336223e-07
3777.37,-4.7189537712383224e-07
3778.27,-4.841335697009572e-07
3779.17,-4.967298767933466e-07
3780.07,-5.117565717175346e-07
3780.97,-5.185955323188682e-07
3781.87,-5.279580410251398e-07
3782.77,-5.33690234190559e-07
3783.67,-5.362129890251264e-07
3784.57,-5.300905943297386e-07
3785.47,-5.18030263219697e-07
3786.38,-5.018012612880257e-07
3787.28,-4.838582614716412e-07
3788.18,-4.6741375621823613e-07
3789.08,-4.564449916060467e-07
3789.98,-4.47212905719366e-07
3790.88,-4.4173601870537155e-07
3791.78,-4.3691759507017867e-07
3792.68,-4.323360486626091e-07
3793.58,-4.2148021435447743e-07
3794.48,-4.0667243841630206e-07
3795.38,-3.9086189257855837e-07
3796.28,-3.7455910277863473e-07
3797.18,-3.574683792513048e-07
3798.08,-3.498753237792793e-07
3798.98,-3.4995629774322737e-07
3799.88,-3.6142616434655356e-07
3800.78,-3.819908821700107e-07
3801.68,-4.125396733703535e-07
3802.58,-4.4244828332946994e-07
3803.48,-4.700692346056458e-07
3804.38,-4.887468745045648e-07
3805.28,-5.030997966965276e-07
3806.18,-5.080115054646963e-07
3807.08,-5.134701208448277e-07
3807.98,-5.159146677427737e-07
3808.88,-5.206776694944335e-07
3809.78,-5.293361086466076e-07
3810.68,-5.341545865204279e-07
3811.58,-5.332176419132981e-07
3812.48,-5.251707121763091e-07
3813.38,-5.110097939548453e-07
3814.28,-4.943806751917405e-07
3815.18,-4.781185845160568e-07
3816.08,-4.738090997996956e-07
3816.98,-4.653114797805277e-07
3817.88,-4.675290424568865e-07
3818.78,-4.6869309964639823e-07
3819.68,-4.621711425212109e-07
3820.58,-4.593457100880796e-07
3821.48,-4.54965900361305e-07
3822.38,-4.4946671929363474e-07
3823.28,-4.441214833991675e-07
3824.18,-4.357948771675842e-07
3825.09,-4.234303823642134e-07
3825.99,-4.1107669298088985e-07
3826.89,-3.996408457427119e-07
3827.79,-3.9145078732524336e-07
3828.69,-3.8625761889511134e-07
3829.59,-3.8072997593229397e-07
3830.49,-3.75434567351156e-07
3831.39,-3.6425671964039854e-07
3832.29,-3.4982180137293925e-07
3833.19,-3.3472128732041777e-07
3834.09,-3.1970844733974267e-07
3834.99,-3.097545308878387e-07
3835.89,-3.052328152468107e-07
3836.79,-3.0537323837616615e-07
3837.69,-3.124075066549002e-07
3838.59,-3.2282356163613734e-07
3839.49,-3.3799972810301906e-07
3840.39,-3.56817816101012e-07
3841.29,-3.8322838341954355e-07
3842.19,-4.095601964915321e-07
3843.09,-4.387614743527864e-07
3843.99,-4.654848186191888e-07
3844.89,-4.831536446468163e-07
3845.79,-5.023976777044089e-07
3846.69,-5.138491966792092e-07
3847.59,-5.230829877148339e-07
3848.49,-5.269961273228913e-07
3849.39,-5.356996496348029e-07
3850.29,-5.36989990468589e-07
3851.19,-5.425554866576087e-07
3852.09,-5.417247668774984e-07
3852.99,-5.470390724905464e-07
3853.89,-5.468908286063016e-07
3854.79,-5.430824353693884e-07
3855.69,-5.366952767189016e-07
3856.59,-5.270216368128546e-07
3857.49,-5.181194815452653e-07
3858.39,-5.065538501501129e-07
3859.29,-5.036923040582291e-07
3860.19,-5.02291124989872e-07
3861.09,-5.082809536731193e-07
3861.99,-5.228712010527173e-07
3862.9,-5.396795848761432e-07
3863.8,-5.548051149946774e-07
3864.7,-5.661464614614216e-07
3865.6,-5.735295298208161e-07
3866.5,-5.74061048094418e-07
3867.4,-5.709214588489602e-07
3868.3,-5.650490289436905e-07
3869.2,-5.590491138925107e-07
3870.1,-5.487678677159199e-07
3871.0,-5.399503075245619e-07
3871.9,-5.294103847063862e-07
3872.8,-5.235645385567385e-07
3873.7,-5.207569663541103e-07
3874.6,-5.261681269881125e-07
3875.5,-5.290361648689854e-07
3876.4,-5.332303177392496e-07
3877.3,-5.340240626405412e-07
3878.2,-5.277138700479078e-07
3879.1,-5.196056558083322e-07
3880.0,-5.182722604912904e-07
3880.9,-5.127879778657494e-07
3881.8,-5.098831184217888e-07
3882.7,-5.046705018827212e-07
3883.6,-4.982112008779876e-07
3884.5,-4.860704505532234e-07
3885.4,-4.690195549344858e-07
3886.3,-4.4951740851147734e-07
3887.2,-4.3119158586069566e-07
3888.1,-4.155356540902574e-07
3889.0,-4.082418588880847e-07
3889.9,-4.1078311185522263e-07
3890.8,-4.251540762270698e-07
3891.7,-4.485703467599752e-07
3892.6,-4.7350663721710867e-07
3893.5,-4.974350284751156e-07
3894.4,-5.156797741191866e-07
3895.3,-5.334995622951455e-07
3896.2,-5.436673346438241e-07
3897.1,-5.550141277331762e-07
3898.0,-5.642916162229012e-07
3898.9,-5.710391720431318e-07
3899.8,-5.796675454799442e-07
3900.7,-5.836720119493775e-07
3901.6,-5.885613199694887e-07
3902.51,-5.920864757663413e-07
3903.41,-5.888403736143005e-07
3904.31,-5.878005397691152e-07
3905.21,-5.840493993153421e-07
3906.11,-5.841693327147424e-07
3907.01,-5.903458970594807e-07
3907.91,-6.028555583798511e-07
3908.81,-6.211087091027917e-07
3909.71,-6.364079464817308e-07
3910.61,-6.573004794241222e-07
3911.51,-6.657655690525351e-07
3912.41,-6.732419212924274e-07
3913.31,-6.766977376971044e-07
3914.21,-6.775402986413089e-07
3915.11,-6.683687771050833e-07
3916.01,-6.617500692222268e-07
3916.91,-6.557336383326282e-07
3917.81,-6.428176253295319e-07
3918.71,-6.319550073525987e-07
3919.61,-6.223078351709513e-07
3920.51,-6.108059249020777e-07
3921.41,-6.024232128716838e-07
3922.31,-5.969112261768443e-07
3923.21,-5.941589608721205e-07
3924.11,-5.870604677877744e-07
3925.01,-5.783282640032312e-07
3925.91,-5.616586316674305e-07
3926.81,-5.367443677333227e-07
3927.71,-5.020037913735482e-07
3928.61,-4.5958414798521573e-07
3929.51,-4.147022309662352e-07
3930.41,-3.669292762364849e-07
3931.31,-3.202327503318907e-07
3932.21,-2.7910796567281584e-07
3933.11,-2.453316614916459e-07
3934.01,-2.2724872161635813e-07
3934.91,-2.231198705209376e-07
3935.81,-2.3835452355018976e-07
3936.71,-2.6845124863336923e-07
3937.61,-3.1077761847762507e-07
3938.51,-3.5881386817826075e-07
3939.42,-4.067936061423892e-07
3940.32,-4.538372053291801e-07
3941.22,-4.882622948437276e-07
3942.12,-5.163875503316078e-07
3943.02,-5.3767392752878e-07
3943.92,-5.533440580568238e-07
3944.82,-5.688550548928e-07
3945.72,-5.899047297435633e-07
3946.62,-6.052455170282705e-07
3947.52,-6.246515750649574e-07
3948.42,-6.388866428778008e-07
3949.32,-6.533348188168327e-07
3950.22,-6.620123499177241e-07
3951.12,-6.711598907020117e-07
3952.02,-6.773022577123312e-07
3952.92,-6.805187193178087e-07
3953.82,-6.85909160592896e-07
3954.72,-6.826695302207542e-07
3955.62,-6.850147848003267e-07
3956.52,-6.791185644413122e-07
3957.42,-6.737879586748918e-07
3958.32,-6.658638626174203e-07
3959.22,-6.542455077956215e-07
3960.12,-6.385917077649958e-07
3961.02,-6.121960934811914e-07
3961.92,-5.79674940750238e-07
3962.82,-5.405857085362026e-07
3963.72,-5.016939475123684e-07
3964.62,-4.58071856489046e-07
3965.52,-4.13499659901492e-07
3966.42,-3.680475239170511e-07
3967.32,-3.2338578871042374e-07
3968.22,-2.85814088574786e-07
3969.12,-2.6361654958900676e-07
3970.02,-2.583995281312267e-07
3970.92,-2.720911961114609e-07
3971.82,-3.014857973637556e-07
3972.72,-3.4389904784124526e-07
3973.62,-3.9286877288239127e-07
3974.52,-4.4554065825495846e-07
3975.42,-4.932090230077893e-07
3976.32,-5.402853871519441e-07
3977.22,-5.826116367918794e-07
3978.13,-6.240783297953253e-07
3979.03,-6.575482356099773e-07
3979.93,-6.899391561961492e-07
3980.83,-7.142244564406348e-07
3981.73,-7.281057263359163e-07
3982.63,-7.376834970720813e-07
3983.53,-7.426224833020002e-07
3984.43,-7.474032616731622e-07
3985.33,-7.578471493009755e-07
3986.23,-7.685042398045872e-07
3987.13,-7.781665031089424e-07
3988.03,-7.927302150147975e-07
3988.93,-7.970288806070457e-07
3989.83,-8.101327854859957e-07
3990.73,-8.153722977498119e-07
3991.63,-8.267994512401339e-07
3992.53,-8.289499570760696e-07
3993.43,-8.375813666198041e-07
3994.33,-8.382988388669347e-07
3995.23,-8.335175705415921e-07
3996.13,-8.315914446986724e-07
3997.03,-8.257546190224082e-07
3997.93,-8.215316088581838e-07
3998.83,-8.266039485320242e-07
3999.73,-8.393150558265889e-07
4000.63,-8.530373033779664e-07
4001.53,-8.638839425121988e-07
4002.43,-8.725578412514411e-07
4003.33,-8.758074665824245e-07
4004.23,-8.66035394527683e-07
4005.13,-8.547867957167097e-07
4006.03,-8.446722645976019e-07
4006.93,-8.403523471674832e-07
4007.83,-8.453837664563541e-07
4008.73,-8.533244132857314e-07
4009.63,-8.710199364542033e-07
4010.53,-8.861452794457113e-07
4011.43,-8.908631468108677e-07
4012.33,-9.076309924960151e-07
4013.23,-9.095276745041423e-07
4014.13,-9.137006635505534e-07
4015.03,-9.207860717843698e-07
4015.93,-9.207974762279633e-07
4016.84,-9.235144883507997e-07
4017.74,-9.224244416008099e-07
4018.64,-9.300242603815683e-07
4019.54,-9.377206052549539e-07
4020.44,-9.405930628515654e-07
4021.34,-9.359922235877322e-07
4022.24,-9.42888927602693e-07
4023.14,-9.416889396440716e-07
4024.04,-9.390152570503705e-07
4024.94,-9.414440193203836e-07
4025.84,-9.433401008341027e-07
4026.74,-9.509604665717393e-07
4027.64,-9.508749182436012e-07
4028.54,-9.535255535344816e-07
4029.44,-9.3813550236357e-07
4030.34,-9.236478146211301e-07
4031.24,-9.010606943748702e-07
4032.14,-8.816898979990532e-07
4033.04,-8.674976620819965e-07
4033.94,-8.654482392421385e-07
4034.84,-8.784084010938617e-07
4035.74,-9.008438511959162e-07
4036.64,-9.278191967244785e-07
4037.54,-9.5795530869542e-07
4038.44,-9.755053489764782e-07
4039.34,-9.903597944036586e-07
4040.24,-9.942646689612739e-07
4041.14,-9.866913636230187e-07
4042.04,-9.72604710726954e-07
4042.94,-9.554452713425975e-07
4043.84,-9.305899581387854e-07
4044.74,-9.086344482645788e-07
4045.64,-8.894873245840349e-07
4046.54,-8.810445929477566e-07
4047.44,-8.849046566108323e-07
4048.34,-9.102708177346764e-07
4049.24,-9.325739605268082e-07
4050.14,-9.551988797668463e-07
4051.04,-9.790328804352188e-07
4051.94,-9.856949374543219e-07
4052.84,-9.772077230953178e-07
4053.74,-9.671054174084622e-07
4054.65,-9.595582869575409e-07
4055.55,-9.432266136768137e-07
4056.45,-9.337466052543784e-07
4057.35,-9.305409764006372e-07
4058.25,-9.324050734052672e-07
4059.15,-9.338766812875578e-07
4060.05,-9.361437331239106e-07
4060.95,-9.364095739337394e-07
4061.85,-9.297717610531453e-07
4062.75,-9.255668009279666e-07
4063.65,-9.152267628667179e-07
4064.55,-9.060776531266426e-07
4065.45,-9.098547986874513e-07
4066.35,-9.1086173721515e-07
4067.25,-9.263488682381108e-07
4068.15,-9.430551618352274e-07
4069.05,-9.539917580919194e-07
4069.95,-9.660756333524667e-07
4070.85,-9.653953172617907e-07
4071.75,-9.603222285306845e-07
4072.65,-9.604162747463158e-07
4073.55,-9.5493921884669e-07
4074.45,-9.497878791981128e-07
4075.35,-9.373120572266504e-07
4076.25,-9.245051308832171e-07
4077.15,-9.114086397346778e-07
4078.05,-9.078410169971535e-07
4078.95,-9.083331233138165e-07
4079.85,-9.167391585351092e-07
4080.75,-9.433531532088404e-07
4081.65,-9.620774413363304e-07
4082.55,-9.81428639968478e-07
4083.45,-9.9050259832209e-07
4084.35,-9.96468771074039e-07
4085.25,-9.989913279717347e-07
4086.15,-1.006516705283544e-06
4087.05,-1.0165941836945224e-06
4087.95,-1.0286260225530474e-06
4088.85,-1.0435099186934625e-06
4089.75,-1.0522763064622819e-06
4090.65,-1.0578630012113216e-06
4091.55,-1.051320614518426e-06
4092.45,-1.0434509288998636e-06
4093.36,-1.0302860394111758e-06
4094.26,-1.0159781607040208e-06
4095.16,-9.91555161589167e-07
4096.06,-9.668282411128011e-07
4096.96,-9.415986754511176e-07
4097.86,-9.109606419958577e-07
4098.76,-8.725598548548501e-07
4099.66,-8.389777246200608e-07
4100.56,-8.019768343693215e-07
4101.46,-7.749602891325253e-07
4102.36,-7.605108348080942e-07
4103.26,-7.631961678865543e-07
4104.16,-7.825929678349907e-07
4105.06,-8.159654564536118e-07
4105.96,-8.536913567905606e-07
4106.86,-8.961878437635017e-07
4107.76,-9.264821359831248e-07
4108.66,-9.515381654736712e-07
4109.56,-9.719395571754336e-07
4110.46,-9.816254946680703e-07
4111.36,-9.923206750863266e-07
4112.26,-1.0038044980804046e-06
4113.16,-1.0211798549086741e-06
4114.06,-1.0373830622457228e-06
4114.96,-1.0488959519566166e-06
4115.86,-1.0635713148364825e-06
4116.76,-1.068821222324624e-06
4117.66,-1.0658081656074758e-06
4118.56,-1.0648235041148054e-06
4119.46,-1.0608430612913877e-06
4120.36,-1.0541051204126632e-06
4121.26,-1.053029652789713e-06
4122.16,-1.0499934214686727e-06
4123.06,-1.0561744775277566e-06
4123.96,-1.0608871937162901e-06
4124.86,-1.066889459162953e-06
4125.76,-1.074071817582256e-06
4126.66,-1.0731884881801579e-06
4127.56,-1.0685875853947565e-06
4128.46,-1.0588088326210124e-06
4129.36,-1.0581055009530985e-06
4130.26,-1.049896802120242e-06
4131.17,-1.0420031858921207e-06
4132.06,-1.0268374598479595e-06
4132.97,-1.0272771299184938e-06
4133.87,-1.027748349346223e-06
4134.77,-1.0387339262975897e-06
4135.67,-1.0578622540252443e-06
4136.57,-1.076735995542528e-06
4137.47,-1.100143201159635e-06
4138.37,-1.1146466454779686e-06
4139.27,-1.1307005071453497e-06
4140.17,-1.1352653732600214e-06
4141.07,-1.1259139639277658e-06
4141.97,-1.1129810669703174e-06
4142.87,-1.086098763704672e-06
4143.77,-1.0682474338065945e-06
4144.67,-1.0615284147598778e-06
4145.57,-1.0631859546733979e-06
4146.47,-1.0752299151234543e-06
4147.37,-1.0918296860302058e-06
4148.27,-1.0976354136830026e-06
4149.17,-1.1063853453775016e-06
4150.07,-1.1068258011694039e-06
4150.97,-1.1066735403482098e-06
4151.87,-1.0974085829094231e-06
4152.77,-1.097098490888319e-06
4153.67,-1.0882704969425642e-06
4154.57,-1.0868733077983721e-06
4155.47,-1.0845887682169184e-06
4156.37,-1.0887440488842685e-06
4157.27,-1.0936018790191297e-06
4158.17,-1.1019179364101658e-06
4159.07,-1.1173968036178934e-06
4159.97,-1.1298177646487322e-06
4160.87,-1.1523861171989432e-06
4161.77,-1.1626188978599868e-06
4162.67,-1.1741773573140917e-06
4163.57,-1.1838340051361409e-06
4164.47,-1.184383501400753e-06
4165.37,-1.1869160421657196e-06
4166.27,-1.1814863703843835e-06
4167.17,-1.1718221989118318e-06
4168.07,-1.1598738155981337e-06
4168.98,-1.1507781565517325e-06
4169.88,-1.1410812505627803e-06
4170.78,-1.127434028387777e-06
4171.68,-1.1056971380260448e-06
4172.58,-1.094018977178377e-06
4173.48,-1.0744802074678632e-06
4174.38,-1.066085210521772e-06
4175.28,-1.063308908787353e-06
4176.18,-1.0713798235500975e-06
4177.08,-1.0832080714063948e-06
4177.98,-1.094695950026264e-06
4178.88,-1.103820361490592e-06
4179.78,-1.1131889723542391e-06
4180.68,-1.1234453788684629e-06
4181.58,-1.1315486456829172e-06
4182.48,-1.1378869401588553e-06
4183.38,-1.140244936988661e-06
4184.28,-1.1519497091224862e-06
4185.18,-1.1538064237281086e-06
4186.08,-1.1526273263764587e-06
4186.98,-1.1552598518812373e-06
4187.88,-1.1569985434089475e-06
4188.78,-1.156439553780099e-06
4189.68,-1.1644910136283902e-06
4190.58,-1.1733890563348342e-06
4191.48,-1.186174474066955e-06
4192.38,-1.2011781644537712e-06
4193.28,-1.2041129410822214e-06
4194.18,-1.205062810285211e-06
4195.08,-1.1978883121508855e-06
4195.98,-1.1901378104325136e-06
4196.88,-1.1672622804989117e-06
4197.78,-1.1498482961466238e-06
4198.68,-1.1328696434744169e-06
4199.58,-1.1268678653422654e-06
4200.48,-1.1204421632065177e-06
4201.38,-1.1139219335936685e-06
4202.28,-1.128825267375602e-06
4203.18,-1.1382259447949805e-06
4204.08,-1.15306855713956e-06
4204.98,-1.1707891232701155e-06
4205.88,-1.1877852082595697e-06
4206.79,-1.2067657276431457e-06
4207.69,-1.2281920410252655e-06
4208.59,-1.238866422833664e-06
4209.49,-1.2509837224708159e-06
4210.39,-1.2609640044928503e-06
4211.29,-1.260068872253399e-06
4212.19,-1.2600490223887917e-06
4213.09,-1.251222919399925e-06
4213.99,-1.248932282558327e-06
4214.89,-1.2387672483999506e-06
4215.79,-1.2336694495268515e-06
4216.69,-1.2290773325321308e-06
4217.59,-1.2349494283175418e-06
4218.49,-1.2529185569920048e-06
4219.39,-1.266228976886645e-06
4220.29,-1.2829477462417036e-06
4221.19,-1.291271871828331e-06
4222.09,-1.2836655299003281e-06
4222.99,-1.2597775204411913e-06
4223.89,-1.221306543481006e-06
4224.79,-1.180679365297191e-06
4225.69,-1.1315322754963005e-06
4226.59,-1.0935834408233381e-06
4227.49,-1.0850146330108389e-06
4228.39,-1.0965954704372798e-06
4229.29,-1.1266817454991357e-06
4230.19,-1.1676482203163436e-06
4231.09,-1.2130257223325674e-06
4231.99,-1.2491523687375517e-06
4232.89,-1.2619751269943537e-06
4233.79,-1.2630360638325754e-06
4234.69,-1.2643117827648005e-06
4235.59,-1.2492168106646801e-06
4236.49,-1.2429739619828325e-06
4237.39,-1.2391538900647558e-06
4238.29,-1.237443839542678e-06
4239.19,-1.2490930835739356e-06
4240.09,-1.2606364705346222e-06
4240.99,-1.2757674289762331e-06
4241.89,-1.2893433822164086e-06
4242.79,-1.3100088317786044e-06
4243.69,-1.3264497707640888e-06
4244.59,-1.3373756165135243e-06
4245.5,-1.3357005932157655e-06
4246.4,-1.3308474513841029e-06
4247.3,-1.321108919602536e-06
4248.2,-1.3011798857208582e-06
4249.1,-1.2794506557490887e-06
4250.0,-1.2709667318388393e-06
4250.9,-1.26798435540872e-06
4251.8,-1.2718399604889298e-06
4252.7,-1.2713980168223993e-06
4253.6,-1.2815535821763054e-06
4254.5,-1.29088161997304e-06
4255.4,-1.2933487799635972e-06
4256.3,-1.3012796245198124e-06
4257.2,-1.3052265274784447e-06
4258.1,-1.3047590924910701e-06
4259.0,-1.2996938080132705e-06
4259.9,-1.2881555588220537e-06
4260.8,-1.2871310659825881e-06
4261.7,-1.293382798569514e-06
4262.6,-1.3110020384595787e-06
4263.5,-1.335547857603452e-06
4264.4,-1.3657642080752698e-06
4265.3,-1.3837945617843426e-06
4266.2,-1.396611708635276e-06
4267.1,-1.4020102222936218e-06
4268.0,-1.3848437274649872e-06
4268.9,-1.3571268205274826e-06
4269.8,-1.3220235364343136e-06
4270.7,-1.290148280826949e-06
4271.6,-1.247754989316613e-06
4272.5,-1.2235986661390204e-06
4273.4,-1.2142463749523882e-06
4274.3,-1.2155675271513405e-06
4275.2,-1.2377799537296084e-06
4276.1,-1.2654702467738803e-06
4277.0,-1.2932604449483595e-06
