wave,flux
3700.85,-2.887756645568189e-07
3701.75,-2.847891980865895e-07
3702.65,-2.742525305874021e-07
3703.55,-2.5803900572245996e-07
3704.45,-2.4063806576016923e-07
3705.35,-2.2421181732520877e-07
3706.25,-2.1145935475647036e-07
3707.15,-2.040493845590443e-07
3708.05,-2.0388720015896412e-07
3708.96,-2.0861307345495383e-07
3709.86,-2.1785757993663887e-07
3710.76,-2.3281393734524533e-07
3711.66,-2.493884967145987e-07
3712.56,-2.671914347778288e-07
3713.46,-2.816721115815138e-07
3714.36,-2.936666212929454e-07
3715.26,-2.980445229746017e-07
3716.16,-2.9370173083083214e-07
3717.06,-2.809771257160644e-07
3717.96,-2.6326318527638844e-07
3718.86,-2.4048755567411994e-07
3719.76,-2.1664824215917385e-07
3720.66,-1.9784270847021354e-07
3721.56,-1.8699255801322562e-07
3722.46,-1.8588758634911795e-07
3723.36,-1.962991369310394e-07
3724.26,-2.108279821094173e-07
3725.16,-2.272354282931645e-07
3726.06,-2.4045549858650356e-07
3726.96,-2.472118212499178e-07
3727.86,-2.4914490491281175e-07
3728.76,-2.4820466939618416e-07
3729.66,-2.4489485854018887e-07
3730.56,-2.402222803122875e-07
3731.46,-2.303432809718496e-07
3732.36,-2.1495022607363726e-07
3733.26,-1.9759261831327747e-07
3734.16,-1.7924834703560144e-07
3735.06,-1.649744440104852e-07
3735.96,-1.583006995711515e-07
3736.86,-1.600386329863661e-07
3737.76,-1.6996572347061948e-07
3738.66,-1.8762030685612366e-07
3739.56,-2.0762805444752575e-07
3740.46,-2.2527880277236166e-07
3741.36,-2.3697017809748613e-07
3742.26,-2.391540331546492e-07
3743.16,-2.3351464088245444e-07
3744.06,-2.2191019181330344e-07
3744.96,-2.0675556497149034e-07
3745.86,-1.9331341595094383e-07
3746.76,-1.8057286029538634e-07
3747.67,-1.719180674445686e-07
3748.57,-1.664354071389666e-07
3749.47,-1.6652155533217494e-07
3750.37,-1.742495792224674e-07
3751.27,-1.899893449122653e-07
3752.17,-2.1122531389208892e-07
3753.07,-2.3379645839787438e-07
3753.97,-2.5502603800741736e-07
3754.87,-2.710181944792292e-07
3755.77,-2.7580495965424016e-07
3756.67,-2.725503259497901e-07
3757.57,-2.6091071259031824e-07
3758.47,-2.476044883935088e-07
3759.37,-2.3705888400056114e-07
3760.27,-2.3089069171634557e-07
3761.17,-2.3224133263987633e-07
3762.07,-2.3557088365761723e-07
3762.97,-2.40378321982643e-07
3763.87,-2.4229969613930685e-07
3764.77,-2.444377823294597e-07
3765.67,-2.4388980481636874e-07
3766.57,-2.4484559701659553e-07
3767.47,-2.4671259130647663e-07
3768.37,-2.498114104091121e-07
3769.27,-2.5525173427704383e-07
3770.17,-2.615125170799703e-07
3771.07,-2.6994983263731064e-07
3771.97,-2.8022964827450486e-07
3772.87,-2.870430023336111e-07
3773.77,-2.9868959767981944e-07
3774.67,-3.0441489763180784e-07
3775.57,-3.0904720567226687e-07
3776.47,-3.129801615118124e-07
3777.37,-3.148187072245369e-07
3778.27,-3.1893745739912146e-07
3779.17,-3.2466061692597394e-07
3780.07,-3.312522203955165e-07
3780.97,-3.380014489500551e-07
3781.87,-3.443085386650125e-07
3782.77,-3.4682361175547827e-07
3783.67,-3.460205879578033e-07
3784.57,-3.3876138005775116e-07
3785.47,-3.2823997334647707e-07
3786.38,-3.151391432736244e-07
3787.28,-2.98060042897205e-07
3788.18,-2.835462297779908e-07
3789.08,-2.71748022894304e-07
3789.98,-2.6665222847078875e-07
3790.88,-2.6460672326381043e-07
3791.78,-2.6498808316325493e-07
3792.68,-2.649874501177363e-07
3793.58,-2.61382499294607e-07
3794.48,-2.5620885071950155e-07
3795.38,-2.492109340619481e-07
3796.28,-2.39832080252312e-07
3797.18,-2.3436975390531906e-07
3798.08,-2.2960082529222244e-07
3798.98,-2.316522870542305e-07
3799.88,-2.38307008742241e-07
3800.78,-2.5043035029878637e-07
3801.68,-2.6838731825981756e-07
3802.58,-2.8796797293607676e-07
3803.48,-3.0304125770090436e-07
3804.38,-3.153392132623815e-07
3805.28,-3.195054322050052e-07
3806.18,-3.2111513601829956e-07
3807.08,-3.1995271559217297e-07
3807.98,-3.178412944088629e-07
3808.88,-3.196904183939003e-07
3809.78,-3.2388426140228497e-07
3810.68,-3.244388006479421e-07
3811.58,-3.2244018312605925e-07
3812.48,-3.140736261326262e-07
3813.38,-3.0119229179706066e-07
3814.28,-2.853599835487288e-07
3815.18,-2.688370567009338e-07
3816.08,-2.5878745253561903e-07
3816.98,-2.507119282637961e-07
3817.88,-2.468720224640586e-07
3818.78,-2.439521718124043e-07
3819.68,-2.394076304386631e-07
3820.58,-2.338396649582742e-07
3821.48,-2.30424325398184e-07
3822.38,-2.2656708836607736e-07
3823.28,-2.2221516068229992e-07
3824.18,-2.1796754269610135e-07
3825.09,-2.1076886596823797e-07
3825.99,-2.0285741131186224e-07
3826.89,-1.9622379901286144e-07
3827.79,-1.9185517629686784e-07
3828.69,-1.906127299739983e-07
3829.59,-1.9205752180409295e-07
3830.49,-1.929820030921586e-07
3831.39,-1.9063894854434108e-07
3832.29,-1.8757330980025377e-07
3833.19,-1.8284797835032475e-07
3834.09,-1.7979926939866326e-07
3834.99,-1.784912499038826e-07
3835.89,-1.7998130998784848e-07
3836.79,-1.816250219426395e-07
3837.69,-1.825719485919985e-07
3838.59,-1.848311442776915e-07
3839.49,-1.8768358206083745e-07
3840.39,-1.9446705194140093e-07
3841.29,-2.061552782815284e-07
3842.19,-2.2210729022293723e-07
3843.09,-2.41861610375794e-07
3843.99,-2.600699706205191e-07
3844.89,-2.739545412769001e-07
3845.79,-2.8539699415483434e-07
3846.69,-2.9203257936496097e-07
3847.59,-2.9665754486287913e-07
3848.49,-2.9616162590380823e-07
3849.39,-2.946910010175441e-07
3850.29,-2.917613023043388e-07
3851.19,-2.896248078243305e-07
3852.09,-2.9112663087464155e-07
3852.99,-2.909142503686428e-07
3853.89,-2.877202736878444e-07
3854.79,-2.834880990160303e-07
3855.69,-2.778964221897519e-07
3856.59,-2.6958649452966533e-07
3857.49,-2.5806010320043724e-07
3858.39,-2.4952987800368017e-07
3859.29,-2.43443984840374e-07
3860.19,-2.405165765563856e-07
3861.09,-2.4546867103968554e-07
3861.99,-2.577256383872499e-07
3862.9,-2.73618229565361e-07
3863.8,-2.8730055057124587e-07
3864.7,-2.972946872255212e-07
3865.6,-3.027272923741582e-07
3866.5,-3.0391711812250914e-07
3867.4,-3.001561045210082e-07
3868.3,-2.9437790774229483e-07
3869.2,-2.877182120940762e-07
3870.1,-2.7739521749179664e-07
3871.0,-2.705418277474647e-07
3871.9,-2.6552877479671657e-07
3872.8,-2.6361376156008746e-07
3873.7,-2.680504708592421e-07
3874.6,-2.7683681043458524e-07
3875.5,-2.855597196641823e-07
3876.4,-2.926580924738143e-07
3877.3,-2.9117001679450646e-07
3878.2,-2.8763089676943013e-07
3879.1,-2.8303555920935267e-07
3880.0,-2.783932988105973e-07
3880.9,-2.77341561163017e-07
3881.8,-2.77344768111875e-07
3882.7,-2.77790824581716e-07
3883.6,-2.78671518962387e-07
3884.5,-2.7799601479033047e-07
3885.4,-2.754546544900281e-07
3886.3,-2.697737789206155e-07
3887.2,-2.654164693528729e-07
3888.1,-2.631356931324298e-07
3889.0,-2.6771616346228816e-07
3889.9,-2.758335941824589e-07
3890.8,-2.9019460672435215e-07
3891.7,-3.087737761212123e-07
3892.6,-3.246897428475369e-07
3893.5,-3.377247190643033e-07
3894.4,-3.464653052059515e-07
3895.3,-3.522114191200049e-07
3896.2,-3.5525087419621884e-07
3897.1,-3.5577324558142166e-07
3898.0,-3.576929191571689e-07
3898.9,-3.588178364612403e-07
3899.8,-3.613781442678524e-07
3900.7,-3.6067408845792006e-07
3901.6,-3.608699550514968e-07
3902.51,-3.579600004072662e-07
3903.41,-3.5319608391149146e-07
3904.31,-3.4952681854291856e-07
3905.21,-3.4557985994661286e-07
3906.11,-3.4575684632128594e-07
3907.01,-3.509137502796354e-07
3907.91,-3.613379060802088e-07
3908.81,-3.74990736593007e-07
3909.71,-3.9120840178791846e-07
3910.61,-4.048949075910801e-07
3911.51,-4.1685350954977785e-07
3912.41,-4.2270619616057153e-07
3913.31,-4.250775889139487e-07
3914.21,-4.2612931141144107e-07
3915.11,-4.222174028484775e-07
3916.01,-4.143796630692137e-07
3916.91,-4.0870462847568873e-07
3917.81,-3.983733683600893e-07
3918.71,-3.849070331789283e-07
3919.61,-3.715106440306471e-07
3920.51,-3.6044541835263033e-07
3921.41,-3.466094678126103e-07
3922.31,-3.391852845706625e-07
3923.21,-3.3488177152605263e-07
3924.11,-3.289428888464307e-07
3925.01,-3.234132654183555e-07
3925.91,-3.124805618356966e-07
3926.81,-2.962946220334365e-07
3927.71,-2.754314577533755e-07
3928.61,-2.4722525629317236e-07
3929.51,-2.201263073543747e-07
3930.41,-1.914902466988154e-07
3931.31,-1.6751498693019364e-07
3932.21,-1.4569134772927683e-07
3933.11,-1.2997411784888316e-07
3934.01,-1.2157822454227944e-07
3934.91,-1.208583777389335e-07
3935.81,-1.2898206302042953e-07
3936.71,-1.450570869768026e-07
3937.61,-1.666939314657044e-07
3938.51,-1.9352664873877444e-07
3939.42,-2.2123122344438908e-07
3940.32,-2.46027543503405e-07
3941.22,-2.6645671106778164e-07
3942.12,-2.8350066502467465e-07
3943.02,-2.955162058497208e-07
3943.92,-3.0625621669566697e-07
3944.82,-3.193360148923863e-07
3945.72,-3.3350631531895094e-07
3946.62,-3.5227557767175655e-07
3947.52,-3.6973665622783314e-07
3948.42,-3.8543673327846965e-07
3949.32,-3.996078904115728e-07
3950.22,-4.138128184658506e-07
3951.12,-4.2280577299983285e-07
3952.02,-4.2999779631428206e-07
3952.92,-4.3387990114547016e-07
3953.82,-4.3644572157233265e-07
3954.72,-4.377621882731831e-07
3955.62,-4.364963872473174e-07
3956.52,-4.347956698295678e-07
3957.42,-4.2949143992998664e-07
3958.32,-4.2078681779201095e-07
3959.22,-4.106897346279239e-07
3960.12,-3.935243678501063e-07
3961.02,-3.721581531367189e-07
3961.92,-3.454607033401974e-07
3962.82,-3.1744021741529476e-07
3963.72,-2.892062377250383e-07
3964.62,-2.6084166638235576e-07
3965.52,-2.346819229599372e-07
3966.42,-2.076351719237846e-07
3967.32,-1.837210740505646e-07
3968.22,-1.6488645692772025e-07
3969.12,-1.5416975174169514e-07
3970.02,-1.5258158410419118e-07
3970.92,-1.6291123247062976e-07
3971.82,-1.8290512340052364e-07
3972.72,-2.102435422057231e-07
3973.62,-2.4171265101924585e-07
3974.52,-2.7629256953958555e-07
3975.42,-3.116642219767372e-07
3976.32,-3.4386550696770923e-07
3977.22,-3.7664004343737564e-07
3978.13,-4.0719020374530877e-07
3979.03,-4.3377047854665456e-07
3979.93,-4.5651975920737223e-07
3980.83,-4.713011421950452e-07
3981.73,-4.83961098708678e-07
3982.63,-4.900983273222154e-07
3983.53,-4.960262682576182e-07
3984.43,-4.995047056538308e-07
3985.33,-5.06242166908838e-07
3986.23,-5.130702961168373e-07
3987.13,-5.198395594123372e-07
3988.03,-5.291001399432461e-07
3988.93,-5.377818715975848e-07
3989.83,-5.447546680694759e-07
3990.73,-5.496358029378683e-07
3991.63,-5.532090725676169e-07
3992.53,-5.61507381461129e-07
3993.43,-5.634779639447569e-07
3994.33,-5.649987585013188e-07
3995.23,-5.603869760358389e-07
3996.13,-5.54928991897408e-07
3997.03,-5.535953825503912e-07
3997.93,-5.511174484518908e-07
3998.83,-5.57500735994105e-07
3999.73,-5.653470341742668e-07
4000.63,-5.772561028135204e-07
4001.53,-5.907980511610266e-07
4002.43,-5.945431087046521e-07
4003.33,-5.988710367172162e-07
4004.23,-5.869142071963721e-07
4005.13,-5.775376903067215e-07
4006.03,-5.672150537243347e-07
4006.93,-5.617920456115973e-07
4007.83,-5.634443424676796e-07
4008.73,-5.718508217533063e-07
4009.63,-5.850665528029586e-07
4010.53,-6.006729576140787e-07
4011.43,-6.069471673231238e-07
4012.33,-6.164148602517961e-07
4013.23,-6.245466136903654e-07
4014.13,-6.273347759773222e-07
4015.03,-6.3246357113716e-07
4015.93,-6.331631569148496e-07
4016.84,-6.371487873694345e-07
4017.74,-6.371513760202479e-07
4018.64,-6.401248891834347e-07
4019.54,-6.413432340908276e-07
4020.44,-6.439357154840658e-07
4021.34,-6.468085249881866e-07
4022.24,-6.46190461700076e-07
4023.14,-6.43170204177939e-07
4024.04,-6.404174582079981e-07
4024.94,-6.430603538234938e-07
4025.84,-6.466961907787439e-07
4026.74,-6.494308682758616e-07
4027.64,-6.538736839932144e-07
4028.54,-6.51707735071468e-07
4029.44,-6.426307589461852e-07
4030.34,-6.21968502489619e-07
4031.24,-6.044767326414696e-07
4032.14,-5.82519830718882e-07
4033.04,-5.686433936865272e-07
4033.94,-5.628375227076445e-07
4034.84,-5.724482042688455e-07
4035.74,-5.903676804909206e-07
4036.64,-6.152641128836719e-07
4037.54,-6.399806432025104e-07
4038.44,-6.604988800526892e-07
4039.34,-6.755561422901383e-07
4040.24,-6.779629823112626e-07
4041.14,-6.787216020683579e-07
4042.04,-6.638962825191854e-07
4042.94,-6.453546763970081e-07
4043.84,-6.232044540315225e-07
4044.74,-5.959733380652679e-07
4045.64,-5.736242366257938e-07
4046.54,-5.617818515950493e-07
4047.44,-5.665868708900881e-07
4048.34,-5.848431084901606e-07
4049.24,-6.131752822653163e-07
4050.14,-6.385557594785301e-07
4051.04,-6.577031195075445e-07
4051.94,-6.688749990080439e-07
4052.84,-6.711400379082769e-07
4053.74,-6.652035693498471e-07
4054.65,-6.56343717319636e-07
4055.55,-6.418575739774399e-07
4056.45,-6.329769892760968e-07
4057.35,-6.23702397084447e-07
4058.25,-6.227853770816806e-07
4059.15,-6.213692342688052e-07
4060.05,-6.204454842196657e-07
4060.95,-6.181510748397265e-07
4061.85,-6.128211405222837e-07
4062.75,-6.063138931085218e-07
4063.65,-5.953387763495054e-07
4064.55,-5.87084391979385e-07
4065.45,-5.867318675541355e-07
4066.35,-5.919726242315966e-07
4067.25,-6.076769633991198e-07
4068.15,-6.218710291244469e-07
4069.05,-6.362254838742655e-07
4069.95,-6.447823249717412e-07
4070.85,-6.457972154996368e-07
4071.75,-6.43616786768911e-07
4072.65,-6.411773936575821e-07
4073.55,-6.4012276697666e-07
4074.45,-6.381779951274098e-07
4075.35,-6.308583762191509e-07
4076.25,-6.241546090796649e-07
4077.15,-6.210782139074623e-07
4078.05,-6.163383450725599e-07
4078.95,-6.224630095893269e-07
4079.85,-6.365150638642534e-07
4080.75,-6.567778429027427e-07
4081.65,-6.772185078582453e-07
4082.55,-6.94037164902141e-07
4083.45,-7.063222596557996e-07
4084.35,-7.108888114943303e-07
4085.25,-7.125083894086117e-07
4086.15,-7.20482782306783e-07
4087.05,-7.305388543664853e-07
4087.95,-7.460402991947256e-07
4088.85,-7.613212490711924e-07
4089.75,-7.707304890600725e-07
4090.65,-7.749800217469758e-07
4091.55,-7.704181668195706e-07
4092.45,-7.666231866401431e-07
4093.36,-7.570194546599699e-07
4094.26,-7.430394677605252e-07
4095.16,-7.248513312768207e-07
4096.06,-7.097930194089133e-07
4096.96,-6.904698032236525e-07
4097.86,-6.707044779152097e-07
4098.76,-6.476563833536559e-07
4099.66,-6.308469736498093e-07
4100.56,-6.105789716618078e-07
4101.46,-5.961341085061775e-07
4102.36,-5.900366617025392e-07
4103.26,-5.91834740050526e-07
4104.16,-6.079835150944847e-07
4105.06,-6.305615784813299e-07
4105.96,-6.568136255020062e-07
4106.86,-6.822033835046056e-07
4107.76,-7.002697226885946e-07
4108.66,-7.114277025372625e-07
4109.56,-7.201297432178537e-07
4110.46,-7.213938234724608e-07
4111.36,-7.216377131278917e-07
4112.26,-7.282018776052443e-07
4113.16,-7.341577608538176e-07
4114.06,-7.425820643707488e-07
4114.96,-7.538862444791321e-07
4115.86,-7.605654561931047e-07
4116.76,-7.641250786373384e-07
4117.66,-7.624453140548595e-07
4118.56,-7.56539114669595e-07
4119.46,-7.528201933553663e-07
4120.36,-7.459844963635123e-07
4121.26,-7.429620873944256e-07
4122.16,-7.426842572263903e-07
4123.06,-7.472402526813146e-07
4123.96,-7.537977807851567e-07
4124.86,-7.529407813425926e-07
4125.76,-7.587944311706411e-07
4126.66,-7.595293871694299e-07
4127.56,-7.526703101409839e-07
4128.46,-7.446544471461595e-07
4129.36,-7.38121876246589e-07
4130.26,-7.252261492682001e-07
4131.17,-7.158264796641914e-07
4132.06,-7.017134676218324e-07
4132.97,-6.9212033825786e-07
4133.87,-6.980928727816248e-07
4134.77,-7.034364877011117e-07
4135.67,-7.173030823524977e-07
4136.57,-7.402778668598096e-07
4137.47,-7.577759186839853e-07
4138.37,-7.725007118923331e-07
4139.27,-7.820835522809235e-07
4140.17,-7.870602898264081e-07
4141.07,-7.745732729602124e-07
4141.97,-7.573657306935584e-07
4142.87,-7.339325704084334e-07
4143.77,-7.153244964989915e-07
4144.67,-7.063122804405247e-07
4145.57,-7.072592392840977e-07
4146.47,-7.139996576636096e-07
4147.37,-7.288473766688328e-07
4148.27,-7.362394680630411e-07
4149.17,-7.463221105434084e-07
4150.07,-7.49105609284669e-07
4150.97,-7.454551258087343e-07
4151.87,-7.44712568251276e-07
4152.77,-7.420820088743958e-07
4153.67,-7.343473972456699e-07
4154.57,-7.332068792752384e-07
4155.47,-7.298389529462996e-07
4156.37,-7.330458408191079e-07
4157.27,-7.374931624120372e-07
4158.17,-7.511641435085507e-07
4159.07,-7.656299702699006e-07
4159.97,-7.81369767142155e-07
4160.87,-7.979593090472592e-07
4161.77,-8.079552073100007e-07
4162.67,-8.189315778452953e-07
4163.57,-8.241443222804122e-07
4164.47,-8.261109080008077e-07
4165.37,-8.231395431101264e-07
4166.27,-8.124248370962749e-07
4167.17,-8.040386022768525e-07
4168.07,-7.955816165246779e-07
4168.98,-7.866308137326666e-07
4169.88,-7.790450006337857e-07
4170.78,-7.698430922200464e-07
4171.68,-7.581958726690212e-07
4172.58,-7.419125736618523e-07
4173.48,-7.310711640418195e-07
4174.38,-7.271506843347893e-07
4175.28,-7.203480821593641e-07
4176.18,-7.260005912884037e-07
4177.08,-7.3527696306319e-07
4177.98,-7.424268260119667e-07
4178.88,-7.514528138811768e-07
4179.78,-7.588358631119214e-07
4180.68,-7.675119428890928e-07
4181.58,-7.698751613175938e-07
4182.48,-7.832073674466444e-07
4183.38,-7.834287866152122e-07
4184.28,-7.882832150344813e-07
4185.18,-7.907306772903389e-07
4186.08,-7.928868838831634e-07
4186.98,-7.89950822324663e-07
4187.88,-7.871052224310047e-07
4188.78,-7.903533820490107e-07
4189.68,-7.905786967785175e-07
4190.58,-8.013979873112256e-07
4191.48,-8.081602834749886e-07
4192.38,-8.228679522062566e-07
4193.28,-8.285248862456335e-07
4194.18,-8.223461170026668e-07
4195.08,-8.222577489966098e-07
4195.98,-8.057768207771814e-07
4196.88,-7.884491041062544e-07
4197.78,-7.729349396214115e-07
4198.68,-7.569769986339998e-07
4199.58,-7.45864152605389e-07
4200.48,-7.441054462985261e-07
4201.38,-7.464835420944123e-07
4202.28,-7.507383328262029e-07
4203.18,-7.652339515167185e-07
4204.08,-7.796139930538138e-07
4204.98,-8.009870017593266e-07
4205.88,-8.198213038224152e-07
4206.79,-8.446721045786483e-07
4207.69,-8.582574353232921e-07
4208.59,-8.692226141495894e-07
4209.49,-8.77761823521031e-07
4210.39,-8.846843910609611e-07
4211.29,-8.819388736042935e-07
4212.19,-8.796468100923644e-07
4213.09,-8.746246694743547e-07
4213.99,-8.684565425007198e-07
4214.89,-8.544417292551291e-07
4215.79,-8.515298377434698e-07
4216.69,-8.539801565757974e-07
4217.59,-8.594866378478027e-07
4218.49,-8.7841684022632e-07
4219.39,-8.921069085800301e-07
4220.29,-9.046893448877793e-07
4221.19,-9.100260444204954e-07
4222.09,-9.024153625814725e-07
4222.99,-8.717482324245798e-07
4223.89,-8.329113860234522e-07
4224.79,-7.858207445207357e-07
4225.69,-7.404373612635768e-07
4226.59,-7.038929575366735e-07
4227.49,-6.902283184010088e-07
4228.39,-6.987978175515423e-07
4229.29,-7.278477965604609e-07
4230.19,-7.704016545954193e-07
4231.09,-8.131184051886596e-07
4231.99,-8.46230456688662e-07
4232.89,-8.662634770836911e-07
4233.79,-8.777716859972222e-07
4234.69,-8.737775673697611e-07
4235.59,-8.644110269315879e-07
4236.49,-8.580481253348558e-07
4237.39,-8.534767264490735e-07
4238.29,-8.550733069895657e-07
4239.19,-8.642493486255731e-07
4240.09,-8.759592285637109e-07
4240.99,-8.958833526039057e-07
4241.89,-9.15537085307725e-07
4242.79,-9.319693332522663e-07
4243.69,-9.550492043126993e-07
4244.59,-9.600657468973581e-07
4245.5,-9.671543896386815e-07
4246.4,-9.635705034980285e-07
4247.3,-9.502038925397328e-07
4248.2,-9.264213959514967e-07
4249.1,-9.030623155689006e-07
4250.0,-8.814834635922947e-07
4250.9,-8.700499906633882e-07
4251.8,-8.642370572427027e-07
4252.7,-8.654816797203241e-07
4253.6,-8.680905566064096e-07
4254.5,-8.739240669613921e-07
4255.4,-8.800448701076376e-07
4256.3,-8.89517416754666e-07
4257.2,-8.972608867958455e-07
4258.1,-8.990452268506694e-07
4259.0,-8.907279584458557e-07
4259.9,-8.857419901010752e-07
4260.8,-8.833296325048231e-07
4261.7,-8.895660531059023e-07
4262.6,-9.07963612602462e-07
4263.5,-9.348112360139486e-07
4264.4,-9.654371462191098e-07
4265.3,-9.884381229365605e-07
4266.2,-1.0027848483756064e-06
4267.1,-1.0021631202257446e-06
4268.0,-9.875709000259412e-07
4268.9,-9.58339925478915e-07
4269.8,-9.231719583771587e-07
4270.7,-8.775182874119263e-07
4271.6,-8.417003090517858e-07
4272.5,-8.135726033165975e-07
4273.4,-7.956898644550659e-07
4274.3,-7.979777157221892e-07
4275.2,-8.18041793145241e-07
4276.1,-8.475057469607922e-07
4277.0,-8.829671952172761e-07
4277.9,-9.171097927895338e-07
4278.8,-9.402038544963395e-07
4279.7,-9.56621032299265e-07
