wave,flux
3700.85,-5.453776506982243e-07
3701.75,-5.362279600538953e-07
3702.65,-5.156995615405786e-07
3703.55,-4.875949071551741e-07
3704.45,-4.565231400237507e-07
3705.35,-4.2623212355590105e-07
3706.25,-4.046601288778295e-07
3707.15,-3.926831655452508e-07
3708.05,-3.905570657547171e-07
3708.96,-4.0148313990576025e-07
3709.86,-4.17172514388425e-07
3710.76,-4.4229411631657436e-07
3711.66,-4.723581442625639e-07
3712.56,-5.024275743148989e-07
3713.46,-5.305595611315636e-07
3714.36,-5.511050764795251e-07
3715.26,-5.590808302625041e-07
3716.16,-5.505470509556511e-07
3717.06,-5.345479090475244e-07
3717.96,-5.006615172702902e-07
3718.86,-4.604745268767883e-07
3719.76,-4.144894797708832e-07
3720.66,-3.8169999748276624e-07
3721.56,-3.589834518090739e-07
3722.46,-3.5783460551712626e-07
3723.36,-3.7597145925874193e-07
3724.26,-4.0451632869411496e-07
3725.16,-4.3440028978179586e-07
3726.06,-4.610159371962189e-07
3726.96,-4.7303849782943034e-07
3727.86,-4.778197013919341e-07
3728.76,-4.77446111030225e-07
3729.66,-4.719040327970629e-07
3730.56,-4.6033914152221515e-07
3731.46,-4.435017727359571e-07
3732.36,-4.1544576075512596e-07
3733.26,-3.818962388380848e-07
3734.16,-3.4744881497376495e-07
3735.06,-3.219588585302005e-07
3735.96,-3.0656984129667554e-07
3736.86,-3.0969691093614737e-07
3737.76,-3.2813783498162813e-07
3738.66,-3.6004439530432877e-07
3739.56,-3.981059607757935e-07
3740.46,-4.306390259343534e-07
3741.36,-4.536839166477797e-07
3742.26,-4.559821716589105e-07
3743.16,-4.479247352288278e-07
3744.06,-4.256642659756001e-07
3744.96,-4.0202806090745484e-07
3745.86,-3.743600046136576e-07
3746.76,-3.503745673657461e-07
3747.67,-3.3334107142611174e-07
3748.57,-3.228572084973732e-07
3749.47,-3.213440653035504e-07
3750.37,-3.363763220781863e-07
3751.27,-3.637029912321282e-07
3752.17,-4.036084377853873e-07
3753.07,-4.4662286418736726e-07
3753.97,-4.845084055958014e-07
3754.87,-5.145696128288576e-07
3755.77,-5.239525111917888e-07
3756.67,-5.160848737027898e-07
3757.57,-4.974035290010333e-07
3758.47,-4.71605511685192e-07
3759.37,-4.513688436846727e-07
3760.27,-4.4189651666710136e-07
3761.17,-4.431676787466018e-07
3762.07,-4.514497735033827e-07
3762.97,-4.6038209342900283e-07
3763.87,-4.66989580525775e-07
3764.77,-4.6932770363117244e-07
3765.67,-4.709158702026166e-07
3766.57,-4.7335540345892557e-07
3767.47,-4.749771805218509e-07
3768.37,-4.778465003661315e-07
3769.27,-4.863835144727951e-07
3770.17,-4.951080743714332e-07
3771.07,-5.120174565454939e-07
3771.97,-5.277017645167169e-07
3772.87,-5.439943708574078e-07
3773.77,-5.572984471155255e-07
3774.67,-5.725162688491466e-07
3775.57,-5.798571140249299e-07
3776.47,-5.879950954236854e-07
3777.37,-5.953061248852276e-07
3778.27,-6.029666242763668e-07
3779.17,-6.14291941789059e-07
3780.07,-6.241190221178826e-07
3780.97,-6.37058556933784e-07
3781.87,-6.441627924715088e-07
3782.77,-6.486859595449795e-07
3783.67,-6.4937968338544e-07
3784.57,-6.366322223359252e-07
3785.47,-6.184346674201842e-07
3786.38,-5.9370327546219e-07
3787.28,-5.6503041457567e-07
3788.18,-5.414468703219365e-07
3789.08,-5.228132051466744e-07
3789.98,-5.123340424088036e-07
3790.88,-5.0991768789114e-07
3791.78,-5.091805009275893e-07
3792.68,-5.09159077057053e-07
3793.58,-5.012216491568188e-07
3794.48,-4.923969520144073e-07
3795.38,-4.77864177298352e-07
3796.28,-4.6205930478246846e-07
3797.18,-4.4851918320027527e-07
3798.08,-4.410795964577536e-07
3798.98,-4.4345259506085625e-07
3799.88,-4.56696898926471e-07
3800.78,-4.805892625227341e-07
3801.68,-5.138140374439135e-07
3802.58,-5.487083181759044e-07
3803.48,-5.797974204367971e-07
3804.38,-5.992136038899426e-07
3805.28,-6.117454655426332e-07
3806.18,-6.121805441203832e-07
3807.08,-6.099012394914174e-07
3807.98,-6.084268295976284e-07
3808.88,-6.079330891339885e-07
3809.78,-6.129981481153224e-07
3810.68,-6.111735637938324e-07
3811.58,-6.104477182501114e-07
3812.48,-5.947951285501116e-07
3813.38,-5.738709294936159e-07
3814.28,-5.418779154595589e-07
3815.18,-5.15125893665357e-07
3816.08,-4.971552767561813e-07
3816.98,-4.846938717700392e-07
3817.88,-4.77032600187765e-07
3818.78,-4.7137927757977997e-07
3819.68,-4.6465669680560246e-07
3820.58,-4.5574957476983074e-07
3821.48,-4.4635141121164193e-07
3822.38,-4.37663280692972e-07
3823.28,-4.3306272271247654e-07
3824.18,-4.2526295514165346e-07
3825.09,-4.1020727256321933e-07
3825.99,-3.9624416789421907e-07
3826.89,-3.8277993694218135e-07
3827.79,-3.7463990259588544e-07
3828.69,-3.7343813291990577e-07
3829.59,-3.738999812137117e-07
3830.49,-3.72677148047499e-07
3831.39,-3.693270823359065e-07
3832.29,-3.635063447309999e-07
3833.19,-3.5347686847683384e-07
3834.09,-3.448711289487064e-07
3834.99,-3.420827256915471e-07
3835.89,-3.4393244730015546e-07
3836.79,-3.4511880734693773e-07
3837.69,-3.4791527877305783e-07
3838.59,-3.5176584418970054e-07
3839.49,-3.586782876229813e-07
3840.39,-3.7187410394361775e-07
3841.29,-3.959075685575071e-07
3842.19,-4.301978518237164e-07
3843.09,-4.6474772499212665e-07
3843.99,-4.993060746749245e-07
3844.89,-5.292051821196603e-07
3845.79,-5.502287723062558e-07
3846.69,-5.650392974783618e-07
3847.59,-5.685062424717514e-07
3848.49,-5.702329142487859e-07
3849.39,-5.685089580843522e-07
3850.29,-5.626191796076853e-07
3851.19,-5.587108131863273e-07
3852.09,-5.582094541821333e-07
3852.99,-5.613724046641919e-07
3853.89,-5.57959705527614e-07
3854.79,-5.479109893120411e-07
3855.69,-5.369520245113441e-07
3856.59,-5.183720518542667e-07
3857.49,-4.990652051603522e-07
3858.39,-4.805560953243316e-07
3859.29,-4.706875720689979e-07
3860.19,-4.663514792674136e-07
3861.09,-4.7585696939155156e-07
3861.99,-4.972214240385244e-07
3862.9,-5.229432153221915e-07
3863.8,-5.510181064421443e-07
3864.7,-5.684629345834637e-07
3865.6,-5.791021031780947e-07
3866.5,-5.777844503456834e-07
3867.4,-5.767217973992718e-07
3868.3,-5.704596631931813e-07
3869.2,-5.57335931198036e-07
3870.1,-5.419291939474899e-07
3871.0,-5.235063385816078e-07
3871.9,-5.13366994624935e-07
3872.8,-5.092073066084324e-07
3873.7,-5.113957653746502e-07
3874.6,-5.246609119957105e-07
3875.5,-5.381851192443548e-07
3876.4,-5.47565211269112e-07
3877.3,-5.460508778092871e-07
3878.2,-5.409530018534061e-07
3879.1,-5.313301205295714e-07
3880.0,-5.266376810967649e-07
3880.9,-5.227949814405716e-07
3881.8,-5.252725138139549e-07
3882.7,-5.28028519557905e-07
3883.6,-5.268771431368277e-07
3884.5,-5.251487648611082e-07
3885.4,-5.178724171117797e-07
3886.3,-5.058149246104052e-07
3887.2,-4.956888242128457e-07
3888.1,-4.897120505503007e-07
3889.0,-4.904180743460627e-07
3889.9,-5.054360247120285e-07
3890.8,-5.299153438474396e-07
3891.7,-5.592455568649763e-07
3892.6,-5.853297114386251e-07
3893.5,-6.08436128721915e-07
3894.4,-6.239388566964585e-07
3895.3,-6.31223387240795e-07
3896.2,-6.366691419123268e-07
3897.1,-6.40290019114043e-07
3898.0,-6.41701088874494e-07
3898.9,-6.47613846822085e-07
3899.8,-6.500482997202853e-07
3900.7,-6.496297481361863e-07
3901.6,-6.495277393076685e-07
3902.51,-6.452336541860105e-07
3903.41,-6.390146241024552e-07
3904.31,-6.297185834845756e-07
3905.21,-6.259222537992822e-07
3906.11,-6.228271653838048e-07
3907.01,-6.341355232917628e-07
3907.91,-6.491227535307641e-07
3908.81,-6.775681635286154e-07
3909.71,-7.008752759957165e-07
3910.61,-7.237759110901574e-07
3911.51,-7.38501283374467e-07
3912.41,-7.518397107237624e-07
3913.31,-7.549763783141224e-07
3914.21,-7.548996879991112e-07
3915.11,-7.474126595588449e-07
3916.01,-7.376541195869749e-07
3916.91,-7.233585142476779e-07
3917.81,-7.03673372234155e-07
3918.71,-6.844687895218342e-07
3919.61,-6.62833294335884e-07
3920.51,-6.42505031082612e-07
3921.41,-6.239610636137729e-07
3922.31,-6.068493741792335e-07
3923.21,-5.991521820850848e-07
3924.11,-5.905559690835391e-07
3925.01,-5.793268851399475e-07
3925.91,-5.626431956011721e-07
3926.81,-5.327037734056396e-07
3927.71,-4.905162109293953e-07
3928.61,-4.451666960472306e-07
3929.51,-3.9531257275779514e-07
3930.41,-3.44056906528559e-07
3931.31,-2.9835979856890496e-07
3932.21,-2.589449626987662e-07
3933.11,-2.2923628459943841e-07
3934.01,-2.1326154557112383e-07
3934.91,-2.123477413093046e-07
3935.81,-2.2646434786269625e-07
3936.71,-2.55106357356199e-07
3937.61,-2.9577551958975327e-07
3938.51,-3.4281613671545533e-07
3939.42,-3.921541773485449e-07
3940.32,-4.386904073586598e-07
3941.22,-4.765831393616524e-07
3942.12,-5.055631293039801e-07
3943.02,-5.311619203791687e-07
3943.92,-5.512396554344745e-07
3944.82,-5.755326649420464e-07
3945.72,-5.992852778689848e-07
3946.62,-6.287185703672348e-07
3947.52,-6.552950816762013e-07
3948.42,-6.826939677497764e-07
3949.32,-7.063526026558962e-07
3950.22,-7.265811457290814e-07
3951.12,-7.404949281567363e-07
3952.02,-7.539656132490313e-07
3952.92,-7.597574282061534e-07
3953.82,-7.634809994526724e-07
3954.72,-7.674794243807341e-07
3955.62,-7.636926726913329e-07
3956.52,-7.584191681865499e-07
3957.42,-7.487609414348303e-07
3958.32,-7.388147782487137e-07
3959.22,-7.162413676622319e-07
3960.12,-6.939628523972011e-07
3961.02,-6.526745222677528e-07
3961.92,-6.080431364055783e-07
3962.82,-5.611219361320743e-07
3963.72,-5.136590320596935e-07
3964.62,-4.637138865829849e-07
3965.52,-4.1608446674252116e-07
3966.42,-3.6689867225772103e-07
3967.32,-3.2399163098905487e-07
3968.22,-2.88667245455907e-07
3969.12,-2.675065993546368e-07
3970.02,-2.668084916949852e-07
3970.92,-2.8544279165797965e-07
3971.82,-3.1980227850935055e-07
3972.72,-3.690899761843205e-07
3973.62,-4.261823216077549e-07
3974.52,-4.855799385125814e-07
3975.42,-5.46521247822701e-07
3976.32,-6.038907593737238e-07
3977.22,-6.585576006071629e-07
3978.13,-7.092356825684347e-07
3979.03,-7.527061015445097e-07
3979.93,-7.906086598515154e-07
3980.83,-8.194111537969966e-07
3981.73,-8.392259948118842e-07
3982.63,-8.495443337534733e-07
3983.53,-8.560784615096186e-07
3984.43,-8.659462834066813e-07
3985.33,-8.741694179161935e-07
3986.23,-8.855276110383021e-07
3987.13,-8.984333664810357e-07
3988.03,-9.103901298500875e-07
3988.93,-9.20421730740571e-07
3989.83,-9.382666174833795e-07
3990.73,-9.482722464271088e-07
3991.63,-9.537635576464605e-07
3992.53,-9.643595600645592e-07
3993.43,-9.67988720787338e-07
3994.33,-9.640020734879003e-07
3995.23,-9.535680310852752e-07
3996.13,-9.486482760002724e-07
3997.03,-9.404228316227782e-07
3997.93,-9.394107598905276e-07
3998.83,-9.440165366818166e-07
3999.73,-9.572094779609363e-07
4000.63,-9.780283595368845e-07
4001.53,-9.940948872290245e-07
4002.43,-1.0031389955221923e-06
4003.33,-1.0125523477360838e-06
4004.23,-9.952762105758493e-07
4005.13,-9.762696288351516e-07
4006.03,-9.639511796515772e-07
4006.93,-9.533801636788052e-07
4007.83,-9.573268437889618e-07
4008.73,-9.700824433774976e-07
4009.63,-9.921691973785314e-07
4010.53,-1.011452117740687e-06
4011.43,-1.02998762527491e-06
4012.33,-1.042429601970106e-06
4013.23,-1.0464072249405003e-06
4014.13,-1.0567450808616513e-06
4015.03,-1.060742243690241e-06
4015.93,-1.0646031620100155e-06
4016.84,-1.0631841465201603e-06
4017.74,-1.0631836933921664e-06
4018.64,-1.0638280230481805e-06
4019.54,-1.0707188045626128e-06
4020.44,-1.0733102108659679e-06
4021.34,-1.075186475539285e-06
4022.24,-1.078577455127219e-06
4023.14,-1.0759927451872608e-06
4024.04,-1.0768647526521013e-06
4024.94,-1.0785318594521563e-06
4025.84,-1.0839593376846285e-06
4026.74,-1.0903366998417623e-06
4027.64,-1.1009972792725935e-06
4028.54,-1.0933413528730867e-06
4029.44,-1.0776179624337762e-06
4030.34,-1.0547481766802052e-06
4031.24,-1.0219499167168325e-06
4032.14,-9.940357452192095e-07
4033.04,-9.729128504606464e-07
4033.94,-9.643585951833357e-07
4034.84,-9.786224669549886e-07
4035.74,-1.0074445288602418e-06
4036.64,-1.0415101430217289e-06
4037.54,-1.076590708776553e-06
4038.44,-1.1134945930497856e-06
4039.34,-1.1347078380751148e-06
4040.24,-1.1379112424985603e-06
4041.14,-1.1322336081784314e-06
4042.04,-1.1130920274132159e-06
4042.94,-1.0818462192940788e-06
4043.84,-1.0482571939314754e-06
4044.74,-1.0025136330081255e-06
4045.64,-9.74760957510304e-07
4046.54,-9.605450609311504e-07
4047.44,-9.661885949423977e-07
4048.34,-9.944861710032756e-07
4049.24,-1.029577217694662e-06
4050.14,-1.0701465057425552e-06
4051.04,-1.1044842198038853e-06
4051.94,-1.1153391597105791e-06
4052.84,-1.1236116236062529e-06
4053.74,-1.1147817420731245e-06
4054.65,-1.102742683454859e-06
4055.55,-1.0856722504714274e-06
4056.45,-1.0699120045292358e-06
4057.35,-1.0635341188344316e-06
4058.25,-1.0547504187132316e-06
4059.15,-1.0560539414468338e-06
4060.05,-1.0584080877602958e-06
4060.95,-1.0581412347721833e-06
4061.85,-1.0508171277313026e-06
4062.75,-1.0291274767025196e-06
4063.65,-1.0137883181679642e-06
4064.55,-9.985697399507687e-07
4065.45,-9.968091233571632e-07
4066.35,-1.0046984703123435e-06
4067.25,-1.0303432628258416e-06
4068.15,-1.0533914499054115e-06
4069.05,-1.0759534139473452e-06
4069.95,-1.0859140521555025e-06
4070.85,-1.0858896244967818e-06
4071.75,-1.0838162865577743e-06
4072.65,-1.07832147532938e-06
4073.55,-1.0752473887479526e-06
4074.45,-1.0679065913676655e-06
4075.35,-1.062226188983672e-06
4076.25,-1.0521135168700597e-06
4077.15,-1.0403023489070339e-06
4078.05,-1.0321333025632845e-06
4078.95,-1.0396938727544929e-06
4079.85,-1.0600453242149553e-06
4080.75,-1.0903907744666594e-06
4081.65,-1.117267338331161e-06
4082.55,-1.1404348015101646e-06
4083.45,-1.1603432740928378e-06
4084.35,-1.1673737492401933e-06
4085.25,-1.1719544398922147e-06
4086.15,-1.1883277495122822e-06
4087.05,-1.2054254659164764e-06
4087.95,-1.228960347052537e-06
4088.85,-1.2533891724635077e-06
4089.75,-1.272296920952784e-06
4090.65,-1.276844753016741e-06
4091.55,-1.2738859780846543e-06
4092.45,-1.2640193251906413e-06
4093.36,-1.25212812218705e-06
4094.26,-1.236936618945474e-06
4095.16,-1.2077170382277717e-06
4096.06,-1.1835001481347639e-06
4096.96,-1.153080503528212e-06
4097.86,-1.1232254982422403e-06
4098.76,-1.0868328333490882e-06
4099.66,-1.0531824929109229e-06
4100.56,-1.0207181436106444e-06
4101.46,-9.9852504997015e-07
4102.36,-9.80833793285842e-07
4103.26,-9.831104332108547e-07
4104.16,-1.001957865151719e-06
4105.06,-1.041353541474954e-06
4105.96,-1.0855443968456903e-06
4106.86,-1.1261185766034133e-06
4107.76,-1.1550259172654517e-06
4108.66,-1.1736527570125868e-06
4109.56,-1.1794422403545443e-06
4110.46,-1.1830286813889678e-06
4111.36,-1.1942170650489247e-06
4112.26,-1.2017037378282648e-06
4113.16,-1.2164974024000755e-06
4114.06,-1.2216376556440343e-06
4114.96,-1.2418785141158374e-06
4115.86,-1.2501521113493413e-06
4116.76,-1.2605894907778177e-06
4117.66,-1.2579022836786822e-06
4118.56,-1.2441256194814668e-06
4119.46,-1.2323965853541066e-06
4120.36,-1.2293520373254904e-06
4121.26,-1.2244614542028778e-06
4122.16,-1.2264443635571301e-06
4123.06,-1.2323561806544322e-06
4123.96,-1.238679515723873e-06
4124.86,-1.2494293932467482e-06
4125.76,-1.2473424235463908e-06
4126.66,-1.246778709909531e-06
4127.56,-1.2400942338856248e-06
4128.46,-1.2273518270648126e-06
4129.36,-1.2157131752091414e-06
4130.26,-1.196380439662821e-06
4131.17,-1.1805782437941964e-06
4132.06,-1.1623730698428392e-06
4132.97,-1.1499063232217123e-06
4133.87,-1.1519924465923287e-06
4134.77,-1.1621142477560743e-06
4135.67,-1.1811884375549183e-06
4136.57,-1.2107042984790166e-06
4137.47,-1.2388931624104602e-06
4138.37,-1.2666470684043559e-06
4139.27,-1.2868715679731642e-06
4140.17,-1.2862423992458367e-06
4141.07,-1.264943906681231e-06
4141.97,-1.2370617316324098e-06
4142.87,-1.2050321657148992e-06
4143.77,-1.1740864830157606e-06
4144.67,-1.1578408861659236e-06
4145.57,-1.1665989460212128e-06
4146.47,-1.182932352782468e-06
4147.37,-1.203491115319468e-06
4148.27,-1.2159387769674725e-06
4149.17,-1.2371446514341934e-06
4150.07,-1.2359549247510663e-06
4150.97,-1.241614871778554e-06
4151.87,-1.2314996255943306e-06
4152.77,-1.2225219415359112e-06
4153.67,-1.218328637976193e-06
4154.57,-1.213380281665037e-06
4155.47,-1.2160543940910766e-06
4156.37,-1.2164905032617515e-06
4157.27,-1.2286477526886176e-06
4158.17,-1.2429080173746668e-06
4159.07,-1.2745196772084804e-06
4159.97,-1.2886004602404966e-06
4160.87,-1.3160602717421114e-06
4161.77,-1.3254455987705758e-06
4162.67,-1.3349318511815585e-06
4163.57,-1.3384930716318535e-06
4164.47,-1.340552209035318e-06
4165.37,-1.3342282603914964e-06
4166.27,-1.3273873113249604e-06
4167.17,-1.3109531969462043e-06
4168.07,-1.30819540020041e-06
4168.98,-1.2917224670782749e-06
4169.88,-1.2738538288487918e-06
4170.78,-1.2614323438307731e-06
4171.68,-1.240626416967286e-06
4172.58,-1.2120031383380993e-06
4173.48,-1.1936443895554208e-06
4174.38,-1.1865118573174928e-06
4175.28,-1.1830942332950873e-06
4176.18,-1.1879843281555991e-06
4177.08,-1.2036695773644057e-06
4177.98,-1.2188745170987832e-06
4178.88,-1.2358102813241877e-06
4179.78,-1.2455377598047068e-06
4180.68,-1.257670787690956e-06
4181.58,-1.2710215178327022e-06
4182.48,-1.2785025735643364e-06
4183.38,-1.2779587677091859e-06
4184.28,-1.2802377377624957e-06
4185.18,-1.2825202053492873e-06
4186.08,-1.282661973531901e-06
4186.98,-1.2819445257449183e-06
4187.88,-1.2733185564781346e-06
4188.78,-1.2737928811942311e-06
4189.68,-1.2801223064246524e-06
4190.58,-1.2856874769830719e-06
4191.48,-1.3047213354831611e-06
4192.38,-1.3199054349432367e-06
4193.28,-1.3275977736126999e-06
4194.18,-1.3340062878557278e-06
4195.08,-1.3224974382263101e-06
4195.98,-1.3066300514232767e-06
4196.88,-1.2783204472813702e-06
4197.78,-1.2521259348490126e-06
4198.68,-1.2325744286495926e-06
4199.58,-1.2146372830049304e-06
4200.48,-1.2062476932858769e-06
4201.38,-1.2107478784279417e-06
4202.28,-1.2128116899010696e-06
4203.18,-1.2285103039829502e-06
4204.08,-1.2565719381715322e-06
4204.98,-1.2844252042315592e-06
4205.88,-1.3084761528526352e-06
4206.79,-1.338465825859644e-06
4207.69,-1.3605081213752458e-06
4208.59,-1.3843508318584214e-06
4209.49,-1.4035761430555164e-06
4210.39,-1.4009078126432423e-06
4211.29,-1.4037872874961243e-06
4212.19,-1.4027002094304208e-06
4213.09,-1.3921580752069901e-06
4213.99,-1.3826551341957057e-06
4214.89,-1.3653435623612756e-06
4215.79,-1.3494143126287375e-06
4216.69,-1.350568585278899e-06
4217.59,-1.360068622126791e-06
4218.49,-1.3797163222250419e-06
4219.39,-1.4018922904100767e-06
4220.29,-1.4172553230662632e-06
4221.19,-1.4232006202700836e-06
4222.09,-1.4015904445030987e-06
4222.99,-1.3687740907370095e-06
4223.89,-1.3094331667321856e-06
4224.79,-1.244336886849252e-06
4225.69,-1.1766030572682035e-06
4226.59,-1.1216442583770904e-06
4227.49,-1.1067799293115695e-06
4228.39,-1.1173970752611267e-06
4229.29,-1.1627431304401893e-06
4230.19,-1.2241995305054718e-06
4231.09,-1.2871281847323785e-06
4231.99,-1.333045113639936e-06
4232.89,-1.3599135539749396e-06
4233.79,-1.367676783894078e-06
4234.69,-1.3674943297168513e-06
4235.59,-1.3545436967863937e-06
4236.49,-1.3474575429516972e-06
4237.39,-1.338178908323723e-06
4238.29,-1.3406866381522232e-06
4239.19,-1.3471980809290772e-06
4240.09,-1.373558147309145e-06
4240.99,-1.393593565077829e-06
4241.89,-1.4188646594053642e-06
4242.79,-1.4399866340929398e-06
4243.69,-1.466813529208665e-06
4244.59,-1.4743973086168981e-06
4245.5,-1.4807298215934628e-06
4246.4,-1.4664408017156792e-06
4247.3,-1.4453348920110393e-06
4248.2,-1.4158309960497505e-06
4249.1,-1.389759623116933e-06
4250.0,-1.363267312079619e-06
4250.9,-1.3533887893256405e-06
4251.8,-1.3452409201810167e-06
4252.7,-1.347409948342777e-06
4253.6,-1.3579871121837566e-06
4254.5,-1.3611880254876378e-06
4255.4,-1.3767953087336726e-06
4256.3,-1.387893378931983e-06
4257.2,-1.3936341580226938e-06
4258.1,-1.392702099140155e-06
4259.0,-1.3905591991751005e-06
4259.9,-1.3757619592182903e-06
4260.8,-1.3718268092843967e-06
4261.7,-1.3823276013314153e-06
4262.6,-1.4059082533150464e-06
4263.5,-1.435044208255874e-06
4264.4,-1.4748929938306957e-06
4265.3,-1.5013467999994254e-06
4266.2,-1.5221390826404453e-06
4267.1,-1.517471134157607e-06
4268.0,-1.5044403952266487e-06
4268.9,-1.466018781865378e-06
4269.8,-1.4094648237672494e-06
4270.7,-1.357408922553357e-06
4271.6,-1.3118433470063433e-06
4272.5,-1.2675060171202033e-06
4273.4,-1.249419323375326e-06
4274.3,-1.2500072864786004e-06
4275.2,-1.2741505249967364e-06
