wave,flux
3700.85,-5.5373747668471805e-05
3701.75,-5.475210078805025e-05
3702.65,-5.273575979051131e-05
3703.55,-4.9774221098296276e-05
3704.45,-4.653427770069588e-05
3705.35,-4.3413716689470946e-05
3706.25,-4.08997896670438e-05
3707.15,-3.95303626685814e-05
3708.05,-3.972974287287986e-05
3708.96,-4.06887290835159e-05
3709.86,-4.28165001476751e-05
3710.76,-4.61971180747482e-05
3711.66,-4.9906897413576576e-05
3712.56,-5.3991549573254396e-05
3713.46,-5.727508969302887e-05
3714.36,-5.9831793772809964e-05
3715.26,-6.0520499987437096e-05
3716.16,-5.96748646652226e-05
3717.06,-5.7095661863559444e-05
3717.96,-5.356603528669894e-05
3718.86,-4.8775269346031e-05
3719.76,-4.401640556154684e-05
3720.66,-4.021745673497261e-05
3721.56,-3.783753389865528e-05
3722.46,-3.798765909660717e-05
3723.36,-4.0342367979822856e-05
3724.26,-4.378361178420217e-05
3725.16,-4.738725279328754e-05
3726.06,-5.049642968626384e-05
3726.96,-5.2074567410808995e-05
3727.86,-5.284812593547618e-05
3728.76,-5.2611511157054795e-05
3729.66,-5.234483488780461e-05
3730.56,-5.116184909286865e-05
3731.46,-4.9290529332672716e-05
3732.36,-4.6234421580639754e-05
3733.26,-4.2523116782868673e-05
3734.16,-3.839443260687435e-05
3735.06,-3.538161950105158e-05
3735.96,-3.3954650749155124e-05
3736.86,-3.435051997701492e-05
3737.76,-3.679138818418956e-05
3738.66,-4.0870340770742164e-05
3739.56,-4.544982836341912e-05
3740.46,-4.9888962269552256e-05
3741.36,-5.281490861958128e-05
3742.26,-5.33799731853735e-05
3743.16,-5.214240721668413e-05
3744.06,-4.93083040846175e-05
3744.96,-4.622800483947014e-05
3745.86,-4.3012711308378884e-05
3746.76,-4.069594315238334e-05
3747.67,-3.8507146590023285e-05
3748.57,-3.763089161963454e-05
3749.47,-3.8133587785142684e-05
3750.37,-4.025561590152234e-05
3751.27,-4.4207643894058256e-05
3752.17,-4.982797175655491e-05
3753.07,-5.537487692577313e-05
3753.97,-6.090998815748485e-05
3754.87,-6.455789475840482e-05
3755.77,-6.614996443955156e-05
3756.67,-6.533280608433503e-05
3757.57,-6.26739432720762e-05
3758.47,-5.944525686234765e-05
3759.37,-5.6858852766582226e-05
3760.27,-5.588227093718516e-05
3761.17,-5.6393233724975396e-05
3762.07,-5.736635170891173e-05
3762.97,-5.857971715720347e-05
3763.87,-5.9587782750194445e-05
3764.77,-6.011860990162662e-05
3765.67,-6.043232084935636e-05
3766.57,-6.120170333089335e-05
3767.47,-6.180097780928665e-05
3768.37,-6.321886310785861e-05
3769.27,-6.51201355470429e-05
3770.17,-6.735948684290021e-05
3771.07,-7.00872544431268e-05
3771.97,-7.308992456785825e-05
3772.87,-7.58636959352879e-05
3773.77,-7.834510845628532e-05
3774.67,-8.070846634560185e-05
3775.57,-8.184838907250985e-05
3776.47,-8.256803780932166e-05
3777.37,-8.395044159288026e-05
3778.27,-8.504879991204215e-05
3779.17,-8.695533002936084e-05
3780.07,-8.884009805153989e-05
3780.97,-9.096038665432962e-05
3781.87,-9.271668670217833e-05
3782.77,-9.417496008524715e-05
3783.67,-9.455386619551911e-05
3784.57,-9.311916274202325e-05
3785.47,-9.013410673776532e-05
3786.38,-8.591500302347641e-05
3787.28,-8.20053120740587e-05
3788.18,-7.78779105501557e-05
3789.08,-7.523608830915904e-05
3789.98,-7.398289924541366e-05
3790.88,-7.375539698924302e-05
3791.78,-7.428688753791514e-05
3792.68,-7.456998662888539e-05
3793.58,-7.41212598269798e-05
3794.48,-7.276065664696928e-05
3795.38,-7.120677997985109e-05
3796.28,-6.927579345335761e-05
3797.18,-6.765973282227638e-05
3798.08,-6.692394203323536e-05
3798.98,-6.792835237964482e-05
3799.88,-6.980301366953703e-05
3800.78,-7.369618916007609e-05
3801.68,-7.91181177028487e-05
3802.58,-8.526243720884249e-05
3803.48,-9.023477269383587e-05
3804.38,-9.414741820664162e-05
3805.28,-9.607425760243275e-05
3806.18,-9.634596313353479e-05
3807.08,-9.601487582013577e-05
3807.98,-9.651684552258249e-05
3808.88,-9.738230137140645e-05
3809.78,-9.87382434001449e-05
3810.68,-9.922408910426753e-05
3811.58,-9.852216372340681e-05
3812.48,-9.682197168323308e-05
3813.38,-9.259822508416497e-05
3814.28,-8.784150798429669e-05
3815.18,-8.318983329098205e-05
3816.08,-7.975022815621583e-05
3816.98,-7.803444260186426e-05
3817.88,-7.659330668290335e-05
3818.78,-7.5890654748963e-05
3819.68,-7.460603407199147e-05
3820.58,-7.336958940709891e-05
3821.48,-7.187932960067429e-05
3822.38,-7.108116911784152e-05
3823.28,-7.04484252900106e-05
3824.18,-6.887303686502763e-05
3825.09,-6.690154089153646e-05
3825.99,-6.466327862762061e-05
3826.89,-6.282972312529924e-05
3827.79,-6.192901803979378e-05
3828.69,-6.185031892908954e-05
3829.59,-6.26167165250133e-05
3830.49,-6.321209084277195e-05
3831.39,-6.305511746590182e-05
3832.29,-6.234211455551586e-05
3833.19,-6.150073091347867e-05
3834.09,-6.0833913941359684e-05
3834.99,-6.0966577766466674e-05
3835.89,-6.159869201174443e-05
3836.79,-6.24532477166152e-05
3837.69,-6.288411764943145e-05
3838.59,-6.36893164269337e-05
3839.49,-6.495320768075688e-05
3840.39,-6.74669504330344e-05
3841.29,-7.185811234873424e-05
3842.19,-7.798849205712428e-05
3843.09,-8.524211351002952e-05
3843.99,-9.223458826096796e-05
3844.89,-9.826230732506567e-05
3845.79,-0.00010212762269501149
3846.69,-0.00010561816789972234
3847.59,-0.00010714749419915703
3848.49,-0.00010739691633438742
3849.39,-0.00010712625858435544
3850.29,-0.00010674594100833851
3851.19,-0.0001062650003957088
3852.09,-0.00010656899093789904
3852.99,-0.00010719011257302568
3853.89,-0.00010682996927361058
3854.79,-0.00010523503819574942
3855.69,-0.00010297687042621774
3856.59,-9.972770491623295e-05
3857.49,-9.688459001462421e-05
3858.39,-9.353910213890158e-05
3859.29,-9.166550396270591e-05
3860.19,-9.065831623199535e-05
3861.09,-9.350296909630418e-05
3861.99,-9.841812044201565e-05
3862.9,-0.00010508807384463762
3863.8,-0.000111252768796864
3864.7,-0.00011597318438487145
3865.6,-0.00011895890681903693
3866.5,-0.00011896190377460304
3867.4,-0.00011817743352624883
3868.3,-0.00011666147072218915
3869.2,-0.00011429698761685854
3870.1,-0.00011145552426361536
3871.0,-0.00010862918670496028
3871.9,-0.00010719447129000894
3872.8,-0.00010781613390999361
3873.7,-0.0001099334815643838
3874.6,-0.00011400673324658708
3875.5,-0.00011867578478158557
3876.4,-0.00012170317036549298
3877.3,-0.00012187276218703472
3878.2,-0.00012105681288589053
3879.1,-0.00011963555354665106
3880.0,-0.00011780324967437804
3880.9,-0.00011783932283489923
3881.8,-0.00011870030663241889
3882.7,-0.00011991642132315465
3883.6,-0.00012098201113489212
3884.5,-0.00012177574290380631
3885.4,-0.00012125755517974806
3886.3,-0.0001200098336133795
3887.2,-0.00011812200637498655
3888.1,-0.00011840278114482902
3889.0,-0.0001204772034271426
3889.9,-0.00012612521879034182
3890.8,-0.00013405868572603454
3891.7,-0.000143016718139044
3892.6,-0.0001515855667217569
3893.5,-0.00015802991141121604
3894.4,-0.00016224787874948748
3895.3,-0.00016494688213264917
3896.2,-0.00016630539407205968
3897.1,-0.0001675608048652443
3898.0,-0.00016930896162411333
3898.9,-0.00017092600296203522
3899.8,-0.00017180105910534157
3900.7,-0.00017250517199414813
3901.6,-0.0001732759195779217
3902.51,-0.00017251387661168554
3903.41,-0.00017191329412299727
3904.31,-0.00016962230607437832
3905.21,-0.00016926629262770113
3906.11,-0.00016920842753881114
3907.01,-0.0001736777676340339
3907.91,-0.00018013049651493038
3908.81,-0.00018827480992088046
3909.71,-0.00019740066334383215
3910.61,-0.00020509359657538848
3911.51,-0.00021167763274834893
3912.41,-0.000215851421954972
3913.31,-0.0002185783298627535
3914.21,-0.00021926520130120168
3915.11,-0.00021915908033521485
3916.01,-0.00021705713922189233
3916.91,-0.00021288263247541952
3917.81,-0.0002086726979887547
3918.71,-0.0002029667673718417
3919.61,-0.0001964247837320067
3920.51,-0.0001892117953923532
3921.41,-0.0001836397654228538
3922.31,-0.00017996307987468057
3923.21,-0.0001778659263470352
3924.11,-0.00017565820543033963
3925.01,-0.0001739275562407229
3925.91,-0.00016904419431649427
3926.81,-0.00016208296272484933
3927.71,-0.00015022136970647246
3928.61,-0.00013630552850893776
3929.51,-0.0001214468966562914
3930.41,-0.00010667583464269176
3931.31,-9.335386514908386e-05
3932.21,-8.22569657575908e-05
3933.11,-7.393394230641622e-05
3934.01,-6.919814182568184e-05
3934.91,-6.95000254617163e-05
3935.81,-7.455746163139557e-05
3936.71,-8.368079521806894e-05
3937.61,-9.726044552203882e-05
3938.51,-0.00011292280355662898
3939.42,-0.0001296668477053859
3940.32,-0.00014447091524034632
3941.22,-0.0001579432493088761
3942.12,-0.00016749766411622942
3943.02,-0.00017585821824634416
3943.92,-0.00018340453888855007
3944.82,-0.0001918171292026663
3945.72,-0.0002017308086167348
3946.62,-0.00021375301641943215
3947.52,-0.0002259815985924266
3948.42,-0.000237849202941197
3949.32,-0.0002488078231798458
3950.22,-0.00025785816566499894
3951.12,-0.00026503922919173325
3952.02,-0.0002712571158150152
3952.92,-0.00027557507725672236
3953.82,-0.00028062379049433966
3954.72,-0.00028123681841843754
3955.62,-0.00028179484153287337
3956.52,-0.00028138254357592
3957.42,-0.0002791972886788624
3958.32,-0.0002741717685356901
3959.22,-0.0002689954879568638
3960.12,-0.00025892551935223707
3961.02,-0.0002455492448267373
3961.92,-0.00022858291789655823
3962.82,-0.00021013988341207868
3963.72,-0.00019206747518645863
3964.62,-0.0001753495688463172
3965.52,-0.0001583341516396116
3966.42,-0.00014092812350399175
3967.32,-0.00012565149701065616
3968.22,-0.00011320166277042352
3969.12,-0.00010657459122250745
3970.02,-0.00010705824942828645
3970.92,-0.00011463840047548532
3971.82,-0.00012946037063418377
3972.72,-0.00014909187270434633
3973.62,-0.00017324077196347054
3974.52,-0.00019875984987478135
3975.42,-0.00022396598035667295
3976.32,-0.0002502257589581761
3977.22,-0.00027438576984855896
3978.13,-0.00029806358124856577
3979.03,-0.00032061337390008144
3979.93,-0.00033914410721606615
3980.83,-0.0003535072663174628
3981.73,-0.00036256519147774444
3982.63,-0.00037092019665697874
3983.53,-0.00037657995656711137
3984.43,-0.00038148297248891735
3985.33,-0.0003885699477351166
3986.23,-0.0003959652294704305
3987.13,-0.0004049711606934655
3988.03,-0.0004142120062249236
3988.93,-0.0004217376476576859
3989.83,-0.00042744654193192685
3990.73,-0.0004356359678673126
3991.63,-0.00044329717842803786
3992.53,-0.00044889883739529306
3993.43,-0.00045351345706238187
3994.33,-0.00045544158016139744
3995.23,-0.00045420837980950595
3996.13,-0.0004535104854815286
3997.03,-0.000455392065189715
3997.93,-0.00045609688043766734
3998.83,-0.0004629021020057171
3999.73,-0.0004743617538738948
4000.63,-0.0004859162700317873
4001.53,-0.0004946557334078829
4002.43,-0.0005053449507185474
4003.33,-0.0005070111144430574
4004.23,-0.0005028960298169891
4005.13,-0.0004958738631674048
4006.03,-0.0004891229688214963
4006.93,-0.0004869390135704614
4007.83,-0.0004913007905973291
4008.73,-0.0005028796411751401
4009.63,-0.0005165832448606775
4010.53,-0.0005324126890242291
4011.43,-0.0005439593369578229
4012.33,-0.0005553985517473679
4013.23,-0.000564322098333619
4014.13,-0.0005720511332728552
4015.03,-0.0005804293165239494
4015.93,-0.0005850540901637705
4016.84,-0.000586675112635454
4017.74,-0.0005927258854240185
4018.64,-0.0005964165842135614
4019.54,-0.0006036589733858801
4020.44,-0.0006062014834684485
4021.34,-0.0006120291419489136
4022.24,-0.000615813986104346
4023.14,-0.0006166532920060141
4024.04,-0.000620906813918538
4024.94,-0.0006239712390400248
4025.84,-0.0006309201838868796
4026.74,-0.0006365223341999681
4027.64,-0.0006445798072281186
4028.54,-0.0006439343994205518
4029.44,-0.0006391496764573027
4030.34,-0.0006245103381237044
4031.24,-0.0006067706356850204
4032.14,-0.000586008374248007
4033.04,-0.0005717113994640312
4033.94,-0.0005742285002926199
4034.84,-0.0005843655170422067
4035.74,-0.0006059158511217522
4036.64,-0.0006392032845119669
4037.54,-0.0006670687942049466
4038.44,-0.0006957665808885261
4039.34,-0.0007125387317384186
4040.24,-0.0007208566369056495
4041.14,-0.0007228607577218792
4042.04,-0.000713913431202243
4042.94,-0.0006967358554475604
4043.84,-0.0006731711627409617
4044.74,-0.0006434457660732077
4045.64,-0.0006247956336848265
4046.54,-0.0006154509550483686
4047.44,-0.0006251489616081004
4048.34,-0.0006453959691633329
4049.24,-0.0006836236763994453
4050.14,-0.0007180284838104616
4051.04,-0.000746566245643474
4051.94,-0.0007630813105714518
4052.84,-0.0007724833511772101
4053.74,-0.0007691596822619676
4054.65,-0.0007610777015756962
4055.55,-0.0007491198396355669
4056.45,-0.0007405024147791624
4057.35,-0.0007360743459090208
4058.25,-0.0007369870289231822
4059.15,-0.0007376570806423625
4060.05,-0.0007446076857759872
4060.95,-0.0007473373885701866
4061.85,-0.00074391649334303
4062.75,-0.0007358400053730042
4063.65,-0.0007251125594906876
4064.55,-0.0007177318784409325
4065.45,-0.0007198033041162005
4066.35,-0.0007364687990400025
4067.25,-0.0007576548711014972
4068.15,-0.0007840578162616683
4069.05,-0.0008060527245315209
4069.95,-0.0008188899115650006
4070.85,-0.0008299608529467858
4071.75,-0.0008294152698001559
4072.65,-0.0008327047094592679
4073.55,-0.0008344313250990506
4074.45,-0.0008335474875784567
4075.35,-0.000834021225573944
4076.25,-0.0008338236631606606
4077.15,-0.0008316456858435234
4078.05,-0.0008297933042773763
4078.95,-0.0008446252357745013
4079.85,-0.0008694182750969944
4080.75,-0.0009077111282621969
4081.65,-0.0009391300776314531
4082.55,-0.0009636598860405483
4083.45,-0.000985027628806898
4084.35,-0.0010015877709013338
4085.25,-0.0010092345459973115
4086.15,-0.0010291741294959059
4087.05,-0.0010496333422813347
4087.95,-0.001078653734692803
4088.85,-0.0011044935227968679
4089.75,-0.0011256518303148614
4090.65,-0.0011415215695045446
4091.55,-0.0011415480155271705
4092.45,-0.0011400650147504658
4093.36,-0.0011301443200100595
4094.26,-0.0011153482828005314
4095.16,-0.0010959641990738527
4096.06,-0.0010800096862924058
4096.96,-0.0010589349792095501
4097.86,-0.0010327844332560722
4098.76,-0.0010095883837886084
4099.66,-0.0009862444288912741
4100.56,-0.0009590926188985827
4101.46,-0.0009409957449529049
4102.36,-0.0009368941467214604
4103.26,-0.0009508342238345858
4104.16,-0.0009777585034856009
4105.06,-0.001023114591458465
4105.96,-0.0010702236911344946
4106.86,-0.0011214115690749609
4107.76,-0.0011511847198480986
4108.66,-0.001177434911810969
4109.56,-0.001192212487661032
4110.46,-0.0012030206014674405
4111.36,-0.0012154613605592321
4112.26,-0.0012339329019091193
4113.16,-0.0012508095724687255
4114.06,-0.0012709158186869484
4114.96,-0.001299567947229571
4115.86,-0.0013183634444753642
4116.76,-0.0013313409546304531
4117.66,-0.001330592128568703
4118.56,-0.0013414780678329308
4119.46,-0.0013315065475633212
4120.36,-0.0013267175406792935
4121.26,-0.0013360660772583342
4122.16,-0.0013451201787334564
4123.06,-0.0013561147533485245
4123.96,-0.0013730454156187807
4124.86,-0.0013872242814379964
4125.76,-0.0014088098453288148
4126.66,-0.0014069755858400466
4127.56,-0.0014104772391391924
4128.46,-0.0014033170846567125
4129.36,-0.0013919481968994634
4130.26,-0.0013798469033037973
4131.17,-0.0013641150943806374
4132.06,-0.0013497660050416445
4132.97,-0.0013495583802340815
4133.87,-0.0013477389416354554
4134.77,-0.0013740304927529299
4135.67,-0.001418075473107785
4136.57,-0.0014586428194611517
4137.47,-0.0015121760440779985
4138.37,-0.0015547792910198903
4139.27,-0.001580212414569488
4140.17,-0.0015951866983098984
4141.07,-0.0015779787105516122
4141.97,-0.001553763146786083
4142.87,-0.0015140119128437787
4143.77,-0.0014863434965303936
4144.67,-0.0014776381651852562
4145.57,-0.0014869816827915194
4146.47,-0.0015100199443998125
4147.37,-0.0015542736106820777
4148.27,-0.0015915201155785033
4149.17,-0.0016150869237954615
4150.07,-0.001633199652776626
4150.97,-0.001640303664364594
4151.87,-0.0016387579799908103
4152.77,-0.001640100537392507
4153.67,-0.0016376395974014154
4154.57,-0.0016446666457025812
4155.47,-0.001658705658891681
4156.37,-0.0016728782111393788
4157.27,-0.0016992592697660973
4158.17,-0.0017373781261123254
4159.07,-0.001792686823065098
4159.97,-0.001830803619579887
4160.87,-0.0018803328666228414
4161.77,-0.0019236817383127339
4162.67,-0.0019549618454128507
4163.57,-0.0019868932525457694
4164.47,-0.0019967097400521105
4165.37,-0.0020135165688805272
4166.27,-0.0019963184414819478
4167.17,-0.0019795592970042555
4168.07,-0.0019719965235490606
4168.98,-0.0019707166767604996
4169.88,-0.0019640040558881982
4170.78,-0.0019540047390792575
4171.68,-0.001936554127844303
4172.58,-0.001911762207614161
4173.48,-0.0018900565328780203
4174.38,-0.0018827742495871654
4175.28,-0.001891425960287033
4176.18,-0.0019100864930596663
4177.08,-0.0019443145618430874
4177.98,-0.0019837518471449013
4178.88,-0.0020214596795262688
4179.78,-0.002051487603428084
4180.68,-0.002085852369842839
4181.58,-0.0021158873906649734
4182.48,-0.0021492350011899086
4183.38,-0.002176907197852042
4184.28,-0.002203803244286922
4185.18,-0.0022373632295037147
4186.08,-0.002249414257404354
4186.98,-0.002256534798834016
4187.88,-0.0022642969097105893
4188.78,-0.002278126080420682
4189.68,-0.0023085810709351793
4190.58,-0.0023392355843486518
4191.48,-0.002385038591981644
4192.38,-0.0024312843147168968
4193.28,-0.002477635215838393
4194.18,-0.0024927680868900197
4195.08,-0.002494129779974647
4195.98,-0.002473686873785175
4196.88,-0.0024303777303279228
4197.78,-0.002385333168171267
4198.68,-0.002354289326187084
4199.58,-0.0023453674512508844
4200.48,-0.00233853356714955
4201.38,-0.0023657966879970854
4202.28,-0.0024057797136509632
4203.18,-0.002468126644627661
4204.08,-0.002541525963875359
4204.98,-0.0026159934175456734
4205.88,-0.0027034064920749426
4206.79,-0.002788895790244491
4207.69,-0.0028771428126569245
4208.59,-0.0029458987357550343
4209.49,-0.002989324137638896
4210.39,-0.0030197386830921893
4211.29,-0.0030502830348595566
4212.19,-0.003058451089919489
4213.09,-0.0030604427097998626
4213.99,-0.0030381681718675787
4214.89,-0.0030278123468137235
4215.79,-0.0030378542681770795
4216.69,-0.0030673301452676734
4217.59,-0.0031301562359461934
4218.49,-0.0031884816548939546
4219.39,-0.0032907318986680496
4220.29,-0.003358887573043072
4221.19,-0.003385015562874347
4222.09,-0.0033727074719750515
4222.99,-0.003288707234801524
4223.89,-0.0031531236027112514
4224.79,-0.0029945241992027608
4225.69,-0.0028231540340065203
4226.59,-0.002712214997948099
4227.49,-0.002662113712710206
4228.39,-0.0027142807112938054
4229.29,-0.0028613556675334056
4230.19,-0.003064266501444007
4231.09,-0.00326998896183789
4231.99,-0.0034343965211291174
4232.89,-0.0035231673905268867
4233.79,-0.0035871886423813133
4234.69,-0.00360102337888118
4235.59,-0.003602499697556383
4236.49,-0.0036017378707096214
4237.39,-0.003605102629376917
4238.29,-0.0036471610642275403
4239.19,-0.0037205565603235322
4240.09,-0.003804482789963071
4240.99,-0.003915686315784295
4241.89,-0.0040264351611695995
4242.79,-0.004132639608440512
4243.69,-0.004264451803012291
4244.59,-0.004341042896051992
4245.5,-0.004388578031574353
4246.4,-0.004392256348625488
4247.3,-0.004356716957969728
4248.2,-0.00430686978642812
4249.1,-0.004224804029218395
4250.0,-0.004158708898232394
4250.9,-0.00411429250117654
4251.8,-0.0041054297222354414
4252.7,-0.004139626519005826
4253.6,-0.004190985076165987
4254.5,-0.004267838623301546
4255.4,-0.004313358149059193
4256.3,-0.004380076395481902
4257.2,-0.0044442697171727386
4258.1,-0.004502404076819998
4259.0,-0.00453719425968413
4259.9,-0.004524665085567045
4260.8,-0.004521282938786676
4261.7,-0.004590439509211962
4262.6,-0.00473606054655081
4263.5,-0.004919108770502238
4264.4,-0.005115826771196138
4265.3,-0.005285056158157347
4266.2,-0.005399124276162472
4267.1,-0.005431430569257591
4268.0,-0.005386318669641699
4268.9,-0.005272869968406481
4269.8,-0.005082530882689467
4270.7,-0.004907594074769547
4271.6,-0.004711152106130388
4272.5,-0.00456735216197407
4273.4,-0.004524882070509297
4274.3,-0.004587291515603192
4275.2,-0.0047317597516409095
4276.1,-0.004926311423325188
4277.0,-0.005194308683741852
4277.9,-0.005425520160599167
4278.8,-0.0056478638631127535
4279.7,-0.005800583914558357
4280.6,-0.0058702892535936095
4281.5,-0.0059460321878432075
4282.4,-0.005955385433026372
