wave,flux
3700.85,-0.012967001436160908
3701.75,-0.012986306603994927
3702.65,-0.012811827358175282
3703.55,-0.012327592561513024
3704.45,-0.011838249156107136
3705.35,-0.011392931796607515
3706.25,-0.011142573753023194
3707.15,-0.01102525236762162
3708.05,-0.01122399582212022
3708.96,-0.011653231394214281
3709.86,-0.0121395265349456
3710.76,-0.012776098255299056
3711.66,-0.013554067631232859
3712.56,-0.014414322306525753
3713.46,-0.015281426196057435
3714.36,-0.016058234835960788
3715.26,-0.01667275618525084
3716.16,-0.016977647646664318
3717.06,-0.016857660040810907
3717.96,-0.01649826439861923
3718.86,-0.01577550279478479
3719.76,-0.014807929317669907
3720.66,-0.013947301248773997
3721.56,-0.013428148867122132
3722.46,-0.01348391470503071
3723.36,-0.014139028960870598
3724.26,-0.015101294330366345
3725.16,-0.016353149934932396
3726.06,-0.017473095495343247
3726.96,-0.01824704744445995
3727.86,-0.01876300208779206
3728.76,-0.0190844848424606
3729.66,-0.019198543882547287
3730.56,-0.019075884238987716
3731.46,-0.018698168452688357
3732.36,-0.017998518817446078
3733.26,-0.016980457255609222
3734.16,-0.015866612525302564
3735.06,-0.015155619518434594
3735.96,-0.014870499928679167
3736.86,-0.015403255661550383
3737.76,-0.01650628587810931
3738.66,-0.01821275092709879
3739.56,-0.020054215617876292
3740.46,-0.02183848185209816
3741.36,-0.023114074669578582
3742.26,-0.023847343370683532
3743.16,-0.023814950530123835
3744.06,-0.023387686662519485
3744.96,-0.02269772698646723
3745.86,-0.021926920609219892
3746.76,-0.021017217400294042
3747.67,-0.02035520712542297
3748.57,-0.0197538556329293
3749.47,-0.019660414118361003
3750.37,-0.02026847829084325
3751.27,-0.02190789519608926
3752.17,-0.024134165193089457
3753.07,-0.026862579485765283
3753.97,-0.029533103390244394
3754.87,-0.031780513179811384
3755.77,-0.03319059452840928
3756.67,-0.0337630466451735
3757.57,-0.0334913830382658
3758.47,-0.03278669618734553
3759.37,-0.03234724236366105
3760.27,-0.0323135640048652
3761.17,-0.032903865468520394
3762.07,-0.03413178543235097
3762.97,-0.03553663762067654
3763.87,-0.03650082104844118
3764.77,-0.037544667911909455
3765.67,-0.03808136919907092
3766.57,-0.03854992571669375
3767.47,-0.03883052912372579
3768.37,-0.03899794347402317
3769.27,-0.03951654907724753
3770.17,-0.03994801639252901
3771.07,-0.04106657312919289
3771.97,-0.04279394687032028
3772.87,-0.04475049633409418
3773.77,-0.04729701918853437
3774.67,-0.04985726190331884
3775.57,-0.05196810082333253
3776.47,-0.054165334091981
3777.37,-0.05603377300071821
3778.27,-0.05827787403057429
3779.17,-0.06054988605676061
3780.07,-0.06298571379924997
3780.97,-0.06564451495200462
3781.87,-0.06764561967361302
3782.77,-0.06995451919406614
3783.67,-0.07090814067309231
3784.57,-0.07156529808169737
3785.47,-0.07136118340026928
3786.38,-0.07047281610256745
3787.28,-0.06929755764444046
3788.18,-0.06785702316453997
3789.08,-0.0677979935571151
3789.98,-0.06764090453646544
3790.88,-0.0685205845461285
3791.78,-0.06946879805091259
3792.68,-0.06999874657452512
3793.58,-0.07019538820092838
3794.48,-0.0695051173845334
3795.38,-0.06881166080330688
3796.28,-0.0674026377324811
3797.18,-0.06640624146180825
3798.08,-0.06611870726926478
3798.98,-0.0676677100821707
3799.88,-0.07102629943010663
3800.78,-0.07673707416710977
3801.68,-0.08382529534825284
3802.58,-0.09194000463065967
3803.48,-0.09922035646983021
3804.38,-0.10555920669229799
3805.28,-0.11066072789500936
3806.18,-0.1134854760589154
3807.08,-0.11636542374282034
3807.98,-0.11937584268685333
3808.88,-0.12280899948038526
3809.78,-0.12669790598765274
3810.68,-0.13018509429316097
3811.58,-0.13283692705458874
3812.48,-0.13329408807149112
3813.38,-0.1326089664615268
3814.28,-0.1310072673646769
3815.18,-0.12896055973168036
3816.08,-0.12921564583456976
3816.98,-0.1305799732123663
3817.88,-0.13340550814888907
3818.78,-0.13637864480894238
3819.68,-0.1383281795006362
3820.58,-0.1401811893523999
3821.48,-0.14158292158210461
3822.38,-0.14376208451934885
3823.28,-0.14615577446428576
3824.18,-0.14659025129120168
3825.09,-0.1465468704254555
3825.99,-0.1457269233513896
3826.89,-0.14563897247070873
3827.79,-0.14599932388141093
3828.69,-0.14848909678723185
3829.59,-0.15122413255383016
3830.49,-0.1527336460377831
3831.39,-0.15372935182201083
3832.29,-0.15319309299663908
3833.19,-0.15155288912159556
3834.09,-0.1496084959111523
3834.99,-0.15029689061621668
3835.89,-0.15309304595046255
3836.79,-0.159216421728088
3837.69,-0.16570472712500395
3838.59,-0.17526889289180256
3839.49,-0.1874239797986969
3840.39,-0.2030720561561236
3841.29,-0.2241914325232836
3842.19,-0.2487645311061408
3843.09,-0.275258885836044
3843.99,-0.30356974426186056
3844.89,-0.3283080645203052
3845.79,-0.3524145179249969
3846.69,-0.37458303050173924
3847.59,-0.39488648508474467
3848.49,-0.41224313847570776
3849.39,-0.4275982899893756
3850.29,-0.4446417962787085
3851.19,-0.4642170901371148
3852.09,-0.48416432222316574
3852.99,-0.506219327928711
3853.89,-0.5269427484218369
3854.79,-0.5439506013056186
3855.69,-0.5602910016704352
3856.59,-0.571385547951924
3857.49,-0.5841111165241188
3858.39,-0.5959609932307768
3859.29,-0.6137219080165919
3860.19,-0.6422861357845565
3861.09,-0.6854109466459589
3861.99,-0.7451920648751923
3862.9,-0.816334800410936
3863.8,-0.8969472512997488
3864.7,-0.9690186708742367
3865.6,-1.046678414131287
3866.5,-1.1205412517930415
3867.4,-1.186959196872614
3868.3,-1.2620112323427972
3869.2,-1.3396463997265902
3870.1,-1.417967593838538
3871.0,-1.5017640744037084
3871.9,-1.5948503397829175
3872.8,-1.730284690752118
3873.7,-1.8994368811739353
3874.6,-2.1454240780413127
3875.5,-2.450993256702526
3876.4,-2.8342779450456734
3877.3,-3.2889345377212247
3878.2,-3.8922116996243177
3879.1,-4.738961331455026
3880.0,-6.058166146224676
3880.9,-8.431737186559115
3881.8,-13.747266444950302
3882.7,-36.20249230471061
3883.6,59.34848378532207
3884.5,16.176510535650237
3885.4,9.209840146848356
3886.3,6.295583867059623
3887.2,4.754920138231933
3888.1,3.80376864131344
3889.0,3.186059451678488
3889.9,2.824385412899463
3890.8,2.594255366759918
3891.7,2.458112154391208
3892.6,2.3526495966100622
3893.5,2.268619151954669
3894.4,2.168549490654738
3895.3,2.088460152779931
3896.2,1.9965549902014954
3897.1,1.9157533730321978
3898.0,1.839084242836333
3898.9,1.7791044348236191
3899.8,1.7071269652003418
3900.7,1.651629746840384
3901.6,1.5870672103257963
3902.51,1.5310193991420913
3903.41,1.4677456836850313
3904.31,1.4137228834960338
3905.21,1.354939521167251
3906.11,1.314071572226442
3907.01,1.2921689140077788
3907.91,1.2839783543603542
3908.81,1.290527878318271
3909.71,1.2987482720703831
3910.61,1.3034923563949725
3911.51,1.3010777903208954
3912.41,1.2850669690478098
3913.31,1.2634282699925805
3914.21,1.2430299180454885
3915.11,1.2066281109327825
3916.01,1.1717126616349023
3916.91,1.1343368213982354
3917.81,1.0965297907076663
3918.71,1.057200394602629
3919.61,1.0206932850714716
3920.51,0.9851843113473351
3921.41,0.95303452890019
3922.31,0.9248829490255999
3923.21,0.9074500819521648
3924.11,0.8864580800148218
3925.01,0.8558810521655579
3925.91,0.8234879557742295
3926.81,0.7736623307569104
3927.71,0.7130131433320132
3928.61,0.6446077026000505
3929.51,0.5726654452598403
3930.41,0.4972534655796581
3931.31,0.4273841577615922
3932.21,0.3652287919950093
3933.11,0.3175893115838836
3934.01,0.29019757084370423
3934.91,0.28614790384387856
3935.81,0.3010195298297982
3936.71,0.3371898483934236
3937.61,0.3913256508145706
3938.51,0.450338450438598
3939.42,0.51224929047997
3940.32,0.5696737935478045
3941.22,0.61550394988048
3942.12,0.6502932877330261
3943.02,0.674651686690855
3943.92,0.6977634964686741
3944.82,0.7171557492038468
3945.72,0.7380137448556426
3946.62,0.7644970706354587
3947.52,0.7832641879699491
3948.42,0.802332627476619
3949.32,0.8182004785918673
3950.22,0.8280672906921336
3951.12,0.8392280251585967
3952.02,0.8422541480140144
3952.92,0.849607010190459
3953.82,0.8473527591556291
3954.72,0.8465523490519761
3955.62,0.8418802336329116
3956.52,0.8361420939356408
3957.42,0.8258762940435477
3958.32,0.8147891169084908
3959.22,0.7957505512826822
3960.12,0.7715965255807821
3961.02,0.7361086963705714
3961.92,0.6946115694837485
3962.82,0.642862091967101
3963.72,0.5914997336927355
3964.62,0.5386665925828235
3965.52,0.48258947597393964
3966.42,0.425402058736825
3967.32,0.37192259497008745
3968.22,0.32730567455264736
3969.12,0.3003329511384812
3970.02,0.29575570013236785
3970.92,0.3130401864213841
3971.82,0.3491142234796663
3972.72,0.3988561096282502
3973.62,0.461044198902795
3974.52,0.5219244323503995
3975.42,0.5806135321777295
3976.32,0.6366021475506712
3977.22,0.6914623978431685
3978.13,0.7367212150118796
3979.03,0.77801089948243
3979.93,0.8112106105194227
3980.83,0.8361421581489632
3981.73,0.8492821125619308
3982.63,0.862190381483724
3983.53,0.8711505740451017
3984.43,0.8757554966700687
3985.33,0.8837300861868032
3986.23,0.8919912623527952
3987.13,0.9039555656340285
3988.03,0.9132334166053225
3988.93,0.9269936790808028
3989.83,0.9336074401323907
3990.73,0.9444799436292939
3991.63,0.9541488713683396
3992.53,0.9586717149011633
3993.43,0.9621721012333913
3994.33,0.9601487844041217
3995.23,0.9522989375611689
3996.13,0.942970070764084
3997.03,0.9390461204081295
3997.93,0.937960523179305
3998.83,0.9366238466455263
3999.73,0.9498233504248511
4000.63,0.9671752127811353
4001.53,0.9766425745171972
4002.43,0.9866448631761265
4003.33,0.9848723935615475
4004.23,0.9738888979186988
4005.13,0.9640964673908343
4006.03,0.9471696704873482
4006.93,0.9507368187116793
4007.83,0.9452294961579346
4008.73,0.9601239055024414
4009.63,0.9734587429132451
4010.53,0.9888586355265263
4011.43,1.003406856568556
4012.33,1.012312101618328
4013.23,1.014744439298354
4014.13,1.0232408137303286
4015.03,1.026082938598522
4015.93,1.0269734379001205
4016.84,1.0255393457080508
4017.74,1.030994253359845
4018.64,1.0272941175786774
4019.54,1.0316891839070106
4020.44,1.0369799539330566
4021.34,1.0361477904781173
4022.24,1.032303078669963
4023.14,1.0338938491134162
4024.04,1.0366039327524175
4024.94,1.0380657033602998
4025.84,1.0414727668411004
4026.74,1.0447976433730595
4027.64,1.049165744431948
4028.54,1.0504784559674392
4029.44,1.037109846216778
4030.34,1.0207518587586966
4031.24,0.990264578605702
4032.14,0.9718375963309323
4033.04,0.9541094226335213
4033.94,0.9507861260352805
4034.84,0.9634170458506737
4035.74,0.9834598690646047
4036.64,1.009182980414176
4037.54,1.0421700313958808
4038.44,1.063962082845384
4039.34,1.0727842527220908
4040.24,1.079974698105279
4041.14,1.0711389867831913
4042.04,1.0538486937142542
4042.94,1.0347355314286895
4043.84,1.0033619345240918
4044.74,0.9735958468870713
4045.64,0.9499603843725137
4046.54,0.9467002367862405
4047.44,0.9478001400159021
4048.34,0.967501839971502
4049.24,0.9993976974462468
4050.14,1.0260030291587248
4051.04,1.0441916889386573
4051.94,1.0499342438956594
4052.84,1.047678434994062
4053.74,1.0416446909217858
4054.65,1.028143494342095
4055.55,1.0170452967833739
4056.45,1.0019859148126937
4057.35,0.9959915513257498
4058.25,0.9939768681324165
4059.15,0.9972947876596073
4060.05,0.9988331310645406
4060.95,1.0002096761935506
4061.85,0.9907085709396536
4062.75,0.9777800555212826
4063.65,0.9669145921775494
4064.55,0.9535285925332238
4065.45,0.9488168625224247
4066.35,0.9555535203882518
4067.25,0.9680228548006894
4068.15,0.9849804226317821
4069.05,0.9972299168182011
4069.95,1.0063493545008564
4070.85,1.0064919318716072
4071.75,1.0076388836818764
4072.65,0.9967829818913644
4073.55,0.9913976903686568
4074.45,0.9830492720042429
4075.35,0.9692332112077965
4076.25,0.9617822953827689
4077.15,0.9464732871780311
4078.05,0.9336753514839957
4078.95,0.9398736651463112
4079.85,0.9476682048930499
4080.75,0.9716656247897104
4081.65,0.99156832519053
4082.55,1.0095462965629802
4083.45,1.0169458763061376
4084.35,1.0248188412511174
4085.25,1.0242175106989777
4086.15,1.0366566843123621
4087.05,1.0496023848123603
4087.95,1.0631676147617728
4088.85,1.0756004806888892
4089.75,1.0894328116760599
4090.65,1.093692785782656
4091.55,1.089283412359356
4092.45,1.0838722241492045
4093.36,1.0689860173816286
4094.26,1.052482800105746
4095.16,1.0325038674364582
4096.06,1.0036374790085416
4096.96,0.9818401611041077
4097.86,0.9505725561977387
4098.76,0.9158506279446212
4099.66,0.8823427881274857
4100.56,0.8442748140317272
4101.46,0.8173392578645946
4102.36,0.7989331197819226
4103.26,0.8013549734556716
4104.16,0.8190714609875512
4105.06,0.8465973156143721
4105.96,0.8854335040584508
4106.86,0.9210632555380289
4107.76,0.9512789172773776
4108.66,0.9711467290908647
4109.56,0.9811965316703339
4110.46,0.9903195778043402
4111.36,0.9954232729567998
4112.26,1.0050526254395702
4113.16,1.010629757876369
4114.06,1.0306211781760657
4114.96,1.0390568662586304
4115.86,1.048481611300938
4116.76,1.0511443579996198
4117.66,1.0470522785759697
4118.56,1.0353351402714432
4119.46,1.0310414182899432
4120.36,1.025179158760834
4121.26,1.0173093561016309
4122.16,1.0178792949479039
4123.06,1.0237643642932832
4123.96,1.0271612075391148
4124.86,1.0250696264220718
4125.76,1.03019425343149
4126.66,1.0280784605065718
4127.56,1.0257135503219346
4128.46,1.0183490181164117
4129.36,1.0110315850449803
4130.26,0.9957255406741489
4131.17,0.9788979945952531
4132.06,0.9715135677496207
4132.97,0.9647532267983572
4133.87,0.9636623062512536
4134.77,0.9738851728956818
4135.67,0.9849111584417434
4136.57,1.0033745353712638
4137.47,1.0239483356138632
4138.37,1.0451017868659713
4139.27,1.053467402734511
4140.17,1.055572818287725
4141.07,1.0417750750536194
4141.97,1.0188564161386968
4142.87,1.0024336429447804
4143.77,0.9831877042499944
4144.67,0.9744345439310225
4145.57,0.9730377550414463
4146.47,0.9802307949577699
4147.37,0.9931004127709137
4148.27,1.008844987846379
4149.17,1.011908895626237
4150.07,1.0140001761542525
4150.97,1.0108668846686972
4151.87,1.0063631979971153
4152.77,0.9996900445418797
4153.67,0.9936800932261726
4154.57,0.9873905632208229
4155.47,0.9876089884648002
4156.37,0.9925560065743282
4157.27,0.9929363085696217
4158.17,1.0062098070715213
4159.07,1.0189100475728423
4159.97,1.0294036295839877
4160.87,1.0392874579337708
4161.77,1.0540778578632577
4162.67,1.0645215873119036
4163.57,1.0653955554224266
4164.47,1.0648992668117114
4165.37,1.0630329480749205
4166.27,1.0570764588551236
4167.17,1.0426020598218815
4168.07,1.0375703425047926
4168.98,1.0284110692911246
4169.88,1.015523141754006
4170.78,1.004057083665716
4171.68,0.983418034618755
4172.58,0.9683740470122977
4173.48,0.9484363564246091
4174.38,0.9415704746800622
4175.28,0.942661124853309
4176.18,0.9456829565365513
4177.08,0.9552485944308088
4177.98,0.9685260877651368
4178.88,0.9744798457050852
4179.78,0.9810603742289226
4180.68,0.9906639564403087
4181.58,0.9992248125133566
4182.48,0.9999117037214289
4183.38,1.0044584290477399
4184.28,1.0026534915642902
4185.18,1.0052535805952916
4186.08,1.001282639914474
4186.98,1.0031709765625159
4187.88,1.0013213526366682
4188.78,0.9990412287880334
4189.68,1.0018977035954968
4190.58,1.005416827397907
4191.48,1.0201911673991482
4192.38,1.0275147842921046
4193.28,1.0314992304167216
4194.18,1.0294094778626912
4195.08,1.0291090916469958
4195.98,1.019960276971678
4196.88,0.999186807628374
4197.78,0.9846420675336985
4198.68,0.9661565159972018
4199.58,0.9596316120638352
4200.48,0.9516132920137302
4201.38,0.9449087546571207
4202.28,0.9540136024594705
4203.18,0.9632013527946488
4204.08,0.9766001049091199
4204.98,0.9880748838165481
4205.88,1.0057018158739903
4206.79,1.021080429042025
4207.69,1.034605126402836
4208.59,1.0511781286927577
4209.49,1.0597878903327793
4210.39,1.0604995610787542
4211.29,1.0643643140464378
4212.19,1.0620083191097165
4213.09,1.0537903243848423
4213.99,1.0506286821930244
4214.89,1.0359530836681394
4215.79,1.0311011983391662
4216.69,1.0288186160141937
4217.59,1.0267559391921404
4218.49,1.0392011543725503
4219.39,1.0529053124218306
4220.29,1.0625788732397143
4221.19,1.064614556475561
4222.09,1.0583050816467598
4222.99,1.0356209941364325
4223.89,0.9975386863063957
4224.79,0.9631477643655157
4225.69,0.922508097518624
4226.59,0.8878077316429918
4227.49,0.8803928305309794
4228.39,0.8858408569873278
4229.29,0.9146763750618241
4230.19,0.9538646121407359
4231.09,0.9827463007314274
4231.99,1.014675621260978
4232.89,1.030818663399044
4233.79,1.0322291766387524
4234.69,1.0262830704297385
4235.59,1.0209969816315436
4236.49,1.0093064568861416
4237.39,1.0061533072170596
4238.29,1.008289578518903
4239.19,1.0070179145756775
4240.09,1.0197461047595615
4240.99,1.0327394052199572
4241.89,1.0468142863721739
4242.79,1.0586711585406086
4243.69,1.0675282147815426
4244.59,1.0745316271962304
4245.5,1.0760467348146647
4246.4,1.0641865656443394
4247.3,1.0556950220012913
4248.2,1.0375321848376509
4249.1,1.0213603092231616
4250.0,1.011122864184527
4250.9,1.002213246815404
4251.8,1.0085090144515179
4252.7,1.0111188462578757
4253.6,1.02184071381697
4254.5,1.0238498047287983
4255.4,1.0285354594680187
4256.3,1.0363477331492814
4257.2,1.0335000481735768
4258.1,1.0318367849868704
4259.0,1.0268843384393496
4259.9,1.0140527311338459
4260.8,1.0119900965374127
4261.7,1.0158521899034683
4262.6,1.0275832273351726
4263.5,1.0467784827409423
4264.4,1.0689246097799436
4265.3,1.084648453075512
4266.2,1.093534096338292
4267.1,1.0932224350500097
4268.0,1.0808693434166974
4268.9,1.058187072055518
4269.8,1.0292073075585864
4270.7,1.0003589101389474
4271.6,0.9726886971654641
4272.5,0.9518461030225902
4273.4,0.9365992208150804
4274.3,0.9415030780101583
4275.2,0.9561263950437179
4276.1,0.9771042731876204
4277.0,0.997964868559497
4277.9,1.0253298772567179
4278.8,1.0379807920710908
4279.7,1.0468050682836616
4280.6,1.0511280991704792
4281.5,1.050124291366709
4282.4,1.037392501140913
4283.31,1.035280393715666
4284.21,1.0278407909419431
4285.11,1.0156721501474144
4286.01,1.003343615331456
4286.91,0.990591824043321
4287.81,0.9743859723560343
4288.71,0.9581319291083323
4289.61,0.9457613752400902
4290.51,0.9387328291424984
4291.41,0.9328910456968915
4292.31,0.9439520832858697
4293.21,0.9548130093812753
4294.11,0.9671554769569226
4295.01,0.9666531033171196
4295.91,0.9603418945155668
4296.81,0.943288383535739
4297.71,0.9155360058082229
4298.61,0.8856500445353755
4299.51,0.8538586618331493
4300.41,0.8273376653220633
4301.31,0.8056354136204327
4302.21,0.7927471703018211
4303.11,0.7881067110086539
4304.01,0.7928647742772003
4304.91,0.7901835446847474
4305.81,0.7861125010178374
4306.71,0.7843085531363969
4307.61,0.7785421463781266
4308.51,0.7747079855518609
4309.41,0.7745909259444227
4310.31,0.7828812216568571
4311.21,0.7996066647616392
4312.11,0.8305261131588787
4313.01,0.8658365539272052
4313.91,0.9117052994345733
4314.81,0.9626895711935152
4315.71,1.010086202655457
4316.61,1.0608438582677842
4317.51,1.1000698201748806
4318.41,1.1297067397046086
4319.31,1.1553674475594915
4320.21,1.1509258072630169
4321.12,1.133387628879718
4322.02,1.1054166505749239
4322.92,1.0681728185618515
4323.82,1.0303992638211077
4324.72,0.996314334670659
4325.62,0.9732639524232304
4326.52,0.9645164699941582
4327.42,0.9730334821693197
4328.32,1.0035039793542988
4329.22,1.0322263019645663
4330.12,1.0624435525251237
4331.02,1.086239034266633
4331.92,1.0997270242541444
4332.82,1.1067487883698532
4333.72,1.1086047572116158
4334.62,1.1008634772635024
4335.52,1.0790744599241011
4336.42,1.0455039823873746
4337.32,1.0102495424178484
4338.22,0.9595222243375967
4339.12,0.9120790030588956
4340.02,0.8742700806854713
4340.92,0.8495764049634063
4341.82,0.8445321857283079
4342.72,0.8628782411803868
4343.62,0.8920310445464239
4344.52,0.9327256637189438
4345.42,0.9722832640355743
4346.32,1.006312291910661
4347.22,1.0315597478716558
4348.12,1.0467457297077585
4349.02,1.0601883025795105
4349.92,1.0580364048292303
4350.82,1.0486105332987106
4351.72,1.0365899324206826
4352.62,1.020034745501072
4353.52,1.0197529317718863
4354.42,1.0198547277961525
4355.32,1.0290439416203758
4356.22,1.0408975348309497
4357.12,1.0562323712655732
4358.02,1.064925370642259
4358.92,1.070042924690067
4359.83,1.0822800183296681
