wave,flux
3700.85,-6.880211449469524e-07
3701.75,-6.767863546623323e-07
3702.65,-6.522704277616666e-07
3703.55,-6.156919435469851e-07
3704.45,-5.69332164349069e-07
3705.35,-5.325500058390365e-07
3706.25,-5.042540733614484e-07
3707.15,-4.866516468713596e-07
3708.05,-4.857400343170945e-07
3708.96,-4.96986179201128e-07
3709.86,-5.22740011188728e-07
3710.76,-5.611668913994469e-07
3711.66,-6.023004159654867e-07
3712.56,-6.504400376959029e-07
3713.46,-6.918519038476072e-07
3714.36,-7.171089236077078e-07
3715.26,-7.233261647456101e-07
3716.16,-7.135093250614583e-07
3717.06,-6.855566373491964e-07
3717.96,-6.380749246916457e-07
3718.86,-5.800182933497088e-07
3719.76,-5.262758977372015e-07
3720.66,-4.781460777282618e-07
3721.56,-4.5099367225271066e-07
3722.46,-4.5060211120797624e-07
3723.36,-4.772393966502393e-07
3724.26,-5.153928585997806e-07
3725.16,-5.594864621012411e-07
3726.06,-5.926325799302777e-07
3726.96,-6.098353204002439e-07
3727.86,-6.162758796971108e-07
3728.76,-6.145445979148297e-07
3729.66,-6.095654853346302e-07
3730.56,-5.960159934158689e-07
3731.46,-5.738957339884603e-07
3732.36,-5.376039534465797e-07
3733.26,-4.910201931116187e-07
3734.16,-4.4525978542940687e-07
3735.06,-4.084878717757962e-07
3735.96,-3.890079671862697e-07
3736.86,-3.9412119521085517e-07
3737.76,-4.2028449656618033e-07
3738.66,-4.6731981781280535e-07
3739.56,-5.178353186775871e-07
3740.46,-5.65155859991809e-07
3741.36,-5.975431319632777e-07
3742.26,-6.033800653270609e-07
3743.16,-5.873631616237656e-07
3744.06,-5.57018893710711e-07
3744.96,-5.217601037039368e-07
3745.86,-4.86974476587332e-07
3746.76,-4.5507128306197116e-07
3747.67,-4.3034148944092266e-07
3748.57,-4.202136211413552e-07
3749.47,-4.2449249001474297e-07
3750.37,-4.4596381193634575e-07
3751.27,-4.897319735707102e-07
3752.17,-5.449882775337291e-07
3753.07,-6.081836860147923e-07
3753.97,-6.64781649252079e-07
3754.87,-7.032746440642602e-07
3755.77,-7.197495870229631e-07
3756.67,-7.070148521738971e-07
3757.57,-6.796079374470033e-07
3758.47,-6.43955619173725e-07
3759.37,-6.16362632514927e-07
3760.27,-6.055366452641662e-07
3761.17,-6.062973646455274e-07
3762.07,-6.169031693738221e-07
3762.97,-6.304829298906221e-07
3763.87,-6.3654463197044e-07
3764.77,-6.421310457281388e-07
3765.67,-6.4804151614757e-07
3766.57,-6.505477953894693e-07
3767.47,-6.581664783868568e-07
3768.37,-6.699983252517836e-07
3769.27,-6.863525885306552e-07
3770.17,-7.083301090745664e-07
3771.07,-7.316970095907675e-07
3771.97,-7.608557695754457e-07
3772.87,-7.861903554795975e-07
3773.77,-8.148874369377282e-07
3774.67,-8.34489094467479e-07
3775.57,-8.426476453695998e-07
3776.47,-8.508285524669756e-07
3777.37,-8.62863820580008e-07
3778.27,-8.737985229278976e-07
3779.17,-8.907200534924673e-07
3780.07,-9.11395003782376e-07
3780.97,-9.273800543537044e-07
3781.87,-9.43146229985701e-07
3782.77,-9.547569657596702e-07
3783.67,-9.486859861825522e-07
3784.57,-9.362728808579262e-07
3785.47,-9.078737756576712e-07
3786.38,-8.675177724434459e-07
3787.28,-8.207292999515197e-07
3788.18,-7.796485250924914e-07
3789.08,-7.550211555202814e-07
3789.98,-7.421624491575952e-07
3790.88,-7.409370547247912e-07
3791.78,-7.452071056602728e-07
3792.68,-7.430414778886448e-07
3793.58,-7.348427070211127e-07
3794.48,-7.201003602466609e-07
3795.38,-7.030923996788223e-07
3796.28,-6.811555583930166e-07
3797.18,-6.643535694946548e-07
3798.08,-6.543941499608134e-07
3798.98,-6.604813441354714e-07
3799.88,-6.815566484434242e-07
3800.78,-7.174460942945881e-07
3801.68,-7.737440204401074e-07
3802.58,-8.226195262015489e-07
3803.48,-8.708643032585413e-07
3804.38,-9.029338608825648e-07
3805.28,-9.193708910823532e-07
3806.18,-9.231261203262592e-07
3807.08,-9.183788216079176e-07
3807.98,-9.202637902463937e-07
3808.88,-9.223732867762364e-07
3809.78,-9.293058662360666e-07
3810.68,-9.350941350778978e-07
3811.58,-9.340148532981775e-07
3812.48,-9.108240918778405e-07
3813.38,-8.705697244555389e-07
3814.28,-8.223700913353413e-07
3815.18,-7.796866180078117e-07
3816.08,-7.452611057591666e-07
3816.98,-7.286856746366767e-07
3817.88,-7.151918946832342e-07
3818.78,-7.053645276977918e-07
3819.68,-6.942427451624089e-07
3820.58,-6.792600047559743e-07
3821.48,-6.643629750614721e-07
3822.38,-6.553412047339326e-07
3823.28,-6.452042456714644e-07
3824.18,-6.346362262142725e-07
3825.09,-6.133247575126804e-07
3825.99,-5.900681169164513e-07
3826.89,-5.73107180813523e-07
3827.79,-5.629117417594005e-07
3828.69,-5.621851582650364e-07
3829.59,-5.65609935822386e-07
3830.49,-5.671630951041701e-07
3831.39,-5.678177668912738e-07
3832.29,-5.602961197541107e-07
3833.19,-5.479886223402773e-07
3834.09,-5.425924196510755e-07
3834.99,-5.379225679672499e-07
3835.89,-5.403691235954914e-07
3836.79,-5.481775621488745e-07
3837.69,-5.537665156184704e-07
3838.59,-5.575457515222122e-07
3839.49,-5.693908644563725e-07
3840.39,-5.888850660350027e-07
3841.29,-6.276764217952366e-07
3842.19,-6.784718262985037e-07
3843.09,-7.393091813202858e-07
3843.99,-7.982673445477237e-07
3844.89,-8.454201007378188e-07
3845.79,-8.81541624250952e-07
3846.69,-9.057319869165511e-07
3847.59,-9.18531824713767e-07
3848.49,-9.173630003363264e-07
3849.39,-9.12339134302378e-07
3850.29,-9.06981932559618e-07
3851.19,-9.04499045398786e-07
3852.09,-9.050653388536975e-07
3852.99,-9.029987652689509e-07
3853.89,-8.992709409827769e-07
3854.79,-8.861179620609982e-07
3855.69,-8.624098776599424e-07
3856.59,-8.37494306017363e-07
3857.49,-8.04233889327148e-07
3858.39,-7.766525299254529e-07
3859.29,-7.547068419416466e-07
3860.19,-7.538311985312955e-07
3861.09,-7.712634203888823e-07
3861.99,-8.097184491015236e-07
3862.9,-8.632396924741975e-07
3863.8,-9.118227846863779e-07
3864.7,-9.441028565423171e-07
3865.6,-9.637561771693824e-07
3866.5,-9.712127586918392e-07
3867.4,-9.586883993800954e-07
3868.3,-9.466769889558029e-07
3869.2,-9.241304225813977e-07
3870.1,-8.986387434156003e-07
3871.0,-8.734421500766421e-07
3871.9,-8.560638286080783e-07
3872.8,-8.534884163210605e-07
3873.7,-8.730789883038862e-07
3874.6,-8.977669004362027e-07
3875.5,-9.344367235188577e-07
3876.4,-9.493426235799798e-07
3877.3,-9.509063592981787e-07
3878.2,-9.437054652334292e-07
3879.1,-9.240318020157348e-07
3880.0,-9.146909597423672e-07
3880.9,-9.107842706389788e-07
3881.8,-9.140078837132209e-07
3882.7,-9.226204887629251e-07
3883.6,-9.341713276739714e-07
3884.5,-9.328822287618639e-07
3885.4,-9.258458077878992e-07
3886.3,-9.049973163175134e-07
3887.2,-8.976282932186766e-07
3888.1,-8.919035918134559e-07
3889.0,-9.045407787231537e-07
3889.9,-9.393748816415767e-07
3890.8,-9.924917006394313e-07
3891.7,-1.0519286175277716e-06
3892.6,-1.1097427061502002e-06
3893.5,-1.1561570978007851e-06
3894.4,-1.1845415746262882e-06
3895.3,-1.1989342046947168e-06
3896.2,-1.2070373695442432e-06
3897.1,-1.218752523222912e-06
3898.0,-1.2246320202387498e-06
3898.9,-1.2327635793177424e-06
3899.8,-1.2352715868214304e-06
3900.7,-1.2335893735070661e-06
3901.6,-1.2372461533687304e-06
3902.51,-1.2274789317409076e-06
3903.41,-1.2171801752644485e-06
3904.31,-1.2062093611197069e-06
3905.21,-1.1956152336918376e-06
3906.11,-1.2051132798130882e-06
3907.01,-1.2186685030800745e-06
3907.91,-1.260763388800527e-06
3908.81,-1.3129986252193857e-06
3909.71,-1.3749782073816195e-06
3910.61,-1.4206434150758957e-06
3911.51,-1.4597477131487618e-06
3912.41,-1.4889761653056289e-06
3913.31,-1.4979669658131237e-06
3914.21,-1.5109520933918326e-06
3915.11,-1.4975327343474328e-06
3916.01,-1.4814648845655559e-06
3916.91,-1.4501925390351597e-06
3917.81,-1.4183768731753417e-06
3918.71,-1.3675598979301344e-06
3919.61,-1.3234518778385524e-06
3920.51,-1.2781005648909974e-06
3921.41,-1.2385801059829794e-06
3922.31,-1.208569967629866e-06
3923.21,-1.1895393480464877e-06
3924.11,-1.1724264655966055e-06
3925.01,-1.155829741020078e-06
3925.91,-1.1244154845603212e-06
3926.81,-1.0662709753775805e-06
3927.71,-9.923178000042311e-07
3928.61,-8.968586957404803e-07
3929.51,-7.962802329971692e-07
3930.41,-6.993603015479173e-07
3931.31,-6.077490426808503e-07
3932.21,-5.325472872729963e-07
3933.11,-4.769749928897963e-07
3934.01,-4.4549732537141743e-07
3934.91,-4.453564396591173e-07
3935.81,-4.744720102258894e-07
3936.71,-5.338880186105225e-07
3937.61,-6.197735487090285e-07
3938.51,-7.176354274997969e-07
3939.42,-8.196664719572879e-07
3940.32,-9.135991914372953e-07
3941.22,-9.948215163608554e-07
3942.12,-1.054702601599615e-06
3943.02,-1.1056885278193338e-06
3943.92,-1.152126522229679e-06
3944.82,-1.1964459007276559e-06
3945.72,-1.2565187451604573e-06
3946.62,-1.3227279001531597e-06
3947.52,-1.3938808235464552e-06
3948.42,-1.4666158050957748e-06
3949.32,-1.5206082266347145e-06
3950.22,-1.5732308877904297e-06
3951.12,-1.6136631119037228e-06
3952.02,-1.6444371618794873e-06
3952.92,-1.6620369891961453e-06
3953.82,-1.6766662491005492e-06
3954.72,-1.6832801441014462e-06
3955.62,-1.6878107946250366e-06
3956.52,-1.6747693979571249e-06
3957.42,-1.6515070368677606e-06
3958.32,-1.630791089467718e-06
3959.22,-1.5786918071730984e-06
3960.12,-1.523686186169572e-06
3961.02,-1.4437720693873118e-06
3961.92,-1.3352534318370658e-06
3962.82,-1.229746472787747e-06
3963.72,-1.1185696953667717e-06
3964.62,-1.0219135193889706e-06
3965.52,-9.148431593189258e-07
3966.42,-8.151875952597617e-07
3967.32,-7.227817662091034e-07
3968.22,-6.510178887008625e-07
3969.12,-6.103933868062323e-07
3970.02,-6.093858936650612e-07
3970.92,-6.490834734617282e-07
3971.82,-7.33726154330551e-07
3972.72,-8.414392548901948e-07
3973.62,-9.76631586463086e-07
3974.52,-1.1177666014219647e-06
3975.42,-1.2537416510291574e-06
3976.32,-1.3913372803946429e-06
3977.22,-1.5242188611035643e-06
3978.13,-1.6558686080124348e-06
3979.03,-1.762798141939615e-06
3979.93,-1.8517618318092518e-06
3980.83,-1.9274573042975215e-06
3981.73,-1.979103619386162e-06
3982.63,-2.023930793855737e-06
3983.53,-2.040788628014332e-06
3984.43,-2.0672348371676227e-06
3985.33,-2.0848389586686232e-06
3986.23,-2.1101112317150717e-06
3987.13,-2.15054131879318e-06
3988.03,-2.1982849914498254e-06
3988.93,-2.235203489761176e-06
3989.83,-2.2688646358309653e-06
3990.73,-2.2889773962075724e-06
3991.63,-2.3152618760066398e-06
3992.53,-2.3350550697913577e-06
3993.43,-2.3551378582285037e-06
3994.33,-2.359001724398815e-06
3995.23,-2.3546817426480655e-06
3996.13,-2.323619339093844e-06
3997.03,-2.3275481870138936e-06
3997.93,-2.3296035348363608e-06
3998.83,-2.355773310725872e-06
3999.73,-2.391161914329368e-06
4000.63,-2.460318621735258e-06
4001.53,-2.508013909193535e-06
4002.43,-2.534615738932538e-06
4003.33,-2.543369295220312e-06
4004.23,-2.5095245348884987e-06
4005.13,-2.47640781548893e-06
4006.03,-2.4262479854638933e-06
4006.93,-2.4112266249162486e-06
4007.83,-2.433039341810241e-06
4008.73,-2.4645285606813966e-06
4009.63,-2.5263343967384633e-06
4010.53,-2.6026453287670023e-06
4011.43,-2.639044141384197e-06
4012.33,-2.687900263561725e-06
4013.23,-2.7160347785245536e-06
4014.13,-2.747505639180732e-06
4015.03,-2.766986161888986e-06
4015.93,-2.775161834091655e-06
4016.84,-2.7912918587383427e-06
4017.74,-2.7995489227108655e-06
4018.64,-2.820560501214791e-06
4019.54,-2.8252672327188697e-06
4020.44,-2.847055736821877e-06
4021.34,-2.8569262131243887e-06
4022.24,-2.863766080371015e-06
4023.14,-2.8675461955290018e-06
4024.04,-2.861236982783691e-06
4024.94,-2.8705600632152397e-06
4025.84,-2.905610905268344e-06
4026.74,-2.9219447037575426e-06
4027.64,-2.9441961851213647e-06
4028.54,-2.940624330657929e-06
4029.44,-2.902376912724327e-06
4030.34,-2.8293322479224044e-06
4031.24,-2.744601401528866e-06
4032.14,-2.660363263851794e-06
4033.04,-2.591078772689591e-06
4033.94,-2.5733575105342004e-06
4034.84,-2.6010651786818607e-06
4035.74,-2.6954557545551315e-06
4036.64,-2.8237991747534334e-06
4037.54,-2.9492702819841667e-06
4038.44,-3.0488702694732832e-06
4039.34,-3.117564546715367e-06
4040.24,-3.1439311714493978e-06
4041.14,-3.129966910648016e-06
4042.04,-3.083402801498847e-06
4042.94,-2.9953377373314956e-06
4043.84,-2.8885658162042915e-06
4044.74,-2.7706648082443333e-06
4045.64,-2.680657295948153e-06
4046.54,-2.6214924284162988e-06
4047.44,-2.6518692996265444e-06
4048.34,-2.749984279384179e-06
4049.24,-2.8860909712197976e-06
4050.14,-3.0205666224380937e-06
4051.04,-3.120527486513225e-06
4051.94,-3.1810878438008607e-06
4052.84,-3.194335138607451e-06
4053.74,-3.177201849906532e-06
4054.65,-3.12973476987483e-06
4055.55,-3.0882669188867162e-06
4056.45,-3.0444225802161977e-06
4057.35,-3.0167271930844015e-06
4058.25,-2.997896042149208e-06
4059.15,-3.0129843653086712e-06
4060.05,-3.030016420651993e-06
4060.95,-3.012137064187914e-06
4061.85,-2.9945854986843e-06
4062.75,-2.9369423228580323e-06
4063.65,-2.8966844309638864e-06
4064.55,-2.8661312889509312e-06
4065.45,-2.8699655167015964e-06
4066.35,-2.8975075550240534e-06
4067.25,-2.9939181589617753e-06
4068.15,-3.0856276242448785e-06
4069.05,-3.152273567012301e-06
4069.95,-3.191182152376323e-06
4070.85,-3.209625907056668e-06
4071.75,-3.193727897151643e-06
4072.65,-3.199012073744114e-06
4073.55,-3.196190065894425e-06
4074.45,-3.1795103363847876e-06
4075.35,-3.1852069280862357e-06
4076.25,-3.1544228254956125e-06
4077.15,-3.12415509351164e-06
4078.05,-3.1253912957591e-06
4078.95,-3.144153793002285e-06
4079.85,-3.230913294314507e-06
4080.75,-3.3477339055089815e-06
4081.65,-3.443014614745612e-06
4082.55,-3.5378740603756375e-06
4083.45,-3.6019832273575053e-06
4084.35,-3.627622717069965e-06
4085.25,-3.662887461297306e-06
4086.15,-3.707614458590495e-06
4087.05,-3.774288699257227e-06
4087.95,-3.862607701341928e-06
4088.85,-3.952253029468687e-06
4089.75,-3.989523767629138e-06
4090.65,-4.03851367219509e-06
4091.55,-4.047895892140437e-06
4092.45,-4.015960456480294e-06
4093.36,-3.9693911462156295e-06
4094.26,-3.901387722910119e-06
4095.16,-3.835291358120438e-06
4096.06,-3.7543126062200545e-06
4096.96,-3.6700851390702874e-06
4097.86,-3.57774427881363e-06
4098.76,-3.4718221264444436e-06
4099.66,-3.3781430126105156e-06
4100.56,-3.294661496182474e-06
4101.46,-3.2122277198669177e-06
4102.36,-3.17673187095893e-06
4103.26,-3.194397334485791e-06
4104.16,-3.2852722365224345e-06
4105.06,-3.420574183404111e-06
4105.96,-3.5608952121410776e-06
4106.86,-3.7001734292960984e-06
4107.76,-3.8088662628120377e-06
4108.66,-3.877441118159757e-06
4109.56,-3.894557641374089e-06
4110.46,-3.944951870433199e-06
4111.36,-3.970802746920482e-06
4112.26,-3.976961718708207e-06
4113.16,-4.0308668731358465e-06
4114.06,-4.096784352312296e-06
4114.96,-4.157954040942945e-06
4115.86,-4.218058082471163e-06
4116.76,-4.212284188231217e-06
4117.66,-4.2133664029496985e-06
4118.56,-4.212096055952284e-06
4119.46,-4.1787777942423194e-06
4120.36,-4.148698430610832e-06
4121.26,-4.1467839944437995e-06
4122.16,-4.1674420002466695e-06
4123.06,-4.202055123277536e-06
4123.96,-4.22828190675068e-06
4124.86,-4.262064252221491e-06
4125.76,-4.282036171083071e-06
4126.66,-4.2994119148263735e-06
4127.56,-4.283285113460045e-06
4128.46,-4.238431119261226e-06
4129.36,-4.180255331024941e-06
4130.26,-4.119526835074079e-06
4131.17,-4.067312569363297e-06
4132.06,-3.9961083280264514e-06
4132.97,-3.974243709880118e-06
4133.87,-3.9839655338986246e-06
4134.77,-4.034984959224794e-06
4135.67,-4.14904319694445e-06
4136.57,-4.245848259605676e-06
4137.47,-4.389313160556555e-06
4138.37,-4.479076170981627e-06
4139.27,-4.544658285113834e-06
4140.17,-4.550925209119267e-06
4141.07,-4.486235157609954e-06
4141.97,-4.400494573803008e-06
4142.87,-4.299206346313422e-06
4143.77,-4.1920906814620374e-06
4144.67,-4.139825428208749e-06
4145.57,-4.158688566813552e-06
4146.47,-4.22623484612024e-06
4147.37,-4.310345045523556e-06
4148.27,-4.401141607822443e-06
4149.17,-4.467803921570006e-06
4150.07,-4.486594712762896e-06
4150.97,-4.4642246145937245e-06
4151.87,-4.469575988639992e-06
4152.77,-4.449542448147906e-06
4153.67,-4.433296156645136e-06
4154.57,-4.4255220959663354e-06
4155.47,-4.427306463025075e-06
4156.37,-4.456788476358914e-06
4157.27,-4.483410564618685e-06
4158.17,-4.59325566011926e-06
4159.07,-4.685242941955793e-06
4159.97,-4.795763803210448e-06
4160.87,-4.893740325678802e-06
4161.77,-4.9810864676228544e-06
4162.67,-5.042976603544596e-06
4163.57,-5.071249448473503e-06
4164.47,-5.095186583990919e-06
4165.37,-5.080863314754753e-06
4166.27,-5.029272604795563e-06
4167.17,-5.016261787427228e-06
4168.07,-4.966086842431684e-06
4168.98,-4.924816519771132e-06
4169.88,-4.887945168402333e-06
4170.78,-4.828536672531844e-06
4171.68,-4.775043757038136e-06
4172.58,-4.681334443649114e-06
4173.48,-4.635780897119739e-06
4174.38,-4.592370149325172e-06
4175.28,-4.592055860412731e-06
4176.18,-4.619073373055951e-06
4177.08,-4.6798517584438635e-06
4177.98,-4.764582737587684e-06
4178.88,-4.82983042054294e-06
4179.78,-4.875024908484163e-06
4180.68,-4.947240303164907e-06
4181.58,-4.995630002245148e-06
4182.48,-5.0502094379730915e-06
4183.38,-5.0765976107955454e-06
4184.28,-5.110921394321045e-06
4185.18,-5.12790286518746e-06
4186.08,-5.134470963357158e-06
4186.98,-5.154550870206013e-06
4187.88,-5.137410408956447e-06
4188.78,-5.132954443009137e-06
4189.68,-5.20468592757211e-06
4190.58,-5.237262063963338e-06
4191.48,-5.330383765001878e-06
4192.38,-5.404160902948441e-06
4193.28,-5.451462601856792e-06
4194.18,-5.47471262960238e-06
4195.08,-5.459321955536513e-06
4195.98,-5.365615423776493e-06
4196.88,-5.251689129511518e-06
4197.78,-5.169408151646389e-06
4198.68,-5.088854578552793e-06
4199.58,-4.9978267330328955e-06
4200.48,-5.003439580268976e-06
4201.38,-5.024920820725941e-06
4202.28,-5.090725547746583e-06
4203.18,-5.164935001835076e-06
4204.08,-5.272912855230574e-06
4204.98,-5.4262858775134396e-06
4205.88,-5.579871434096071e-06
4206.79,-5.767139693025698e-06
4207.69,-5.871623456415748e-06
4208.59,-5.997197183181923e-06
4209.49,-6.039998749898749e-06
4210.39,-6.076869693725895e-06
4211.29,-6.11022214566484e-06
4212.19,-6.08949643318164e-06
4213.09,-6.086844795900562e-06
4213.99,-6.0494958391973e-06
4214.89,-5.959924069106271e-06
4215.79,-5.949452178688712e-06
4216.69,-5.972138364005455e-06
4217.59,-6.038485268719175e-06
4218.49,-6.169328559189892e-06
4219.39,-6.286976049432125e-06
4220.29,-6.388718957278005e-06
4221.19,-6.407466111589022e-06
4222.09,-6.351803530444009e-06
4222.99,-6.177307056650089e-06
4223.89,-5.914363666678371e-06
4224.79,-5.603370723883108e-06
4225.69,-5.254304427838968e-06
4226.59,-5.003917233013917e-06
4227.49,-4.9258269482804325e-06
4228.39,-4.999372614155075e-06
4229.29,-5.220859745821434e-06
4230.19,-5.550976733423106e-06
4231.09,-5.861531774006254e-06
4231.99,-6.142458047001167e-06
4232.89,-6.300445057611013e-06
4233.79,-6.369782435367503e-06
4234.69,-6.337301922195243e-06
4235.59,-6.325405110439596e-06
4236.49,-6.276447315327404e-06
4237.39,-6.25084864297482e-06
4238.29,-6.2640050121619845e-06
4239.19,-6.384032737266587e-06
4240.09,-6.516405131580603e-06
4240.99,-6.6287819275475155e-06
4241.89,-6.7875112166307954e-06
4242.79,-6.935158355772933e-06
4243.69,-7.074412209509281e-06
4244.59,-7.215999916217883e-06
4245.5,-7.25162136704485e-06
4246.4,-7.225992928043965e-06
4247.3,-7.131609419934098e-06
4248.2,-6.9849149842444156e-06
4249.1,-6.809301580539278e-06
4250.0,-6.670328969529683e-06
4250.9,-6.606034501135776e-06
4251.8,-6.564931023245942e-06
4252.7,-6.602188492293936e-06
4253.6,-6.625496918514272e-06
4254.5,-6.679738482631524e-06
4255.4,-6.76180854006715e-06
4256.3,-6.861159930415952e-06
4257.2,-6.899795491545374e-06
4258.1,-6.939626726683069e-06
4259.0,-6.9283329412227385e-06
4259.9,-6.89687130986126e-06
4260.8,-6.8575739055728966e-06
4261.7,-6.95344641165267e-06
4262.6,-7.1025252885893185e-06
4263.5,-7.306908566996273e-06
4264.4,-7.560062427263867e-06
4265.3,-7.750050720454238e-06
4266.2,-7.868994582084542e-06
4267.1,-7.938254440054728e-06
4268.0,-7.799151981827408e-06
4268.9,-7.598784273967275e-06
4269.8,-7.309419573775775e-06
4270.7,-7.0006217826991045e-06
4271.6,-6.7471688754796996e-06
4272.5,-6.5065242791424624e-06
4273.4,-6.383413799429753e-06
4274.3,-6.437972210480408e-06
4275.2,-6.577980271928498e-06
4276.1,-6.845487933440986e-06
4277.0,-7.1250573201591405e-06
4277.9,-7.411970788446749e-06
4278.8,-7.686865050508622e-06
