wave,flux
3700.85,-0.02206569990343543
3701.75,-0.0221114897346037
3702.65,-0.021746176959290556
3703.55,-0.020770547348480106
3704.45,-0.01983844199784476
3705.35,-0.01890609053142569
3706.25,-0.01830791667222575
3707.15,-0.018075420166393272
3708.05,-0.018368449349685408
3708.96,-0.019097118144260097
3709.86,-0.02007718080557351
3710.76,-0.0213732885086714
3711.66,-0.022994582743493253
3712.56,-0.024728641412715923
3713.46,-0.026339120459317317
3714.36,-0.027766055432596786
3715.26,-0.02864909501370652
3716.16,-0.028950542113041024
3717.06,-0.028676001290954763
3717.96,-0.027638319842235422
3718.86,-0.026023598189326126
3719.76,-0.024400231688272038
3720.66,-0.02281860061387181
3721.56,-0.021871886277910882
3722.46,-0.02213302452594541
3723.36,-0.02333974670710341
3724.26,-0.02518661900740922
3725.16,-0.027308091627643735
3726.06,-0.02912183267470985
3726.96,-0.030596430543637844
3727.86,-0.031354444019514795
3728.76,-0.03173083168049211
3729.66,-0.0319708076639979
3730.56,-0.03181276442841539
3731.46,-0.030949797460532853
3732.36,-0.029744375271742857
3733.26,-0.027901361512708826
3734.16,-0.026046887717805646
3735.06,-0.024740499035760477
3735.96,-0.024328848876825633
3736.86,-0.025110457130522724
3737.76,-0.02716680566084583
3738.66,-0.030051685808257858
3739.56,-0.033578692157887995
3740.46,-0.03663641796142995
3741.36,-0.03898308668426394
3742.26,-0.04002147648582105
3743.16,-0.03986589587045989
3744.06,-0.038906877716543
3744.96,-0.037603702251923464
3745.86,-0.03581600787192541
3746.76,-0.03448234217216129
3747.67,-0.033161383184033486
3748.57,-0.03255004365153562
3749.47,-0.032808729497307274
3750.37,-0.03414112332524326
3751.27,-0.03743341992525465
3752.17,-0.041747587631825595
3753.07,-0.0470126381457914
3753.97,-0.05173246079141277
3754.87,-0.055915252468018706
3755.77,-0.058308531310611325
3756.67,-0.05899369874889173
3757.57,-0.058274166133186416
3758.47,-0.05637850975802017
3759.37,-0.055655158142753236
3760.27,-0.055495954803092794
3761.17,-0.05691224517772131
3762.07,-0.05898049787688294
3762.97,-0.06095049201647871
3763.87,-0.06305859367788028
3764.77,-0.064669844284622
3765.67,-0.06584338599307929
3766.57,-0.06665227384848353
3767.47,-0.06759811502113089
3768.37,-0.06872690209752179
3769.27,-0.06995037088900552
3770.17,-0.07225452708524811
3771.07,-0.07506913759082048
3771.97,-0.07896141043118791
3772.87,-0.0834779295982783
3773.77,-0.08817683930686278
3774.67,-0.09264043892092147
3775.57,-0.09700881472401329
3776.47,-0.10037311595881632
3777.37,-0.10401931865459298
3778.27,-0.10775512380007152
3779.17,-0.11340951283269743
3780.07,-0.1180312587566663
3780.97,-0.12273612049048292
3781.87,-0.12757192176202323
3782.77,-0.13178566140055015
3783.67,-0.13445692049138605
3784.57,-0.13527418655557835
3785.47,-0.13420061330032076
3786.38,-0.1320978766762593
3787.28,-0.12885617513320777
3788.18,-0.12680012506715674
3789.08,-0.12533174454005633
3789.98,-0.12564107143732672
3790.88,-0.12783928063885525
3791.78,-0.1302991970164976
3792.68,-0.13244993367046845
3793.58,-0.13288470361233495
3794.48,-0.13236615387632322
3795.38,-0.13084629410745094
3796.28,-0.12938778251665786
3797.18,-0.12855167078267915
3798.08,-0.1292824346263605
3798.98,-0.13231770864615797
3799.88,-0.14078903755672195
3800.78,-0.15210850329287337
3801.68,-0.1674615505649768
3802.58,-0.1831790439133811
3803.48,-0.2004569080834204
3804.38,-0.2132835862868843
3805.28,-0.22392013159762275
3806.18,-0.23166322503193754
3807.08,-0.2378818941288077
3807.98,-0.2450078068243015
3808.88,-0.25350420191472106
3809.78,-0.2638617299879816
3810.68,-0.27360813378177157
3811.58,-0.28147300403246145
3812.48,-0.28328658285557323
3813.38,-0.2813022155267071
3814.28,-0.27745068581774673
3815.18,-0.27403933532372726
3816.08,-0.27385110838465454
3816.98,-0.278140272209286
3817.88,-0.28450409970305635
3818.78,-0.2930292022862612
3819.68,-0.29927131912797605
3820.58,-0.3045029947323933
3821.48,-0.3107701764814188
3822.38,-0.3181608168773212
3823.28,-0.32567952010319884
3824.18,-0.3314147630025932
3825.09,-0.33445410400044845
3825.99,-0.33571802517834326
3826.89,-0.3392557353566461
3827.79,-0.3442854995361519
3828.69,-0.3575718160086822
3829.59,-0.3709758237021111
3830.49,-0.3858239108972797
3831.39,-0.3959551199767878
3832.29,-0.4026125630930334
3833.19,-0.40803521655082203
3834.09,-0.41530213338593874
3834.99,-0.4288721234749953
3835.89,-0.4496003115626757
3836.79,-0.47709668489336376
3837.69,-0.5128904671180059
3838.59,-0.5550332424035144
3839.49,-0.6091576692733578
3840.39,-0.6785731645105851
3841.29,-0.7707577116162293
3842.19,-0.8888099275959201
3843.09,-1.028174108007152
3843.99,-1.1847084842186941
3844.89,-1.3497003802705392
3845.79,-1.525665214293913
3846.69,-1.7218099071177526
3847.59,-1.9399345384995608
3848.49,-2.1767733135365375
3849.39,-2.4715952321362558
3850.29,-2.834726984244016
3851.19,-3.3308939564815536
3852.09,-4.031412722026491
3852.99,-4.999775399174599
3853.89,-6.602883291451494
3854.79,-9.482514394758445
3855.69,-16.83066517938036
3856.59,-79.63494369654816
3857.49,27.981243798337058
3858.39,11.661121807013233
3859.29,7.32601051628115
3860.19,5.396947797297098
3861.09,4.378731914163536
3861.99,3.7963713904994747
3862.9,3.399620835425555
3863.8,3.113704006242669
3864.7,2.8663657458838245
3865.6,2.629443722658032
3866.5,2.4018076934828936
3867.4,2.208081951483785
3868.3,2.032720322299537
3869.2,1.8697053274201387
3870.1,1.7169858625613206
3871.0,1.5874720963215125
3871.9,1.4781784581074062
3872.8,1.3917221585071695
3873.7,1.3433235965329302
3874.6,1.3126810040233634
3875.5,1.288920276754177
3876.4,1.2608988585974406
3877.3,1.2168820961913012
3878.2,1.1652319994485023
3879.1,1.1144603847177161
3880.0,1.0684112960174201
3880.9,1.0294937065604648
3881.8,1.0020817696643984
3882.7,0.9749861616024988
3883.6,0.9438373396393683
3884.5,0.9090072392995848
3885.4,0.8728194110388287
3886.3,0.82936102325032
3887.2,0.7857267732319048
3888.1,0.7527595604689427
3889.0,0.7348937208980213
3889.9,0.7393077095680617
3890.8,0.7610352480789213
3891.7,0.7934155644098169
3892.6,0.8241946868934816
3893.5,0.8471142404964432
3894.4,0.8598156288720381
3895.3,0.8668233061126717
3896.2,0.8676833120361909
3897.1,0.866673214085754
3898.0,0.8640683115971867
3898.9,0.862115061784772
3899.8,0.8602717461873074
3900.7,0.8540432355807073
3901.6,0.8453058801922602
3902.51,0.8364435586624972
3903.41,0.8203706163636245
3904.31,0.8030881909121447
3905.21,0.789343492922058
3906.11,0.7822503142829615
3907.01,0.7882241612250305
3907.91,0.8004846308715567
3908.81,0.8223633975303225
3909.71,0.8485591984020944
3910.61,0.8642887823452081
3911.51,0.8796703593034848
3912.41,0.8814802915283422
3913.31,0.880516727991742
3914.21,0.8743527252254787
3915.11,0.85951406447481
3916.01,0.8442348304374307
3916.91,0.8261901954131609
3917.81,0.8053300594354856
3918.71,0.7795264113207834
3919.61,0.7532565335742429
3920.51,0.731108377634183
3921.41,0.7107478844614933
3922.31,0.6944435928944784
3923.21,0.681815179920667
3924.11,0.6745226858304169
3925.01,0.6583284170779825
3925.91,0.6343866813645582
3926.81,0.6001254511348504
3927.71,0.5576591595847222
3928.61,0.503347026550566
3929.51,0.44664500712453953
3930.41,0.3903973575977675
3931.31,0.3369763200416693
3932.21,0.2906872710352971
3933.11,0.2562384464508483
3934.01,0.2369808198256676
3934.91,0.23398891369224578
3935.81,0.24909094005054908
3936.71,0.2821854718392369
3937.61,0.32638597542518116
3938.51,0.3778295936762553
3939.42,0.43070513269134636
3940.32,0.4781811903903573
3941.22,0.5181120782268834
3942.12,0.5490605239889765
3943.02,0.5712668625546455
3943.92,0.5899562087832274
3944.82,0.6114511112163666
3945.72,0.6341110607672695
3946.62,0.6600270478505466
3947.52,0.6852281462867532
3948.42,0.7067961851143125
3949.32,0.7257810780145638
3950.22,0.7485872622481732
3951.12,0.7566462338291057
3952.02,0.7654386824636062
3952.92,0.770479625341108
3953.82,0.7760797134161174
3954.72,0.7729935886646174
3955.62,0.7726893479255307
3956.52,0.7643215891107905
3957.42,0.7577582475957958
3958.32,0.7458355919042267
3959.22,0.7339040764873953
3960.12,0.7079799164246571
3961.02,0.6738596534471536
3961.92,0.6318100427656818
3962.82,0.584151740341447
3963.72,0.5348429102524894
3964.62,0.4849913997355418
3965.52,0.43441698671222534
3966.42,0.38416014550728567
3967.32,0.3386496079550346
3968.22,0.3012138895382598
3969.12,0.27987460422621874
3970.02,0.27676814458549426
3970.92,0.29316731889794373
3971.82,0.32961946854444796
3972.72,0.3766317839775112
3973.62,0.4319386902232069
3974.52,0.4911743540851811
3975.42,0.548107988202602
3976.32,0.6034384880628035
3977.22,0.656006013172605
3978.13,0.7047922752213801
3979.03,0.7452458973268282
3979.93,0.7835110212332556
3980.83,0.8091631891082628
3981.73,0.8247120096217807
3982.63,0.8388081629722478
3983.53,0.8431564439519773
3984.43,0.8487509944395424
3985.33,0.8549927601183203
3986.23,0.8706866171213891
3987.13,0.8807438786421906
3988.03,0.8912779772979643
3988.93,0.9051946090551146
3989.83,0.9150892070397345
3990.73,0.9250688789193893
3991.63,0.9388267112979355
3992.53,0.9391326663292227
3993.43,0.9456612733434376
3994.33,0.9449705526086992
3995.23,0.9414611315297168
3996.13,0.9319899521060198
3997.03,0.9293487703550672
3997.93,0.9246639857559946
3998.83,0.9330772679662445
3999.73,0.9439627909289846
4000.63,0.964909633202091
4001.53,0.9799715845844303
4002.43,0.9883478002854066
4003.33,0.9910992853928724
4004.23,0.973829578099454
4005.13,0.9537643494423435
4006.03,0.9396258888046205
4006.93,0.9321451544482248
4007.83,0.9337801111405564
4008.73,0.9544805978849575
4009.63,0.967274377608029
4010.53,0.992035032799906
4011.43,1.002754182514261
4012.33,1.0150253798012334
4013.23,1.0258187041850886
4014.13,1.0306533698205522
4015.03,1.0307470054340768
4015.93,1.0368655349462388
4016.84,1.0365809975033027
4017.74,1.0408724466467527
4018.64,1.0438153891283217
4019.54,1.0499721130585296
4020.44,1.057316304844384
4021.34,1.0518902383641324
4022.24,1.0525390052434416
4023.14,1.0468957401850012
4024.04,1.0495477656674777
4024.94,1.0502260585039667
4025.84,1.0496187957012477
4026.74,1.0580840269323224
4027.64,1.06079544340718
4028.54,1.062184517312928
4029.44,1.0393259900466383
4030.34,1.0149090568883314
4031.24,0.984709920120056
4032.14,0.9541510036199676
4033.04,0.931977237093344
4033.94,0.9293467776405926
4034.84,0.9430678521500107
4035.74,0.9646216683593772
4036.64,1.0017800103039123
4037.54,1.0375912645762377
4038.44,1.0639177223772749
4039.34,1.0858979258453585
4040.24,1.0849526633363844
4041.14,1.0841380737484272
4042.04,1.0692543289525744
4042.94,1.0379595195427715
4043.84,1.0004354580572439
4044.74,0.9681487724061755
4045.64,0.9352227397525155
4046.54,0.9213446350127661
4047.44,0.9294794028402414
4048.34,0.9498411306723978
4049.24,0.9872894603787513
4050.14,1.0284548003152352
4051.04,1.0436353249923391
4051.94,1.0555521466672442
4052.84,1.055364195307071
4053.74,1.0380669252209842
4054.65,1.0280284901516672
4055.55,1.0051204482471539
4056.45,0.9936735977363632
4057.35,0.9803543231242138
4058.25,0.976376359406736
4059.15,0.9739592811418659
4060.05,0.9756224213779985
4060.95,0.9765818538297361
4061.85,0.9662135089136825
4062.75,0.9549985959548435
4063.65,0.9383025215276682
4064.55,0.9280256325105375
4065.45,0.9262448990147364
4066.35,0.9368611905593686
4067.25,0.9558192029295531
4068.15,0.9709336952759803
4069.05,0.9899356270246176
4069.95,1.000246716840383
4070.85,0.9956373186013574
4071.75,0.9939374714574397
4072.65,0.9906281344501024
4073.55,0.9801370758362614
4074.45,0.9786390026198079
4075.35,0.9686517722879417
4076.25,0.9546225222966116
4077.15,0.9422315295734809
4078.05,0.9334797229268662
4078.95,0.9414224761326825
4079.85,0.954409934585118
4080.75,0.981745724071888
4081.65,1.012186821822494
4082.55,1.024947561917165
4083.45,1.038059767222119
4084.35,1.0430980049210126
4085.25,1.046640616978507
4086.15,1.0530801568768269
4087.05,1.0706861291069432
4087.95,1.0855937175162642
4088.85,1.1024461347861412
4089.75,1.1081204012920098
4090.65,1.1133168837579062
4091.55,1.1028938075547385
4092.45,1.0991379954853546
4093.36,1.0820555730043666
4094.26,1.0638280008715622
4095.16,1.0402917151158755
4096.06,1.011777470140255
4096.96,0.9844382326082596
4097.86,0.9520914611348796
4098.76,0.9190420425738652
4099.66,0.8836659142912362
4100.56,0.8499376786911819
4101.46,0.8200930855980147
4102.36,0.8087419589750227
4103.26,0.8099866741491615
4104.16,0.8288628915226721
4105.06,0.863802864400031
4105.96,0.8989360711893716
4106.86,0.9363512506595525
4107.76,0.9689170092796284
4108.66,0.9858747034181614
4109.56,0.9925661099133
4110.46,1.0010528199050286
4111.36,1.0040689071361668
4112.26,1.0142384270179545
4113.16,1.023540662160381
4114.06,1.0350296943180337
4114.96,1.0521527063887655
4115.86,1.0590333529634206
4116.76,1.0609592871566902
4117.66,1.0582215474934875
4118.56,1.0486006889540225
4119.46,1.0414984046527613
4120.36,1.0340814486246976
4121.26,1.029825335418645
4122.16,1.028225635652007
4123.06,1.0252332246782183
4123.96,1.0300159823836874
4124.86,1.036696376372357
4125.76,1.0370781329199985
4126.66,1.0339217176363393
4127.56,1.028124168857579
4128.46,1.0198665544775039
4129.36,1.0083648650815924
4130.26,0.992477602131398
4131.17,0.9798867114200289
4132.06,0.968455061390075
4132.97,0.9570993887754374
4133.87,0.9537525366812499
4134.77,0.9657581561245482
4135.67,0.9846843417408938
4136.57,1.0075297270942298
4137.47,1.0303687456994945
4138.37,1.049137328717389
4139.27,1.058669940243551
4140.17,1.0611818784350113
4141.07,1.0470573370457612
4141.97,1.0262468613331344
4142.87,1.0028497630514972
4143.77,0.979182137012621
4144.67,0.9669574760474239
4145.57,0.9649943473904277
4146.47,0.9747820137552294
4147.37,0.9828983594162595
4148.27,0.9979901486445266
4149.17,1.0062875677729441
4150.07,1.0022823801408913
4150.97,0.9982833384972807
4151.87,0.9936154193635566
4152.77,0.986785325625337
4153.67,0.9795005166638775
4154.57,0.9736446437554372
4155.47,0.9737298150862488
4156.37,0.9730738504094495
4157.27,0.9746259269545341
4158.17,0.9935178687495929
4159.07,1.0045253995059338
4159.97,1.0184131116647792
4160.87,1.0382331357152554
4161.77,1.0557470901179933
4162.67,1.0622927227503935
4163.57,1.0674580081368552
4164.47,1.0712794928071088
4165.37,1.0663379366755705
4166.27,1.0505420450435745
4167.17,1.0437324435475621
4168.07,1.028447408772816
4168.98,1.0226082056464072
4169.88,1.0095718075631936
4170.78,0.9954773875339605
4171.68,0.9787631632689128
4172.58,0.9608838147598563
4173.48,0.9443586937819222
4174.38,0.9322028232446633
4175.28,0.9273252646589966
4176.18,0.93263442989149
4177.08,0.9395092943203961
4177.98,0.9535193914136469
4178.88,0.9568547471000962
4179.78,0.9659064843170545
4180.68,0.9737558907770502
4181.58,0.9766430863370074
4182.48,0.9870917385591343
4183.38,0.993073868455237
4184.28,0.9984220747395757
4185.18,0.9973878375656746
4186.08,1.0005085179277635
4186.98,0.9957910375678786
4187.88,1.000303823933085
4188.78,0.9960194317999166
4189.68,1.0017465619313262
4190.58,1.0116654847008204
4191.48,1.0195657657409407
4192.38,1.0320848955142599
4193.28,1.0353437273878254
4194.18,1.0367247816402108
4195.08,1.0297303452548472
4195.98,1.0095293520105961
4196.88,0.9937676423971338
4197.78,0.9672103493178562
4198.68,0.9518380290566311
4199.58,0.9400883834394985
4200.48,0.9360115591796604
4201.38,0.9374061102122532
4202.28,0.9413608651951374
4203.18,0.9540230326433662
4204.08,0.9682167255505413
4204.98,0.988207129318024
4205.88,1.0074924417836681
4206.79,1.0268546137404224
4207.69,1.0438038863220132
4208.59,1.0589095678006633
4209.49,1.065237614236129
4210.39,1.0719948872788525
4211.29,1.07309980613408
4212.19,1.0691557104005165
4213.09,1.0614061800132706
4213.99,1.0504538828466135
4214.89,1.0382897880973962
4215.79,1.0313894009654694
4216.69,1.0266579585297517
4217.59,1.0353767095754476
4218.49,1.0503250978492435
4219.39,1.0707229277882027
4220.29,1.0837195333464475
4221.19,1.0875326262969127
4222.09,1.0785287656175808
4222.99,1.0498661778718261
4223.89,1.0062398530429721
4224.79,0.9553026702574215
4225.69,0.9080227346404574
4226.59,0.8692105448749611
4227.49,0.8564669383759586
4228.39,0.8680895930411292
4229.29,0.895996190583595
4230.19,0.9392290568462209
4231.09,0.986137804725457
4231.99,1.0152671682241001
4232.89,1.0326011136395457
4233.79,1.0357470187694024
4234.69,1.0300501305042633
4235.59,1.0219606314433658
4236.49,1.009944292654727
4237.39,1.0011681376690833
4238.29,1.0108946911153935
4239.19,1.0172305769164243
4240.09,1.026737516584621
4240.99,1.0410920973234317
4241.89,1.0599375128394455
4242.79,1.0802786386580905
4243.69,1.0979058543864288
4244.59,1.1021172280074012
4245.5,1.1087496028176647
4246.4,1.1019284766522182
4247.3,1.0837217530190528
4248.2,1.0614066047186343
4249.1,1.0429383725026864
4250.0,1.0230011931370318
4250.9,1.011798763120191
4251.8,1.0049785589522542
4252.7,1.0051452016927884
4253.6,1.0091225636083252
4254.5,1.0191225080632849
4255.4,1.023551079698918
4256.3,1.0265820022747105
4257.2,1.0327443624679788
4258.1,1.0342987575972735
4259.0,1.0254675222225993
4259.9,1.0146692172314555
4260.8,1.010640217464357
4261.7,1.0114189882340114
4262.6,1.0296963761095206
4263.5,1.0554497479468017
4264.4,1.0816181659157058
4265.3,1.1053136891251347
4266.2,1.1226872382894795
4267.1,1.1163860313912841
4268.0,1.0983197289400348
4268.9,1.0707010813801172
4269.8,1.0318258225865766
4270.7,0.992454494249083
4271.6,0.9552956978719245
4272.5,0.9289288667166462
4273.4,0.9133136426010022
4274.3,0.915312874629947
4275.2,0.9306830165515044
4276.1,0.9592375173888197
4277.0,0.9849255612930423
4277.9,1.017065464282567
4278.8,1.0452352855961509
4279.7,1.0552541438959429
4280.6,1.0589691738207179
4281.5,1.0589419310691293
4282.4,1.0521917604617
4283.31,1.047526970691074
4284.21,1.0342676287576316
4285.11,1.0250864138896123
4286.01,1.0155106075092397
4286.91,0.9960720623401045
4287.81,0.9795784682460523
4288.71,0.9590110075957204
4289.61,0.9396159497207117
4290.51,0.9344613003359239
4291.41,0.933124804749196
4292.31,0.9348573396839667
4293.21,0.9484647835587767
4294.11,0.9541656503353468
4295.01,0.9622557145754231
4295.91,0.9612129962076212
4296.81,0.9447643829898323
4297.71,0.9150471546855162
4298.61,0.8808305776095372
4299.51,0.8452959144709121
4300.41,0.8157071220102738
4301.31,0.7930784650806485
4302.21,0.7791614209387021
4303.11,0.7758791757180794
4304.01,0.7734712050295041
4304.91,0.7734123773429231
4305.81,0.7678633936852794
4306.71,0.7618550743741653
4307.61,0.7541952054968598
4308.51,0.7496574132810417
4309.41,0.7490433921658766
4310.31,0.7581978382650033
4311.21,0.7829858401368153
4312.11,0.8188287489098401
4313.01,0.8618576385620608
4313.91,0.9134902631360471
4314.81,0.9666870412858363
4315.71,1.0232938258513795
4316.61,1.0731858952181077
4317.51,1.1169318833181061
4318.41,1.153324263693693
4319.31,1.1720732181954623
4320.21,1.1673711167958731
4321.12,1.1492009270240686
4322.02,1.117576729713379
4322.92,1.0791149424591107
4323.82,1.030814627113296
4324.72,0.9855909823957023
4325.62,0.9574985682824991
4326.52,0.947777196721336
4327.42,0.9634721029992418
4328.32,0.9878707648233659
4329.22,1.025748079900539
4330.12,1.0625508631146623
4331.02,1.0962485010909078
4331.92,1.1177223765253648
4332.82,1.1240808604117085
4333.72,1.1259129744234109
4334.62,1.118390156690006
4335.52,1.097693751412366
4336.42,1.0660208183498654
4337.32,1.025147817560138
4338.22,0.9652140978505263
4339.12,0.9181315288356119
4340.02,0.8788788881671958
4340.92,0.8521103535089185
4341.82,0.8512867595185052
4342.72,0.8662549069283534
4343.62,0.8961522068720329
4344.52,0.9405591868562688
4345.42,0.9831701563833272
4346.32,1.0156472105224073
4347.22,1.046828080376792
4348.12,1.0595571937113968
4349.02,1.0723173327312683
4349.92,1.072780091035879
4350.82,1.058049613232943
4351.72,1.0426660746273078
4352.62,1.0316145415076958
4353.52,1.020577446821785
4354.42,1.0195987646850677
4355.32,1.0303565710712452
4356.22,1.045338645341851
4357.12,1.0553894709379144
4358.02,1.0752410279065348
4358.92,1.0860521386377704
4359.83,1.0945461489100354
4360.73,1.1012918034810253
4361.63,1.1082458277576168
