wave,flux
3700.85,-0.0010967238847832544
3701.75,-0.0011017012915994692
3702.65,-0.0010913770643386914
3703.55,-0.0010687375444934375
3704.45,-0.001049539312555954
3705.35,-0.0010455615275365556
3706.25,-0.0010560785016366396
3707.15,-0.0010757490645679345
3708.05,-0.0011052309366815947
3708.96,-0.0011218459480149582
3709.86,-0.0011485756635118579
3710.76,-0.0011594687691378182
3711.66,-0.0011750465363006908
3712.56,-0.001204749989154411
3713.46,-0.0012595914008322506
3714.36,-0.0013118417716393015
3715.26,-0.001374402249918059
3716.16,-0.001441122390763285
3717.06,-0.0014706344761185484
3717.96,-0.0014713073089062177
3718.86,-0.0014488818124481573
3719.76,-0.0013847179232929765
3720.66,-0.0013271153623043148
3721.56,-0.0012823983270204016
3722.46,-0.0012771311122318704
3723.36,-0.0013171805537261535
3724.26,-0.0013901299508520537
3725.16,-0.001491225517247895
3726.06,-0.0015959403124342927
3726.96,-0.0016846301041847736
3727.86,-0.0017537892045520736
3728.76,-0.0017994630572717673
3729.66,-0.0018068591566754145
3730.56,-0.0017946684104598117
3731.46,-0.001744533444293072
3732.36,-0.0016622492548128956
3733.26,-0.0015694089279291437
3734.16,-0.0014906192142984393
3735.06,-0.0014563481246823654
3735.96,-0.0014807762482522422
3736.86,-0.0015490581014236777
3737.76,-0.0016847257120819895
3738.66,-0.0018483624544570491
3739.56,-0.0020258168574771003
3740.46,-0.002186741660173445
3741.36,-0.002309839418779663
3742.26,-0.002379913370713893
3743.16,-0.0024112934981812325
3744.06,-0.0023817148072600167
3744.96,-0.002333823210815605
3745.86,-0.002267187226958675
3746.76,-0.002173859839610532
3747.67,-0.002062291630174162
3748.57,-0.0019553313031618605
3749.47,-0.0018765995155301046
3750.37,-0.001862285375099728
3751.27,-0.0019348002016626486
3752.17,-0.00207883490210044
3753.07,-0.002285284853488188
3753.97,-0.002513418366600815
3754.87,-0.002741636709426411
3755.77,-0.0029223535235498982
3756.67,-0.003053717132659077
3757.57,-0.003147061537158577
3758.47,-0.0032281246424128726
3759.37,-0.003283092890473439
3760.27,-0.0033592239078521742
3761.17,-0.003433413318555638
3762.07,-0.0035020791552575043
3762.97,-0.0035791967024334775
3763.87,-0.0036371010417848297
3764.77,-0.0036066241318824456
3765.67,-0.003589664442421794
3766.57,-0.003480699828128616
3767.47,-0.0033701537854167025
3768.37,-0.003217505780010532
3769.27,-0.0030984751342097673
3770.17,-0.002988816808014653
3771.07,-0.002960795090197452
3771.97,-0.003044542856963259
3772.87,-0.0032076740990083035
3773.77,-0.00343110198690886
3774.67,-0.0037170308273698415
3775.57,-0.004030236166610923
3776.47,-0.0043269662394536884
3777.37,-0.004633541469685621
3778.27,-0.004950255445302581
3779.17,-0.0052513923958757746
3780.07,-0.005526247408311422
3780.97,-0.005769842612302031
3781.87,-0.005983739430557097
3782.77,-0.006159404802205178
3783.67,-0.006317331956863093
3784.57,-0.00639513203256687
3785.47,-0.006399520343878704
3786.38,-0.0064372823073279
3787.28,-0.006399468950703268
3788.18,-0.006372794720204658
3789.08,-0.006308966771722254
3789.98,-0.006255490959745455
3790.88,-0.0062006955951073375
3791.78,-0.006121213162826546
3792.68,-0.005926407731065947
3793.58,-0.0057171712837988655
3794.48,-0.00546918923086786
3795.38,-0.0051798229800519065
3796.28,-0.004896675260642924
3797.18,-0.004670221163627906
3798.08,-0.004550435732960496
3798.98,-0.004575941327818038
3799.88,-0.004842221714402237
3800.78,-0.0052621985567055
3801.68,-0.005823512747825959
3802.58,-0.006437364086758712
3803.48,-0.007030394970603345
3804.38,-0.007610451867114619
3805.28,-0.00812719017828332
3806.18,-0.008584518365058887
3807.08,-0.00899244710322471
3807.98,-0.009499450798051697
3808.88,-0.009896054235856138
3809.78,-0.01037069136841153
3810.68,-0.010735227054104473
3811.58,-0.011112959831317602
3812.48,-0.01134121331614111
3813.38,-0.011536480066216033
3814.28,-0.01170461519575825
3815.18,-0.011881868671777405
3816.08,-0.012089154228758984
3816.98,-0.012338773978468696
3817.88,-0.0125639553371063
3818.78,-0.012836707412742869
3819.68,-0.012976992223788059
3820.58,-0.013061699038511987
3821.48,-0.013178523085369674
3822.38,-0.013136325066387271
3823.28,-0.013126236246009126
3824.18,-0.013045271721802186
3825.09,-0.012928032774665567
3825.99,-0.012776917222889693
3826.89,-0.0125844687304449
3827.79,-0.01241888734092028
3828.69,-0.01220858775282101
3829.59,-0.011944613524430811
3830.49,-0.011556267666650195
3831.39,-0.011159522441091299
3832.29,-0.010537618439654816
3833.19,-0.009991829483196704
3834.09,-0.009481115306763516
3834.99,-0.00913859951164268
3835.89,-0.00903466832707161
3836.79,-0.009187319510688274
3837.69,-0.00967470514248018
3838.59,-0.010492427221108491
3839.49,-0.011502782560625657
3840.39,-0.01277053893841917
3841.29,-0.014037077397863232
3842.19,-0.015503224094334923
3843.09,-0.01679952988679952
3843.99,-0.018258514800209014
3844.89,-0.01947323424360497
3845.79,-0.020708475938216273
3846.69,-0.021885392468212965
3847.59,-0.022792755846431572
3848.49,-0.023852683806701743
3849.39,-0.02480659622501566
3850.29,-0.025805365235229877
3851.19,-0.026796518253377886
3852.09,-0.027793532050164067
3852.99,-0.028779222176519962
3853.89,-0.029679777635221727
3854.79,-0.030533541822622853
3855.69,-0.0312332899716336
3856.59,-0.03187525502779939
3857.49,-0.03265075430656653
3858.39,-0.033256154691385105
3859.29,-0.03411413420130185
3860.19,-0.03499084927867934
3861.09,-0.03593047337701486
3861.99,-0.037139337568437625
3862.9,-0.03842089318481156
3863.8,-0.03973253290762705
3864.7,-0.04060460720840214
3865.6,-0.04177902130551162
3866.5,-0.042563520299819656
3867.4,-0.043341505561898724
3868.3,-0.04390019049394428
3869.2,-0.04495970505433231
3870.1,-0.04540248203417104
3871.0,-0.04571956272750572
3871.9,-0.04641920876040232
3872.8,-0.04672709321918706
3873.7,-0.047365648556958004
3874.6,-0.04808085404408213
3875.5,-0.048559119735155094
3876.4,-0.049173620791249754
3877.3,-0.04915291998190355
3878.2,-0.04936757421756462
3879.1,-0.04907950197828134
3880.0,-0.0487044471754606
3880.9,-0.04874361875992307
3881.8,-0.04818962563880623
3882.7,-0.04805475885130479
3883.6,-0.04731532175486483
3884.5,-0.04641117059203467
3885.4,-0.044838594633940784
3886.3,-0.04306193176144782
3887.2,-0.04129005377615132
3888.1,-0.03958175142414858
3889.0,-0.038928175253426685
3889.9,-0.03940653458315585
3890.8,-0.04121496925917081
3891.7,-0.04473488844522563
3892.6,-0.04915667522726346
3893.5,-0.053973271304602596
3894.4,-0.059206534496170075
3895.3,-0.06438187418651245
3896.2,-0.06970206277326461
3897.1,-0.07425425597066457
3898.0,-0.079550848708842
3898.9,-0.08429422492022366
3899.8,-0.08898579287861949
3900.7,-0.09410183647254848
3901.6,-0.09905890462887669
3902.51,-0.10435465024835125
3903.41,-0.10920641387119116
3904.31,-0.11448914336588281
3905.21,-0.11982037067802198
3906.11,-0.1249084726244134
3907.01,-0.1313887773288426
3907.91,-0.13807993757291673
3908.81,-0.14539925969179918
3909.71,-0.15349933940387944
3910.61,-0.16061272908797197
3911.51,-0.16778487352753704
3912.41,-0.17516811092743037
3913.31,-0.1806772218794253
3914.21,-0.18747740163692145
3915.11,-0.1945519658714921
3916.01,-0.19996437011297682
3916.91,-0.20791862999682073
3917.81,-0.21503534235446684
3918.71,-0.22325067822763198
3919.61,-0.2304899715052334
3920.51,-0.23839603853627436
3921.41,-0.24789015289376767
3922.31,-0.25872141610394495
3923.21,-0.2683800466857125
3924.11,-0.2789851863931866
3925.01,-0.2909862184930272
3925.91,-0.30004790728835706
3926.81,-0.30829500067788823
3927.71,-0.31497941411458175
3928.61,-0.3192121912755433
3929.51,-0.32093157929309485
3930.41,-0.31794248216871573
3931.31,-0.313081390348664
3932.21,-0.3063495323791614
3933.11,-0.3008082274831555
3934.01,-0.30397865239452154
3934.91,-0.316373678656975
3935.81,-0.3447422769269337
3936.71,-0.3828052319920901
3937.61,-0.435369608867818
3938.51,-0.490288234533934
3939.42,-0.549169322715516
3940.32,-0.6049285338470746
3941.22,-0.6584506924473138
3942.12,-0.7153111346324202
3943.02,-0.7721222954372405
3943.92,-0.828751973442079
3944.82,-0.8969279616689525
3945.72,-0.9639409279253891
3946.62,-1.0540760626252719
3947.52,-1.1385981720110898
3948.42,-1.2466874900309457
3949.32,-1.366089204477073
3950.22,-1.5056638814442969
3951.12,-1.6794762493128736
3952.02,-1.880444250339046
3952.92,-2.126395335294437
3953.82,-2.4395468312369055
3954.72,-2.848211302237731
3955.62,-3.4338061894562495
3956.52,-4.258428015198217
3957.42,-5.593873108100128
3958.32,-8.169182254861877
3959.22,-15.171696145046857
3960.12,-122.64157421763204
3961.02,19.347713144521503
3961.92,8.663444857786384
3962.82,5.418121432141569
3963.72,3.8344098291987403
3964.62,2.872421782252416
3965.52,2.2083540340873213
3966.42,1.7310282533569294
3967.32,1.3652040526465297
3968.22,1.1120381071560514
3969.12,0.9265628622217483
3970.02,0.8147880048075786
3970.92,0.763274637520256
3971.82,0.7592677697805551
3972.72,0.7866473194540824
3973.62,0.8341737366090742
3974.52,0.881359221272761
3975.42,0.928022013138442
3976.32,0.9678113913930897
3977.22,1.0002598259480169
3978.13,1.0288749704852231
3979.03,1.045768891555699
3979.93,1.0615623502743823
3980.83,1.0675991103013278
3981.73,1.0682262697009792
3982.63,1.0663293061198793
3983.53,1.0547568061703598
3984.43,1.0529856748354927
3985.33,1.0559482879124424
3986.23,1.0533096577713987
3987.13,1.051497640038857
3988.03,1.0497266646886594
3988.93,1.0454167553813034
3989.83,1.0482810895408374
3990.73,1.045932615505347
3991.63,1.0444377684378576
3992.53,1.038737703887633
3993.43,1.035320677628889
3994.33,1.0273066939755138
3995.23,1.0170598686805208
3996.13,1.0069740141415744
3997.03,0.9956504901928008
3997.93,0.9909669586780016
3998.83,0.9868869905550124
3999.73,0.9909702739728196
4000.63,0.9916962583535749
4001.53,0.9992796519497311
4002.43,0.9949665100754471
4003.33,0.9877799097253065
4004.23,0.9809301380575471
4005.13,0.9760393853147896
4006.03,0.9679829333992311
4006.93,0.9644311820248249
4007.83,0.9665035911448981
4008.73,0.9712492942015326
4009.63,0.9770167188668964
4010.53,0.9819442382896657
4011.43,0.9856344015500001
4012.33,0.9864051064720973
4013.23,0.984534657369885
4014.13,0.9876908158132683
4015.03,0.9879933550459239
4015.93,0.9869618971121816
4016.84,0.9864631001682911
4017.74,0.9907044836258557
4018.64,0.9935886352263907
4019.54,0.9963925184544234
4020.44,1.0030488899311925
4021.34,1.000295811778475
4022.24,0.9983785841312989
4023.14,0.998924822992808
4024.04,0.9990387033914421
4024.94,0.9995777280851006
4025.84,0.9954838539791436
4026.74,0.9982518924838488
4027.64,1.0022166605160665
4028.54,1.001321756966159
4029.44,1.0019554096501908
4030.34,0.9923646772574846
4031.24,0.9859240897034
4032.14,0.9797916716576068
4033.04,0.9777254153434365
4033.94,0.9822950334763997
4034.84,0.9899449366405753
4035.74,0.9993771092817286
4036.64,1.0131662072329326
4037.54,1.0267579452524362
4038.44,1.036133947524755
4039.34,1.0445231710756377
4040.24,1.048111766924677
4041.14,1.0513588059676109
4042.04,1.0472650900277707
4042.94,1.0364643575904402
4043.84,1.0298813611291815
4044.74,1.0216476860359571
4045.64,1.0146661410720093
4046.54,1.0161035394418754
4047.44,1.0170698913063396
4048.34,1.0311032731188958
4049.24,1.0409467819203382
4050.14,1.051635663729531
4051.04,1.0599619375664526
4051.94,1.063678635084006
4052.84,1.0664411920467927
4053.74,1.0606459501865517
4054.65,1.0605877045084113
4055.55,1.0611974160885078
4056.45,1.0617042695699355
4057.35,1.059841831999826
4058.25,1.0605098914118902
4059.15,1.0668961706118167
4060.05,1.0714389427301207
4060.95,1.0711852612678738
4061.85,1.0753014991606233
4062.75,1.0672530365877346
4063.65,1.061338287348152
4064.55,1.0635450907844697
4065.45,1.0539561874829422
4066.35,1.0641723165837698
4067.25,1.072059073175884
4068.15,1.080196089258834
4069.05,1.0771900618083208
4069.95,1.077125424318495
4070.85,1.0795302861631386
4071.75,1.0773033479467977
4072.65,1.07759670643605
4073.55,1.0728641100872711
4074.45,1.0659471733884793
4075.35,1.0542702348172386
4076.25,1.0473366853088415
4077.15,1.037650799346294
4078.05,1.0283612806028959
4078.95,1.0240805026412643
4079.85,1.0309064883862091
4080.75,1.0312035956476064
4081.65,1.0391139718122295
4082.55,1.0429782101042293
4083.45,1.0394430823536216
4084.35,1.036055831325595
4085.25,1.0324082355039768
4086.15,1.0194314615358413
4087.05,1.0162551163706983
4087.95,1.0120390223399114
4088.85,1.0087091008275193
4089.75,0.9996008937896366
4090.65,0.9886518770172161
4091.55,0.9740239333526507
4092.45,0.9502549328939474
4093.36,0.9291627864508145
4094.26,0.9038051684849938
4095.16,0.8702111583658851
4096.06,0.8399388171329436
4096.96,0.8047605867610007
4097.86,0.7648583879990279
4098.76,0.7221816473063759
4099.66,0.6781236160695531
4100.56,0.6365455404768161
4101.46,0.6069196108949244
4102.36,0.5910263931015239
4103.26,0.5922181090031576
4104.16,0.611197385878405
4105.06,0.6411413911689338
4105.96,0.678705589032231
4106.86,0.7238353483736251
4107.76,0.7626025833179559
4108.66,0.795976422083514
4109.56,0.8267386391923295
4110.46,0.8536804289044
4111.36,0.8738422992011138
4112.26,0.9011179913678333
4113.16,0.9206836669818057
4114.06,0.9463847290639307
4114.96,0.9634095334671732
4115.86,0.9841539446771895
4116.76,0.9919860066970191
4117.66,1.0025772693118145
4118.56,1.0064190296564246
4119.46,1.014633007384124
4120.36,1.0152861262399009
4121.26,1.0246384798366541
4122.16,1.0288290094303443
4123.06,1.0361412489438655
4123.96,1.0398667149025782
4124.86,1.0519764343231606
4125.76,1.0498786789555334
4126.66,1.0589053565697861
4127.56,1.0560518000087542
4128.46,1.0553127131202578
4129.36,1.0533129239457868
4130.26,1.0490126145853877
4131.17,1.0499950657864086
4132.06,1.0461168447306706
4132.97,1.0474983128483288
4133.87,1.0489985780747562
4134.77,1.0568468277599807
4135.67,1.0682155551532455
4136.57,1.075966555149149
4137.47,1.0833174280920546
4138.37,1.0929199034364434
4139.27,1.097309891180596
4140.17,1.100055429573294
4141.07,1.0991509059664453
4141.97,1.0910870094677612
4142.87,1.077899278169078
4143.77,1.0753410031992952
4144.67,1.0622817344950037
4145.57,1.0643542972809354
4146.47,1.067209474768193
4147.37,1.0801035626829298
4148.27,1.0786215782389117
4149.17,1.0804474787595766
4150.07,1.0810788989468054
4150.97,1.0675731237242054
4151.87,1.0688279629189565
4152.77,1.065428649454135
4153.67,1.0609000085862177
4154.57,1.0592304214691095
4155.47,1.0536790755593173
4156.37,1.05137758021208
4157.27,1.051348286641361
4158.17,1.0577181509851976
4159.07,1.0582974280500517
4159.97,1.06248321604949
4160.87,1.0686562099046897
4161.77,1.0702352764760703
4162.67,1.069749813068899
4163.57,1.0674656602967119
4164.47,1.0715697146204806
4165.37,1.0691011609188996
4166.27,1.0619293963389393
4167.17,1.0601086832091875
4168.07,1.0556554258125297
4168.98,1.0470683446575986
4169.88,1.0432713029958933
4170.78,1.0311516091441513
4171.68,1.0215037458448397
4172.58,1.0139003610939603
4173.48,1.0009835357823724
4174.38,0.9942262109593938
4175.28,0.9915689386367936
4176.18,0.991690030461325
4177.08,0.996308565145135
4177.98,0.9950713442577294
4178.88,0.9987941583813921
4179.78,0.9980641353786079
4180.68,1.0016916569075436
4181.58,1.0079837506629141
4182.48,1.0102172922133963
4183.38,1.0128444576851021
4184.28,1.016584665364318
4185.18,1.0162837552612947
4186.08,1.0127888834150587
4186.98,1.007907749423392
4187.88,1.0076562175054191
4188.78,1.012933380606374
4189.68,1.011814945890652
4190.58,1.0138472255652442
4191.48,1.0170720204727377
4192.38,1.0158719570925678
4193.28,1.0235138891937368
4194.18,1.0188441103520962
4195.08,1.0149540648211803
4195.98,1.0090279906630566
4196.88,0.9984152972086009
4197.78,0.9948022558452033
4198.68,0.980501981941508
4199.58,0.9772545025303094
4200.48,0.9744937163691036
4201.38,0.9766864455969948
4202.28,0.9780396236601939
4203.18,0.9814445948708899
4204.08,0.9837656913441414
4204.98,0.985454833414403
4205.88,0.9924194466371113
4206.79,0.9969726980978942
4207.69,1.0032469283914929
4208.59,1.0099686034267157
4209.49,1.0119743103627639
4210.39,1.0138938369819621
4211.29,1.0136553405461053
4212.19,1.0134063307467884
4213.09,1.010308548509502
4213.99,1.0040677320831775
4214.89,0.9992595928187417
4215.79,0.9938231450495523
4216.69,0.9910953564139245
4217.59,0.9960354007394661
4218.49,0.9988599236671256
4219.39,1.0061345847834988
4220.29,1.0098526004182555
4221.19,1.013602202862256
4222.09,1.0066927651663231
4222.99,0.9983176101600351
4223.89,0.9867487938553919
4224.79,0.9683355157021404
4225.69,0.9544860692848172
4226.59,0.9454570352716253
4227.49,0.9426158727501113
4228.39,0.9463856922086463
4229.29,0.955658472815132
4230.19,0.973477504879031
4231.09,0.9835402856993023
4231.99,0.9904067837597375
4232.89,0.9945263676187605
4233.79,0.9973901013509695
4234.69,0.9898443344678268
4235.59,0.9875551536392508
4236.49,0.9862546432830362
4237.39,0.9857284094620631
4238.29,0.9902794010505943
4239.19,0.9916502368761676
4240.09,0.9986065656232256
4240.99,1.0012905778477426
4241.89,1.008154691545551
4242.79,1.0112425718321865
4243.69,1.0184336229423518
4244.59,1.0167946524302098
4245.5,1.0143889181741486
4246.4,1.0103908659580916
4247.3,1.006488714468371
4248.2,0.9966102556546201
4249.1,0.9945891209668855
4250.0,0.9969863365135628
4250.9,0.9921699520290828
4251.8,0.9970687686023492
4252.7,1.0005205223860951
4253.6,1.0082050625309087
4254.5,1.0128227769266596
4255.4,1.0139320772422238
4256.3,1.0207852995155315
4257.2,1.0201957412408482
4258.1,1.0229577528367846
4259.0,1.0199164089195716
4259.9,1.0103135455099579
4260.8,1.0133812581578239
4261.7,1.0134201111061847
4262.6,1.0195448379494254
4263.5,1.033781632865229
4264.4,1.0385630758903133
4265.3,1.0436315136968806
4266.2,1.0533241552676
4267.1,1.0492005862075535
4268.0,1.0478164668281307
4268.9,1.0426540768822932
4269.8,1.0272255062263649
4270.7,1.0144732900078424
4271.6,1.0053211439526173
4272.5,0.9978096863347318
4273.4,0.9965230316060872
4274.3,0.9930388454513343
4275.2,1.001400720543559
4276.1,1.009487168680264
4277.0,1.0171188725081537
4277.9,1.0311585942699237
4278.8,1.0377962073508855
4279.7,1.0444134953233095
4280.6,1.0436727007830222
4281.5,1.048456092390267
4282.4,1.0403514192520928
4283.31,1.0407828754525632
4284.21,1.0328191571778318
4285.11,1.0354203011365861
4286.01,1.0290835606014164
4286.91,1.0228560010392433
4287.81,1.0181869118740192
4288.71,1.0132240809189474
4289.61,1.005849353387113
4290.51,1.003381445573985
4291.41,0.9973104033455349
4292.31,1.0056816837483922
4293.21,1.0133436378897034
4294.11,1.014044977463213
4295.01,1.0199025560967188
4295.91,1.0222923744160517
4296.81,1.014547577903754
4297.71,1.003824328725801
4298.61,0.9925057532309322
4299.51,0.975647458837241
4300.41,0.9656068586476199
4301.31,0.956721951460488
4302.21,0.9518295890737759
4303.11,0.9547034050151852
4304.01,0.9544602604908218
4304.91,0.9618801779330838
4305.81,0.9581232790783131
4306.71,0.9618999479012206
4307.61,0.9641335311981623
4308.51,0.9617196142662527
4309.41,0.9602216317604004
4310.31,0.9602989177312206
4311.21,0.9616715387930347
4312.11,0.9748602885972218
4313.01,0.9789152807538727
4313.91,0.9895302187041775
4314.81,1.0075327506723706
4315.71,1.017227592919706
4316.61,1.0281624511266798
4317.51,1.0403354183885047
4318.41,1.0514755147389605
4319.31,1.0537604825186486
4320.21,1.048674261040607
4321.12,1.046145707618145
4322.02,1.030518259619603
4322.92,1.012716999091136
4323.82,0.9944647684737352
4324.72,0.9711061119045532
4325.62,0.9558329605757989
4326.52,0.944202863129773
4327.42,0.9386398590195891
4328.32,0.9383852654332083
4329.22,0.9368526429552447
4330.12,0.9409874786113654
4331.02,0.934225054675486
4331.92,0.9232619553440444
4332.82,0.9098722004736136
4333.72,0.8928014448709463
4334.62,0.8686810013737895
4335.52,0.8387162624125926
4336.42,0.8013340995538081
4337.32,0.7635267449053794
4338.22,0.7190168109848822
4339.12,0.6758343386908315
4340.02,0.6424145461916342
4340.92,0.6226381435889181
4341.82,0.6211689530459054
4342.72,0.6354538383109615
4343.62,0.6650250424260105
4344.52,0.6956373435191955
4345.42,0.7414204371662195
4346.32,0.7801754742500628
4347.22,0.8156061116433866
