wave,flux
3700.85,-8.596850851127511e-05
3701.75,-8.563568240593662e-05
3702.65,-8.366894489624919e-05
3703.55,-8.064617566348376e-05
3704.45,-7.756962241170082e-05
3705.35,-7.460912917989613e-05
3706.25,-7.33081290329679e-05
3707.15,-7.307749194568748e-05
3708.05,-7.398532018405928e-05
3708.96,-7.532775958386382e-05
3709.86,-7.698434230924098e-05
3710.76,-7.94241339285215e-05
3711.66,-8.15601983879373e-05
3712.56,-8.432449395698614e-05
3713.46,-8.777998992603042e-05
3714.36,-9.152801417473179e-05
3715.26,-9.451349536579547e-05
3716.16,-9.582760149248453e-05
3717.06,-9.632302588166415e-05
3717.96,-9.45644809048509e-05
3718.86,-9.082310467447751e-05
3719.76,-8.574805503899678e-05
3720.66,-8.089692429137282e-05
3721.56,-7.693412265172992e-05
3722.46,-7.584765409872993e-05
3723.36,-7.797182307997085e-05
3724.26,-8.23344457518707e-05
3725.16,-8.726235664563699e-05
3726.06,-9.153150878334987e-05
3726.96,-9.522949025571525e-05
3727.86,-9.728848306389027e-05
3728.76,-9.8272493705263e-05
3729.66,-9.792633860335899e-05
3730.56,-9.681732727227016e-05
3731.46,-9.401330155301583e-05
3732.36,-8.953360702783963e-05
3733.26,-8.408443167517867e-05
3734.16,-7.86011888355613e-05
3735.06,-7.511772130228284e-05
3735.96,-7.370644733791683e-05
3736.86,-7.574179556044342e-05
3737.76,-8.043001349948097e-05
3738.66,-8.679471387477518e-05
3739.56,-9.401035797001206e-05
3740.46,-0.00010051623641302655
3741.36,-0.00010523787785650226
3742.26,-0.00010706734431172316
3743.16,-0.00010624577998371017
3744.06,-0.00010415881390211321
3744.96,-0.00010097943746391817
3745.86,-9.737924152965582e-05
3746.76,-9.260790649127036e-05
3747.67,-8.818113832853477e-05
3748.57,-8.456412807747762e-05
3749.47,-8.210333541807882e-05
3750.37,-8.221581783039755e-05
3751.27,-8.526048926222564e-05
3752.17,-9.212859111194137e-05
3753.07,-0.00010012931459175421
3753.97,-0.00010874040052874119
3754.87,-0.00011548552235182555
3755.77,-0.0001199610256979973
3756.67,-0.00012154994955988546
3757.57,-0.00012113194164280638
3758.47,-0.00011865445022645373
3759.37,-0.00011680030067219348
3760.27,-0.00011610748383730283
3761.17,-0.00011775680704160981
3762.07,-0.0001192837378527752
3762.97,-0.00012237085765088546
3763.87,-0.00012449338706758023
3764.77,-0.00012596317762808272
3765.67,-0.00012588312028603553
3766.57,-0.00012407528662463017
3767.47,-0.0001221822416683795
3768.37,-0.00011949413709110072
3769.27,-0.00011621477788693181
3770.17,-0.0001147234250055361
3771.07,-0.00011455124834570234
3771.97,-0.00011684370922640912
3772.87,-0.00012137174685673446
3773.77,-0.000126726934585969
3774.67,-0.0001329597787779074
3775.57,-0.0001375152279518347
3776.47,-0.0001422538919782342
3777.37,-0.0001472264743122143
3778.27,-0.00015143446064159845
3779.17,-0.00015651482593984602
3780.07,-0.00016051008238261578
3780.97,-0.00016407638578947112
3781.87,-0.00016850146772937852
3782.77,-0.0001700977607705491
3783.67,-0.00017137724280397352
3784.57,-0.00017078878551589528
3785.47,-0.00016792450190103415
3786.38,-0.00016503575626676032
3787.28,-0.00016046598957646362
3788.18,-0.0001577768767850805
3789.08,-0.00015585443064017868
3789.98,-0.00015350915494290296
3790.88,-0.00015284353557597726
3791.78,-0.0001519945102698662
3792.68,-0.0001494804850210051
3793.58,-0.00014688341168107345
3794.48,-0.00014180899177571694
3795.38,-0.00013735106767873178
3796.28,-0.00013082715046927815
3797.18,-0.00012615435566136395
3798.08,-0.0001230801339746242
3798.98,-0.0001230226532034564
3799.88,-0.00012760559845218053
3800.78,-0.00013476722766367862
3801.68,-0.0001457799336434652
3802.58,-0.0001565718461883686
3803.48,-0.0001672676144401213
3804.38,-0.00017522688885899862
3805.28,-0.00018073383618204215
3806.18,-0.0001853495420203515
3807.08,-0.00018699744688499445
3807.98,-0.00018947032785528436
3808.88,-0.00019210401184117416
3809.78,-0.0001950522314981713
3810.68,-0.00019804486539866704
3811.58,-0.00019904125112606022
3812.48,-0.00019688543445496234
3813.38,-0.00019452915855402704
3814.28,-0.00019000275442537464
3815.18,-0.00018712964446756215
3816.08,-0.00018569517994410382
3816.98,-0.00018630597972415353
3817.88,-0.0001873340478065872
3818.78,-0.00018781595603083352
3819.68,-0.00018839100298769968
3820.58,-0.00018736005800347154
3821.48,-0.0001867001603161633
3822.38,-0.00018607863286245466
3823.28,-0.00018437966947053915
3824.18,-0.00018227711125796123
3825.09,-0.0001792078065208916
3825.99,-0.0001750573114945633
3826.89,-0.0001721464773668256
3827.79,-0.00016948476803414748
3828.69,-0.00016720029891825205
3829.59,-0.0001652470323907461
3830.49,-0.0001620165969416958
3831.39,-0.00015847518275992467
3832.29,-0.000151388014935503
3833.19,-0.0001449359036435377
3834.09,-0.0001380054669995054
3834.99,-0.00013313467953064018
3835.89,-0.00013118148668370683
3836.79,-0.00013204365046896088
3837.69,-0.0001354717331471457
3838.59,-0.00014105817012888258
3839.49,-0.000148747815340837
3840.39,-0.00015853993993658402
3841.29,-0.00017029280129500325
3842.19,-0.0001827579188597841
3843.09,-0.00019432477464267504
3843.99,-0.00020616455308032113
3844.89,-0.0002162245499821523
3845.79,-0.00022472019357699726
3846.69,-0.0002310795671744547
3847.59,-0.00023638499333032044
3848.49,-0.0002390308403520134
3849.39,-0.00024310408442571358
3850.29,-0.00024496432756220037
3851.19,-0.0002477580166456684
3852.09,-0.0002512601071220939
3852.99,-0.00025379713176717323
3853.89,-0.00025544392127184803
3854.79,-0.0002565674737043369
3855.69,-0.00025533800803466573
3856.59,-0.0002529368374366439
3857.49,-0.00025082839391116126
3858.39,-0.00024733028441569426
3859.29,-0.00024597827827938374
3860.19,-0.00024604237087910263
3861.09,-0.0002508592739636088
3861.99,-0.00025746511437703493
3862.9,-0.0002644840930824429
3863.8,-0.00027351391066484954
3864.7,-0.0002783076031682529
3865.6,-0.0002817343406779005
3866.5,-0.00028543037087364254
3867.4,-0.000285029165567791
3868.3,-0.00028652676672648395
3869.2,-0.00028542649810628184
3870.1,-0.0002829531421919378
3871.0,-0.0002785596327125559
3871.9,-0.00027512852258346947
3872.8,-0.0002705741572933685
3873.7,-0.0002697595208546858
3874.6,-0.0002707779044902097
3875.5,-0.0002736171245284101
3876.4,-0.0002758254954506838
3877.3,-0.00027569534183568433
3878.2,-0.0002759981593153627
3879.1,-0.0002743406537080837
3880.0,-0.0002733988333301066
3880.9,-0.0002733559717383119
3881.8,-0.0002733412031786098
3882.7,-0.0002717177508478068
3883.6,-0.000268631890584928
3884.5,-0.00026353428763186586
3885.4,-0.0002548176923895592
3886.3,-0.000245230790057423
3887.2,-0.00023413230670095225
3888.1,-0.00022501752549049174
3889.0,-0.00021952150581025116
3889.9,-0.00022024012390244372
3890.8,-0.00022663948199204949
3891.7,-0.00023800860139010468
3892.6,-0.000252495490015778
3893.5,-0.0002660807132801445
3894.4,-0.00027753240002049604
3895.3,-0.0002882513483805099
3896.2,-0.00029792653314020896
3897.1,-0.0003054821648683186
3898.0,-0.0003112315945920891
3898.9,-0.0003194493358606054
3899.8,-0.0003236755511872142
3900.7,-0.00032903334460022575
3901.6,-0.0003336641315570245
3902.51,-0.000336699146610073
3903.41,-0.00033874137464181127
3904.31,-0.0003378422618691145
3905.21,-0.0003390236190812713
3906.11,-0.0003416352391633303
3907.01,-0.00034615906608812327
3907.91,-0.0003519443413767914
3908.81,-0.00036438857386499187
3909.71,-0.00037428622176025923
3910.61,-0.00038446320331151837
3911.51,-0.00039245081899367716
3912.41,-0.00039857286220057085
3913.31,-0.00040065921913432867
3914.21,-0.0004020679466603021
3915.11,-0.000397925726788552
3916.01,-0.0003991985479240103
3916.91,-0.00039420723912770206
3917.81,-0.00039257664269287326
3918.71,-0.00038963070457724943
3919.61,-0.0003856116144115745
3920.51,-0.0003832390625419748
3921.41,-0.0003813871538861889
3922.31,-0.0003810399298565891
3923.21,-0.0003800984078087922
3924.11,-0.00037925306564910185
3925.01,-0.00037490833248770796
3925.91,-0.00036664124865534064
3926.81,-0.00035342681005818655
3927.71,-0.0003358100734183617
3928.61,-0.00031360342707449293
3929.51,-0.0002853351649044306
3930.41,-0.0002554565302584721
3931.31,-0.0002243898104042847
3932.21,-0.00019682913127430619
3933.11,-0.0001735464260998214
3934.01,-0.00015952995705924408
3934.91,-0.00015870012100917968
3935.81,-0.00016939579687749558
3936.71,-0.00019134696213707976
3937.61,-0.00022184552679631618
3938.51,-0.00025771097121399543
3939.42,-0.00029377134910923156
3940.32,-0.0003263650823758896
3941.22,-0.000354179289320499
3942.12,-0.0003748482711210851
3943.02,-0.00038992363680167636
3943.92,-0.0004068229437562617
3944.82,-0.00041869312721819256
3945.72,-0.0004290759464002873
3946.62,-0.0004443598735015538
3947.52,-0.0004546930822977644
3948.42,-0.0004643975982393607
3949.32,-0.0004740512258835194
3950.22,-0.000479241201848331
3951.12,-0.00048705392288952927
3952.02,-0.0004936015213570953
3952.92,-0.0004998824087407346
3953.82,-0.0005014729390728967
3954.72,-0.0005061567614159789
3955.62,-0.0005074652530296867
3956.52,-0.00050723921006586
3957.42,-0.0005061034872434736
3958.32,-0.0005037576669070234
3959.22,-0.0004992930573565187
3960.12,-0.0004893598017362702
3961.02,-0.0004760175859458609
3961.92,-0.00045696982056961507
3962.82,-0.0004320661711768444
3963.72,-0.000403710395549253
3964.62,-0.0003739302105769346
3965.52,-0.00033898417938285706
3966.42,-0.00030340418482534634
3967.32,-0.00026627666263202935
3968.22,-0.00023569441368687832
3969.12,-0.0002178931385807403
3970.02,-0.0002119328494150748
3970.92,-0.00022270839746598461
3971.82,-0.0002488618051748841
3972.72,-0.00028547057601956014
3973.62,-0.00032665718626169265
3974.52,-0.0003716859079350513
3975.42,-0.0004155026369796889
3976.32,-0.00045402460420828223
3977.22,-0.0004945618948974998
3978.13,-0.0005276375177573147
3979.03,-0.0005576325662696671
3979.93,-0.0005819910365485431
3980.83,-0.0005997669355855213
3981.73,-0.0006161499951883161
3982.63,-0.000626874916834529
3983.53,-0.0006378916976749382
3984.43,-0.0006446458350984485
3985.33,-0.0006540002913808672
3986.23,-0.0006625819021024259
3987.13,-0.0006764968115366167
3988.03,-0.0006906017769504912
3988.93,-0.0007007108326308497
3989.83,-0.0007117970038078196
3990.73,-0.0007231679124885846
3991.63,-0.0007322518456677076
3992.53,-0.0007431672377720647
3993.43,-0.0007524632501192089
3994.33,-0.0007546076938721241
3995.23,-0.0007519124556895635
3996.13,-0.0007542032121620684
3997.03,-0.0007505002834909102
3997.93,-0.0007545478393080261
3998.83,-0.000759610203248958
3999.73,-0.0007707638789935865
4000.63,-0.0007872238046372644
4001.53,-0.0008029401419122579
4002.43,-0.0008147713439229544
4003.33,-0.0008173709296103841
4004.23,-0.0008191117952752132
4005.13,-0.0008156529420497234
4006.03,-0.0008127452461718796
4006.93,-0.0008146752818019611
4007.83,-0.0008212418708851994
4008.73,-0.0008354857092660936
4009.63,-0.0008545638350126582
4010.53,-0.0008674291072990854
4011.43,-0.0008801275061864271
4012.33,-0.0008922842000057722
4013.23,-0.0009013878216285099
4014.13,-0.0009128286606321049
4015.03,-0.0009147679231186525
4015.93,-0.0009260670018403148
4016.84,-0.0009293564127517956
4017.74,-0.0009351696928056207
4018.64,-0.0009433734163611187
4019.54,-0.0009539680797521093
4020.44,-0.0009612946505579358
4021.34,-0.000968217337361276
4022.24,-0.000975312597998201
4023.14,-0.0009781548464954874
4024.04,-0.0009872343036696446
4024.94,-0.000994678785643403
4025.84,-0.0010036742413130214
4026.74,-0.0010198364883747353
4027.64,-0.0010259029989618455
4028.54,-0.001028238573425042
4029.44,-0.0010299996246838595
4030.34,-0.0010193326495509761
4031.24,-0.0010060869665475443
4032.14,-0.0009965519929465024
4033.04,-0.0009898662784638473
4033.94,-0.00099674298742365
4034.84,-0.0010118338124989112
4035.74,-0.001037239367642819
4036.64,-0.0010666374181498017
4037.54,-0.001096440421142
4038.44,-0.0011266006226765717
4039.34,-0.0011384206384179626
4040.24,-0.0011513171499182235
4041.14,-0.001154584424515626
4042.04,-0.0011465663383143452
4042.94,-0.001133547112286631
4043.84,-0.0011222565131918947
4044.74,-0.0011091968522245563
4045.64,-0.0010958071888072286
4046.54,-0.0010962424450781916
4047.44,-0.001106557929660692
4048.34,-0.0011327679899150978
4049.24,-0.0011557483052955589
4050.14,-0.0011897177431407597
4051.04,-0.001215187791080889
4051.94,-0.00122446462762993
4052.84,-0.001233526353567303
4053.74,-0.001234836616077051
4054.65,-0.0012295185332216378
4055.55,-0.0012240753014277589
4056.45,-0.0012298430992909413
4057.35,-0.0012317262711611673
4058.25,-0.001239025205236443
4059.15,-0.0012507433329003554
4060.05,-0.0012643688313915106
4060.95,-0.0012711454123245332
4061.85,-0.0012723753600998177
4062.75,-0.0012704415753548412
4063.65,-0.0012600906039044733
4064.55,-0.0012664686301621909
4065.45,-0.0012641708270383386
4066.35,-0.001284404738424754
4067.25,-0.0013037540437395739
4068.15,-0.0013284570853942543
4069.05,-0.0013469472504115906
4069.95,-0.0013624327877292868
4070.85,-0.0013730333985115242
4071.75,-0.0013820321607111719
4072.65,-0.001381416179724592
4073.55,-0.0013804260695906285
4074.45,-0.0013801261035740816
4075.35,-0.0013731509777601756
4076.25,-0.001365355883324222
4077.15,-0.0013553834917914278
4078.05,-0.001345357708003198
4078.95,-0.001363125579217366
4079.85,-0.001384834367199387
4080.75,-0.0014160453701198244
4081.65,-0.001448512953265457
4082.55,-0.0014786898037251726
4083.45,-0.0015091183607131623
4084.35,-0.0015200560507028196
4085.25,-0.001532813105251643
4086.15,-0.0015536723058429448
4087.05,-0.0015755993854388432
4087.95,-0.001604986814080445
4088.85,-0.0016306247944188658
4089.75,-0.00165842578345339
4090.65,-0.0016692607373114357
4091.55,-0.0016770986854715787
4092.45,-0.0016783357969846577
4093.36,-0.0016686770691354328
4094.26,-0.0016411297607145082
4095.16,-0.0016251426445648212
4096.06,-0.0016100843818680688
4096.96,-0.0015656522582962096
4097.86,-0.0015237944052295985
4098.76,-0.0014837362758843232
4099.66,-0.0014190043514028467
4100.56,-0.001366168372830639
4101.46,-0.0013267738716096083
4102.36,-0.001306922940428594
4103.26,-0.0013093377953648107
4104.16,-0.001351515057259874
4105.06,-0.0014218350306325728
4105.96,-0.0014941710402026707
4106.86,-0.0015760015492690045
4107.76,-0.001637397840450288
4108.66,-0.001693733300663862
4109.56,-0.001744935750749545
4110.46,-0.0017780865403255082
4111.36,-0.0018164924076603099
4112.26,-0.0018483945100443528
4113.16,-0.0018803976202105988
4114.06,-0.0019283679007193499
4114.96,-0.0019570206692222374
4115.86,-0.0019929043090060154
4116.76,-0.0020150330032356273
4117.66,-0.0020281571216937367
4118.56,-0.0020352598289737032
4119.46,-0.00203813149914084
4120.36,-0.002052531477948145
4121.26,-0.0020537836137692464
4122.16,-0.0020782580058435903
4123.06,-0.0020947686730735104
4123.96,-0.0021082541111244676
4124.86,-0.0021496793479308563
4125.76,-0.00216534131240204
4126.66,-0.0021832277668921737
4127.56,-0.0021932675411373993
4128.46,-0.0022001688467767973
4129.36,-0.0022032726383426787
4130.26,-0.0022021167243763697
4131.17,-0.0022063961389968702
4132.06,-0.0022070432934099605
4132.97,-0.002219864317361135
4133.87,-0.002222595907192761
4134.77,-0.0022510448617090607
4135.67,-0.0022995902268506435
4136.57,-0.0023529557748470297
4137.47,-0.002404723805418665
4138.37,-0.0024547937017624427
4139.27,-0.002492032560567829
4140.17,-0.0025095353468595903
4141.07,-0.0025204641287217525
4141.97,-0.002511428520086366
4142.87,-0.0024915470002024992
4143.77,-0.0024727506468533622
4144.67,-0.0024781438299752356
4145.57,-0.0024904126751542095
4146.47,-0.0025253724394573925
4147.37,-0.0025836004503665224
4148.27,-0.0026206831079713397
4149.17,-0.0026434457957724674
4150.07,-0.0026834564989518923
4150.97,-0.002693853020311374
4151.87,-0.0027035661389847826
4152.77,-0.002711734222792325
4153.67,-0.0027160283205428363
4154.57,-0.0027261283714992675
4155.47,-0.0027427666075243054
4156.37,-0.0027618701280850504
4157.27,-0.002800176587486303
4158.17,-0.0028509806247636856
4159.07,-0.002872112149508508
4159.97,-0.002934963062171822
4160.87,-0.0029828295348418334
4161.77,-0.003021812440438124
4162.67,-0.003059054818571181
4163.57,-0.0031000706205187743
4164.47,-0.003116355007937604
4165.37,-0.003146125528141018
4166.27,-0.003159202372958851
4167.17,-0.0031662930908324723
4168.07,-0.0031681456910411273
4168.98,-0.003168495157334292
4169.88,-0.0031524542639663885
4170.78,-0.003147527088391804
4171.68,-0.003124625229336291
4172.58,-0.003117764036910178
4173.48,-0.0030878827640200652
4174.38,-0.003082801462449782
4175.28,-0.0031072911169844355
4176.18,-0.0031436898824153225
4177.08,-0.0031978046429570047
4177.98,-0.0032377502078732956
4178.88,-0.0033053420243230273
4179.78,-0.003360871150259447
4180.68,-0.0033968476168697356
4181.58,-0.003449883795465027
4182.48,-0.0034879572536797732
4183.38,-0.0035271291995230742
4184.28,-0.003550437539600686
4185.18,-0.0035863153957109766
4186.08,-0.0036028049261600725
4186.98,-0.003609750069566916
4187.88,-0.003653262061994707
4188.78,-0.003682799710311335
4189.68,-0.003712881170768924
4190.58,-0.003756239678183266
4191.48,-0.0038247444037681237
4192.38,-0.003879933387609299
4193.28,-0.00391491138567614
4194.18,-0.00396347260975099
4195.08,-0.003976718965539327
4195.98,-0.003971115822251256
4196.88,-0.003965392342029555
4197.78,-0.003959547781236224
4198.68,-0.003927094835282452
4199.58,-0.003921377349324469
4200.48,-0.003935068092977527
4201.38,-0.0039594983048712165
4202.28,-0.0040035490130873345
4203.18,-0.004048399710157514
4204.08,-0.004119327043638405
4204.98,-0.004182868539576805
4205.88,-0.0042665817400467715
4206.79,-0.00434076117543511
4207.69,-0.00442594459008966
4208.59,-0.004520136594575503
4209.49,-0.0045715415921164845
4210.39,-0.00462946958776929
4211.29,-0.004674276580757943
4212.19,-0.004701789239023801
4213.09,-0.0047345744416930815
4213.99,-0.00473250498067235
4214.89,-0.004761158073037695
4215.79,-0.004725615877566234
4216.69,-0.0047587078704356195
4217.59,-0.004784927959965132
4218.49,-0.004857567683072659
4219.39,-0.004937235365127317
4220.29,-0.005025869227504912
4221.19,-0.005089596821628657
4222.09,-0.005087035043005526
4222.99,-0.005052617031765651
4223.89,-0.004978574122688809
4224.79,-0.004876605970301657
4225.69,-0.004761804373281602
4226.59,-0.0046967818885443645
4227.49,-0.004678022240298247
4228.39,-0.004769429153062653
4229.29,-0.00490966719254266
4230.19,-0.0050972440331956475
4231.09,-0.005260127318375636
4231.99,-0.005405696496727768
4232.89,-0.005516990144469528
4233.79,-0.0055953847224650575
4234.69,-0.005585098121020281
4235.59,-0.005602393745221815
4236.49,-0.00562679544115392
4237.39,-0.005665285450219855
4238.29,-0.005696528921394773
4239.19,-0.005767628777672182
4240.09,-0.0058535539390685894
4240.99,-0.005973636297075595
4241.89,-0.006041681033460566
4242.79,-0.00614311387544195
4243.69,-0.006228826825512945
4244.59,-0.006342697878712565
4245.5,-0.00634868989993604
4246.4,-0.0063744877835263305
4247.3,-0.006371334703042516
4248.2,-0.006342625921300362
4249.1,-0.006327447225268021
4250.0,-0.0063413568744323445
4250.9,-0.006373748233570304
4251.8,-0.006493972452754811
4252.7,-0.006569745116600176
4253.6,-0.006673359412413502
4254.5,-0.006738931145560263
4255.4,-0.006852278811243009
4256.3,-0.0069498667267317155
4257.2,-0.006975299433987355
4258.1,-0.007034630602250228
4259.0,-0.007051282272546565
4259.9,-0.0071452415222611814
4260.8,-0.007089465955485412
4261.7,-0.007195921857861778
4262.6,-0.007323299450695514
4263.5,-0.007496101282067851
4264.4,-0.007633622140008544
4265.3,-0.00778002208411369
4266.2,-0.007921190341369238
4267.1,-0.007993212072398788
4268.0,-0.0079930704810453
4268.9,-0.007938987933353148
4269.8,-0.007864534088779207
4270.7,-0.007779735675651512
4271.6,-0.007666884724369397
4272.5,-0.007618733998525245
4273.4,-0.007629969360385104
4274.3,-0.007700632869626016
4275.2,-0.00786330348044092
4276.1,-0.00803550676339247
4277.0,-0.008266187259693148
4277.9,-0.00847925458557194
4278.8,-0.008623942827299256
4279.7,-0.008759331588272256
4280.6,-0.008825905872854164
4281.5,-0.008850663057278748
4282.4,-0.008921955375900478
4283.31,-0.008936143974400096
4284.21,-0.008980527587277866
