wave,flux
3700.85,-5.047513317532768e-07
3701.75,-5.004131543715799e-07
3702.65,-4.809249476467507e-07
3703.55,-4.6334601287458414e-07
3704.45,-4.3870395567229765e-07
3705.35,-4.1747044220164017e-07
3706.25,-4.0348677359198033e-07
3707.15,-3.978808404646581e-07
3708.05,-3.9925477333024383e-07
3708.96,-4.0569886951221884e-07
3709.86,-4.1664074710665814e-07
3710.76,-4.310060715926787e-07
3711.66,-4.481135812902149e-07
3712.56,-4.6823803438863595e-07
3713.46,-4.85319278323662e-07
3714.36,-5.060702675835424e-07
3715.26,-5.161973293951285e-07
3716.16,-5.227854213616302e-07
3717.06,-5.180561436296629e-07
3717.96,-4.980577447351235e-07
3718.86,-4.7089110623585854e-07
3719.76,-4.381983314054247e-07
3720.66,-4.0850280791958603e-07
3721.56,-3.8747974544591605e-07
3722.46,-3.831429506480899e-07
3723.36,-3.936446299326703e-07
3724.26,-4.155519277339999e-07
3725.16,-4.4000316505881327e-07
3726.06,-4.622162329141068e-07
3726.96,-4.769623904770014e-07
3727.86,-4.843574031483083e-07
3728.76,-4.84902517986891e-07
3729.66,-4.795088515130126e-07
3730.56,-4.714732350327754e-07
3731.46,-4.559740593348903e-07
3732.36,-4.313775013104495e-07
3733.26,-4.01299341185509e-07
3734.16,-3.727156402646362e-07
3735.06,-3.5043942752906344e-07
3735.96,-3.4203832069207304e-07
3736.86,-3.4592846569725584e-07
3737.76,-3.663019672787177e-07
3738.66,-3.966384904726974e-07
3739.56,-4.3128716813899444e-07
3740.46,-4.600628756817434e-07
3741.36,-4.789133645367327e-07
3742.26,-4.838637320774795e-07
3743.16,-4.785986444722914e-07
3744.06,-4.6562022060527107e-07
3744.96,-4.4621970190422234e-07
3745.86,-4.239966849948984e-07
3746.76,-4.010418737264395e-07
3747.67,-3.804496204134523e-07
3748.57,-3.628884345107314e-07
3749.47,-3.549596660966086e-07
3750.37,-3.580082503708911e-07
3751.27,-3.7713604328841545e-07
3752.17,-4.082830396756079e-07
3753.07,-4.4544877800732405e-07
3753.97,-4.809855749809767e-07
3754.87,-5.084967403507714e-07
3755.77,-5.235169302974136e-07
3756.67,-5.255467519232731e-07
3757.57,-5.163225502291836e-07
3758.47,-4.99009962357978e-07
3759.37,-4.845845912030698e-07
3760.27,-4.785929208853319e-07
3761.17,-4.783443517596241e-07
3762.07,-4.863828584383703e-07
3762.97,-4.975052246620874e-07
3763.87,-5.040502844222468e-07
3764.77,-5.049023466157805e-07
3765.67,-5.091390751672822e-07
3766.57,-5.017185125038556e-07
3767.47,-4.936487445594292e-07
3768.37,-4.847395567400659e-07
3769.27,-4.764507106898142e-07
3770.17,-4.74353981481046e-07
3771.07,-4.78844075113676e-07
3771.97,-4.862502320998373e-07
3772.87,-5.020234631740062e-07
3773.77,-5.221595417457204e-07
3774.67,-5.422604481309735e-07
3775.57,-5.566071574272648e-07
3776.47,-5.711693858724318e-07
3777.37,-5.821678414648651e-07
3778.27,-5.964931355595929e-07
3779.17,-6.071286712193436e-07
3780.07,-6.211916969981685e-07
3780.97,-6.338243369426233e-07
3781.87,-6.462883335296565e-07
3782.77,-6.492855048876549e-07
3783.67,-6.502063638661249e-07
3784.57,-6.425562665015193e-07
3785.47,-6.30793700921404e-07
3786.38,-6.105958315363867e-07
3787.28,-5.896584541854492e-07
3788.18,-5.713023014770104e-07
3789.08,-5.590702413156989e-07
3789.98,-5.466953340447469e-07
3790.88,-5.419363761089814e-07
3791.78,-5.37023753422492e-07
3792.68,-5.330192344353355e-07
3793.58,-5.205261981752031e-07
3794.48,-5.051565012144406e-07
3795.38,-4.867087121391846e-07
3796.28,-4.635270110980832e-07
3797.18,-4.4668072328854183e-07
3798.08,-4.3713369679774946e-07
3798.98,-4.3677640686554486e-07
3799.88,-4.512993984034972e-07
3800.78,-4.770924505879298e-07
3801.68,-5.105809212397642e-07
3802.58,-5.515174811829279e-07
3803.48,-5.810092566737407e-07
3804.38,-6.045697618788605e-07
3805.28,-6.194446049932683e-07
3806.18,-6.239950632599002e-07
3807.08,-6.270593307449618e-07
3807.98,-6.310848350251511e-07
3808.88,-6.332033512871267e-07
3809.78,-6.435772420124547e-07
3810.68,-6.501839899788778e-07
3811.58,-6.455337142965632e-07
3812.48,-6.370821244831087e-07
3813.38,-6.182376787828858e-07
3814.28,-5.974342382966472e-07
3815.18,-5.796298872072953e-07
3816.08,-5.663652304239102e-07
3816.98,-5.647526000501896e-07
3817.88,-5.615519749789542e-07
3818.78,-5.592869325042233e-07
3819.68,-5.558019152159772e-07
3820.58,-5.518384531650185e-07
3821.48,-5.425492820648351e-07
3822.38,-5.372475135983797e-07
3823.28,-5.333548337275107e-07
3824.18,-5.232747965682162e-07
3825.09,-5.107369307250381e-07
3825.99,-4.950000657426693e-07
3826.89,-4.821577256238967e-07
3827.79,-4.715175680987607e-07
3828.69,-4.623847155055861e-07
3829.59,-4.608017659583534e-07
3830.49,-4.518675773382917e-07
3831.39,-4.391013584784587e-07
3832.29,-4.2269363623664924e-07
3833.19,-4.044953738427386e-07
3834.09,-3.8737111743581913e-07
3834.99,-3.7570747522778994e-07
3835.89,-3.7156195462673743e-07
3836.79,-3.7061401110162294e-07
3837.69,-3.795416761176297e-07
3838.59,-3.899013933096796e-07
3839.49,-4.067081603090498e-07
3840.39,-4.2972631417954176e-07
3841.29,-4.586685955418407e-07
3842.19,-4.914448327859269e-07
3843.09,-5.244585159442275e-07
3843.99,-5.574559880384297e-07
3844.89,-5.822175383483564e-07
3845.79,-6.050882385846247e-07
3846.69,-6.210404778176836e-07
3847.59,-6.297490035788461e-07
3848.49,-6.348717903286581e-07
3849.39,-6.403614461475231e-07
3850.29,-6.403081957083988e-07
3851.19,-6.415862099901963e-07
3852.09,-6.507359880293169e-07
3852.99,-6.513066312303336e-07
3853.89,-6.492840439742369e-07
3854.79,-6.457407126279743e-07
3855.69,-6.398748659772901e-07
3856.59,-6.265553978643656e-07
3857.49,-6.127213296507753e-07
3858.39,-5.981648743026283e-07
3859.29,-5.921029973984781e-07
3860.19,-5.88717689563438e-07
3861.09,-5.963984580431858e-07
3861.99,-6.141400114108201e-07
3862.9,-6.34952673941049e-07
3863.8,-6.545516579597336e-07
3864.7,-6.678245177932238e-07
3865.6,-6.735322427506845e-07
3866.5,-6.757121222201628e-07
3867.4,-6.730004473532533e-07
3868.3,-6.71638552290602e-07
3869.2,-6.623436346165013e-07
3870.1,-6.502635382643132e-07
3871.0,-6.383959793869722e-07
3871.9,-6.224778429161286e-07
3872.8,-6.124994556035064e-07
3873.7,-6.0994478953154e-07
3874.6,-6.138376258917882e-07
3875.5,-6.181310418637227e-07
3876.4,-6.222217319145162e-07
3877.3,-6.247676904057645e-07
3878.2,-6.179192158826498e-07
3879.1,-6.129022849526067e-07
3880.0,-6.08719708518754e-07
3880.9,-6.048722085439233e-07
3881.8,-6.033425316053997e-07
3882.7,-5.99535057041974e-07
3883.6,-5.907961914750966e-07
3884.5,-5.788346186834565e-07
3885.4,-5.616788193015486e-07
3886.3,-5.392613396988581e-07
3887.2,-5.153406933050241e-07
3888.1,-4.998062271223638e-07
3889.0,-4.896997988758431e-07
3889.9,-4.929232567588405e-07
3890.8,-5.076467362111769e-07
3891.7,-5.332881613045224e-07
3892.6,-5.615149075627538e-07
3893.5,-5.868784918674713e-07
3894.4,-6.068547327247614e-07
3895.3,-6.235184557786562e-07
3896.2,-6.36619070026563e-07
3897.1,-6.453145407518628e-07
3898.0,-6.602319795279225e-07
3898.9,-6.667863110916095e-07
3899.8,-6.733523370216474e-07
3900.7,-6.805227963070632e-07
3901.6,-6.838498416623288e-07
3902.51,-6.846794087088745e-07
3903.41,-6.799374969523351e-07
3904.31,-6.781339195597151e-07
3905.21,-6.710213816341258e-07
3906.11,-6.715893914661904e-07
3907.01,-6.801033892009964e-07
3907.91,-6.899898552096385e-07
3908.81,-7.149994472283183e-07
3909.71,-7.291234414884962e-07
3910.61,-7.486079288662553e-07
3911.51,-7.638781280012608e-07
3912.41,-7.720045080682395e-07
3913.31,-7.748231289570856e-07
3914.21,-7.703521869720775e-07
3915.11,-7.630285565536768e-07
3916.01,-7.571414131213349e-07
3916.91,-7.448596287863059e-07
3917.81,-7.30689861593975e-07
3918.71,-7.201436348095198e-07
3919.61,-7.040828727501105e-07
3920.51,-6.977259179792776e-07
3921.41,-6.828519704462075e-07
3922.31,-6.738453239991664e-07
3923.21,-6.700330299230474e-07
3924.11,-6.640327655008333e-07
3925.01,-6.50782890402956e-07
3925.91,-6.305949808180837e-07
3926.81,-6.025363218815566e-07
3927.71,-5.618200121908139e-07
3928.61,-5.118768437408021e-07
3929.51,-4.614793767319039e-07
3930.41,-4.069316105016375e-07
3931.31,-3.543394899952746e-07
3932.21,-3.0607436409314947e-07
3933.11,-2.6740813388970645e-07
3934.01,-2.4621167330805674e-07
3934.91,-2.4291913605616686e-07
3935.81,-2.581925113133657e-07
3936.71,-2.91902047822169e-07
3937.61,-3.3799221393570227e-07
3938.51,-3.944497410756945e-07
3939.42,-4.500637909684713e-07
3940.32,-5.02044411902253e-07
3941.22,-5.45216149362909e-07
3942.12,-5.782325527171448e-07
3943.02,-6.041892937921076e-07
3943.92,-6.242497519539566e-07
3944.82,-6.432475590378822e-07
3945.72,-6.636353003546533e-07
3946.62,-6.843432702646733e-07
3947.52,-7.079456455413592e-07
3948.42,-7.246004739149386e-07
3949.32,-7.365263586028274e-07
3950.22,-7.472263398496827e-07
3951.12,-7.600179113381801e-07
3952.02,-7.65019940935308e-07
3952.92,-7.705711334219633e-07
3953.82,-7.73883535205164e-07
3954.72,-7.781418134009228e-07
3955.62,-7.756488829647909e-07
3956.52,-7.723229556743288e-07
3957.42,-7.644474544291319e-07
3958.32,-7.554413265403663e-07
3959.22,-7.425534344087385e-07
3960.12,-7.240251221687481e-07
3961.02,-6.947644449755926e-07
3961.92,-6.551143822610003e-07
3962.82,-6.126597973211418e-07
3963.72,-5.674503888614336e-07
3964.62,-5.183270272230203e-07
3965.52,-4.648753858526493e-07
3966.42,-4.097366876137811e-07
3967.32,-3.61537695653811e-07
3968.22,-3.1925788896762326e-07
3969.12,-2.9329703094428343e-07
3970.02,-2.8691171433046465e-07
3970.92,-3.0355616737784516e-07
3971.82,-3.366738908229265e-07
3972.72,-3.8605298712226786e-07
3973.62,-4.419466854479985e-07
3974.52,-5.026863197493115e-07
3975.42,-5.626084321438032e-07
3976.32,-6.152996961753052e-07
3977.22,-6.660189326619243e-07
3978.13,-7.107973291323379e-07
3979.03,-7.503632924485884e-07
3979.93,-7.797656059150668e-07
3980.83,-8.031329557115066e-07
3981.73,-8.228512907632803e-07
3982.63,-8.306381749369052e-07
3983.53,-8.390557629075313e-07
3984.43,-8.442558739149628e-07
3985.33,-8.549367149495167e-07
3986.23,-8.682282420256423e-07
3987.13,-8.701090403572097e-07
3988.03,-8.847958165830969e-07
3988.93,-9.011928221720834e-07
3989.83,-9.061820806485918e-07
3990.73,-9.178660688175579e-07
3991.63,-9.285647091366126e-07
3992.53,-9.331771498184134e-07
3993.43,-9.358099216825147e-07
3994.33,-9.382391471780034e-07
3995.23,-9.308336993749243e-07
3996.13,-9.178201981844476e-07
3997.03,-9.18599415425241e-07
3997.93,-9.114504362326677e-07
3998.83,-9.165202748787162e-07
3999.73,-9.291548771472775e-07
4000.63,-9.438454983530732e-07
4001.53,-9.562593460246503e-07
4002.43,-9.684265036413192e-07
4003.33,-9.649374625249519e-07
4004.23,-9.541195157873909e-07
4005.13,-9.442414967642157e-07
4006.03,-9.380719462306171e-07
4006.93,-9.319502094587675e-07
4007.83,-9.338885096051659e-07
4008.73,-9.446032333530521e-07
4009.63,-9.576914991286462e-07
4010.53,-9.777514184476518e-07
4011.43,-9.89231748113266e-07
4012.33,-9.997344828059903e-07
4013.23,-1.0070757494971025e-06
4014.13,-1.00954852195688e-06
4015.03,-1.0133606849685062e-06
4015.93,-1.014414890128789e-06
4016.84,-1.0128964059739355e-06
4017.74,-1.0170248838588805e-06
4018.64,-1.0236891745077613e-06
4019.54,-1.0289321538885224e-06
4020.44,-1.0326887036611347e-06
4021.34,-1.0289356157756083e-06
4022.24,-1.0307405990786239e-06
4023.14,-1.0280484311748062e-06
4024.04,-1.0337152318952194e-06
4024.94,-1.0341475944425976e-06
4025.84,-1.0374657299465044e-06
4026.74,-1.0465048653517675e-06
4027.64,-1.0491322067268154e-06
4028.54,-1.0430511911825035e-06
4029.44,-1.0406557502352658e-06
4030.34,-1.0218452614162784e-06
4031.24,-9.962983230044641e-07
4032.14,-9.761101576883127e-07
4033.04,-9.670188958441766e-07
4033.94,-9.633900769216152e-07
4034.84,-9.728325944365753e-07
4035.74,-9.9457730999771e-07
4036.64,-1.025119515812621e-06
4037.54,-1.0518963024638865e-06
4038.44,-1.0729056883538872e-06
4039.34,-1.0873214177084849e-06
4040.24,-1.0876435450969284e-06
4041.14,-1.082162192284082e-06
4042.04,-1.0692679619140373e-06
4042.94,-1.0470639833136216e-06
4043.84,-1.020123233446791e-06
4044.74,-9.983606503390601e-07
4045.64,-9.754584350216952e-07
4046.54,-9.704610860351518e-07
4047.44,-9.734630530407012e-07
4048.34,-9.93542102779796e-07
4049.24,-1.0256176245975148e-06
4050.14,-1.0510442730937458e-06
4051.04,-1.068730829695107e-06
4051.94,-1.0763510495453384e-06
4052.84,-1.0687266058245003e-06
4053.74,-1.0596638055858244e-06
4054.65,-1.0548670655686853e-06
4055.55,-1.0385483527445447e-06
4056.45,-1.032504221639161e-06
4057.35,-1.0239082867992055e-06
4058.25,-1.0256850904444876e-06
4059.15,-1.0241251276825953e-06
4060.05,-1.0350724515347283e-06
4060.95,-1.0342180517367733e-06
4061.85,-1.0308414888208057e-06
4062.75,-1.0155810414144113e-06
4063.65,-1.0070973952326059e-06
4064.55,-1.0005159782584333e-06
4065.45,-9.928965834377316e-07
4066.35,-1.0040427443848326e-06
4067.25,-1.0140226496752236e-06
4068.15,-1.0300578943177863e-06
4069.05,-1.0423947850606435e-06
4069.95,-1.054625971979383e-06
4070.85,-1.0559950516410022e-06
4071.75,-1.0531754733016905e-06
4072.65,-1.0550927735596516e-06
4073.55,-1.044998549941851e-06
4074.45,-1.0357569693780676e-06
4075.35,-1.026852772009991e-06
4076.25,-1.0126510375761908e-06
4077.15,-9.984860243842643e-07
4078.05,-9.893231462579646e-07
4078.95,-9.923233971643628e-07
4079.85,-1.0082048055834648e-06
4080.75,-1.029486334838681e-06
4081.65,-1.046507867787864e-06
4082.55,-1.0687464155460364e-06
4083.45,-1.0796353911512629e-06
4084.35,-1.0886495951561504e-06
4085.25,-1.0923496436111534e-06
4086.15,-1.0995260204924522e-06
4087.05,-1.1108441366076704e-06
4087.95,-1.1337613415260114e-06
4088.85,-1.1459535653184426e-06
4089.75,-1.158431419747344e-06
4090.65,-1.1635642671117756e-06
4091.55,-1.1593881460704181e-06
4092.45,-1.1481501266661177e-06
4093.36,-1.1405636182854284e-06
4094.26,-1.1203348537788487e-06
4095.16,-1.1013552020298211e-06
4096.06,-1.0780037374960822e-06
4096.96,-1.0514600509745454e-06
4097.86,-1.0165103786583903e-06
4098.76,-9.774108446164254e-07
4099.66,-9.409915938723725e-07
4100.56,-9.033706769637763e-07
4101.46,-8.713335157061605e-07
4102.36,-8.578543505223324e-07
4103.26,-8.571521735266451e-07
4104.16,-8.753385168408039e-07
4105.06,-9.11566325090957e-07
4105.96,-9.55688783972945e-07
4106.86,-9.991932555885955e-07
4107.76,-1.0286087640612975e-06
4108.66,-1.055498229919566e-06
4109.56,-1.0700517181800857e-06
4110.46,-1.0811715918462773e-06
4111.36,-1.0947003885337513e-06
4112.26,-1.1048541812399809e-06
4113.16,-1.1210930464176886e-06
4114.06,-1.1353049003837046e-06
4114.96,-1.1542370778720099e-06
4115.86,-1.1600235199069129e-06
4116.76,-1.1664631650755448e-06
4117.66,-1.1640079752076518e-06
4118.56,-1.1594115675994772e-06
4119.46,-1.1492406738507988e-06
4120.36,-1.1460117284024435e-06
4121.26,-1.1438635429148784e-06
4122.16,-1.1461002028113506e-06
4123.06,-1.1456834300306712e-06
4123.96,-1.1494588491057913e-06
4124.86,-1.1559711387466334e-06
4125.76,-1.1606504623942744e-06
4126.66,-1.1651328641457613e-06
4127.56,-1.16390680328946e-06
4128.46,-1.1559619485694836e-06
4129.36,-1.1489267259788776e-06
4130.26,-1.1347706487557346e-06
4131.17,-1.1260276851118092e-06
4132.06,-1.1213355985762915e-06
4132.97,-1.1097028274678412e-06
4133.87,-1.1038588003323543e-06
4134.77,-1.118425345875244e-06
4135.67,-1.1342971858089122e-06
4136.57,-1.1575961936138414e-06
4137.47,-1.1869255362042782e-06
4138.37,-1.2006225757384935e-06
4139.27,-1.2204468642155537e-06
4140.17,-1.2170942054477522e-06
4141.07,-1.2094617034914796e-06
4141.97,-1.1859588466438329e-06
4142.87,-1.168569166590326e-06
4143.77,-1.14738219599013e-06
4144.67,-1.140380165252554e-06
4145.57,-1.142752989798889e-06
4146.47,-1.1519077871760532e-06
4147.37,-1.169927902625481e-06
4148.27,-1.1808759056623793e-06
4149.17,-1.1858172696469451e-06
4150.07,-1.1932227579577742e-06
4150.97,-1.1930228643502566e-06
4151.87,-1.1838948414444526e-06
4152.77,-1.182733753933822e-06
4153.67,-1.1786819454435197e-06
4154.57,-1.1726121256169342e-06
4155.47,-1.1705164899658419e-06
4156.37,-1.1754793929311336e-06
4157.27,-1.1797441005594149e-06
4158.17,-1.1949155078325773e-06
4159.07,-1.2040941002192202e-06
4159.97,-1.2187855862440396e-06
4160.87,-1.2409227288958167e-06
4161.77,-1.256103758825081e-06
4162.67,-1.2559512316932591e-06
4163.57,-1.2679713387485778e-06
4164.47,-1.267293794238913e-06
4165.37,-1.2630473291175037e-06
4166.27,-1.2577205051421728e-06
4167.17,-1.253347119258032e-06
4168.07,-1.2380180675979407e-06
4168.98,-1.233556627211759e-06
4169.88,-1.2210073600057016e-06
4170.78,-1.2010416341551574e-06
4171.68,-1.1872486048379485e-06
4172.58,-1.1685025553007053e-06
4173.48,-1.1454725718875165e-06
4174.38,-1.1367319753799685e-06
4175.28,-1.1363019223127665e-06
4176.18,-1.1424746750377936e-06
4177.08,-1.1534995967255816e-06
4177.98,-1.1698972898597937e-06
4178.88,-1.1843717972577239e-06
4179.78,-1.1914824555754125e-06
4180.68,-1.2031760859879758e-06
4181.58,-1.2055979452115346e-06
4182.48,-1.2184169808977398e-06
4183.38,-1.2246035651146103e-06
4184.28,-1.2212978753356204e-06
4185.18,-1.2254565628704546e-06
4186.08,-1.2225081333571492e-06
4186.98,-1.2245927081677012e-06
4187.88,-1.2252547680680273e-06
4188.78,-1.219147605446981e-06
4189.68,-1.227202664501679e-06
4190.58,-1.2354927036503993e-06
4191.48,-1.2483124235918052e-06
4192.38,-1.2599809615952629e-06
4193.28,-1.2708258340282586e-06
4194.18,-1.269948776013206e-06
4195.08,-1.267853061078858e-06
4195.98,-1.257933007038098e-06
4196.88,-1.2349597102555481e-06
4197.78,-1.2126051307419786e-06
4198.68,-1.1989725777328917e-06
4199.58,-1.1921254768407317e-06
4200.48,-1.1785548993497367e-06
4201.38,-1.179983155289833e-06
4202.28,-1.1854986934631101e-06
4203.18,-1.1948162615270537e-06
4204.08,-1.2166551003396012e-06
4204.98,-1.2282180094577709e-06
4205.88,-1.2444638378830017e-06
4206.79,-1.2609414903440097e-06
4207.69,-1.282256821676083e-06
4208.59,-1.2933662099678142e-06
4209.49,-1.3138556826516222e-06
4210.39,-1.3234052002350787e-06
4211.29,-1.3252830226597003e-06
4212.19,-1.3221321433791532e-06
4213.09,-1.320702878398682e-06
4213.99,-1.3079453724554033e-06
4214.89,-1.2924122843126562e-06
4215.79,-1.2850275952477152e-06
4216.69,-1.2823063228383052e-06
4217.59,-1.2880774232213324e-06
4218.49,-1.3000598526301342e-06
4219.39,-1.316682548690082e-06
4220.29,-1.3314809503324187e-06
4221.19,-1.3341724089507358e-06
4222.09,-1.3256317662604936e-06
4222.99,-1.2994796557038994e-06
4223.89,-1.260456047662258e-06
4224.79,-1.2149951740815319e-06
4225.69,-1.1680324913788741e-06
4226.59,-1.1345185972674715e-06
4227.49,-1.1229335125409748e-06
4228.39,-1.1312787154349466e-06
4229.29,-1.1650474982361776e-06
4230.19,-1.2076541804440211e-06
4231.09,-1.2516869588283304e-06
4231.99,-1.2807619629574951e-06
4232.89,-1.3022104933037435e-06
4233.79,-1.3080876485286721e-06
4234.69,-1.3013107888070205e-06
4235.59,-1.293324824571334e-06
4236.49,-1.2832775711275019e-06
4237.39,-1.2799659857449223e-06
4238.29,-1.2743664837215487e-06
4239.19,-1.2852356191660622e-06
4240.09,-1.2900842141992514e-06
4240.99,-1.3109901635582375e-06
4241.89,-1.331471293854059e-06
4242.79,-1.3461660092201184e-06
4243.69,-1.3553290503037232e-06
4244.59,-1.3631082431549163e-06
4245.5,-1.358878620903235e-06
4246.4,-1.3527133059793256e-06
4247.3,-1.3432553707090113e-06
4248.2,-1.3193188972752436e-06
4249.1,-1.3108624980690939e-06
4250.0,-1.2981201478819659e-06
4250.9,-1.297227190687713e-06
4251.8,-1.2923687719673974e-06
4252.7,-1.3003812426392416e-06
4253.6,-1.3108854724630287e-06
4254.5,-1.318969913145074e-06
4255.4,-1.3258090050230478e-06
4256.3,-1.3285204902127332e-06
4257.2,-1.3304469452155696e-06
4258.1,-1.332810826512889e-06
4259.0,-1.3258840762406674e-06
4259.9,-1.314191531803451e-06
4260.8,-1.3133726257881825e-06
4261.7,-1.3172320449864178e-06
4262.6,-1.3313432485530738e-06
4263.5,-1.3600301134799974e-06
4264.4,-1.3829245763127692e-06
4265.3,-1.4078555053160468e-06
4266.2,-1.4176451757810555e-06
4267.1,-1.4181544473067998e-06
4268.0,-1.4052803647224086e-06
4268.9,-1.374543576339416e-06
4269.8,-1.3474665687134108e-06
4270.7,-1.3071505883613109e-06
4271.6,-1.2736915043909325e-06
4272.5,-1.2440586249100815e-06
4273.4,-1.2390027424799506e-06
4274.3,-1.2436317324615863e-06
4275.2,-1.2589414710657174e-06
4276.1,-1.2855689816188527e-06
