wave,flux
3700.85,-5.1179952981583816e-05
3701.75,-5.0404458797532166e-05
3702.65,-4.875857335725068e-05
3703.55,-4.6110101696151795e-05
3704.45,-4.260833846477319e-05
3705.35,-3.9554924071847735e-05
3706.25,-3.707371548350208e-05
3707.15,-3.5773135556373985e-05
3708.05,-3.560312319906043e-05
3708.96,-3.6794138578078754e-05
3709.86,-3.890400519884489e-05
3710.76,-4.229832572517178e-05
3711.66,-4.61500911187279e-05
3712.56,-4.984806706732266e-05
3713.46,-5.3349557717157085e-05
3714.36,-5.530465297427556e-05
3715.26,-5.579173156612696e-05
3716.16,-5.494361100580093e-05
3717.06,-5.234827017108904e-05
3717.96,-4.861994884938254e-05
3718.86,-4.412822055011102e-05
3719.76,-3.953231751429134e-05
3720.66,-3.5830088330540054e-05
3721.56,-3.3755718499241594e-05
3722.46,-3.4013834201118584e-05
3723.36,-3.618802898601331e-05
3724.26,-3.943475676462785e-05
3725.16,-4.292162521355599e-05
3726.06,-4.583183499529788e-05
3726.96,-4.706511497471079e-05
3727.86,-4.742043110265435e-05
3728.76,-4.757114903573944e-05
3729.66,-4.739721238152977e-05
3730.56,-4.6427646217598585e-05
3731.46,-4.445513413081304e-05
3732.36,-4.1574347434338845e-05
3733.26,-3.7857172551343805e-05
3734.16,-3.431707294323263e-05
3735.06,-3.1471170182331054e-05
3735.96,-3.0068320738644954e-05
3736.86,-3.0491010172385286e-05
3737.76,-3.257612516508712e-05
3738.66,-3.6292792948239944e-05
3739.56,-4.0620314128412586e-05
3740.46,-4.475115325252759e-05
3741.36,-4.752703552889283e-05
3742.26,-4.8031672417033676e-05
3743.16,-4.677636474990964e-05
3744.06,-4.4271418787978034e-05
3744.96,-4.130300373017325e-05
3745.86,-3.8226276031638766e-05
3746.76,-3.5783278053712744e-05
3747.67,-3.398287712161474e-05
3748.57,-3.3307878123691035e-05
3749.47,-3.392891031026094e-05
3750.37,-3.597078135838425e-05
3751.27,-4.013334149401713e-05
3752.17,-4.509991339758727e-05
3753.07,-5.027782711870541e-05
3753.97,-5.5441274218268074e-05
3754.87,-5.8849375442491175e-05
3755.77,-6.0122939574993225e-05
3756.67,-5.9364969034895325e-05
3757.57,-5.6633394908030726e-05
3758.47,-5.363838886559199e-05
3759.37,-5.118371685414066e-05
3760.27,-5.0353436387824765e-05
3761.17,-5.040537099144467e-05
3762.07,-5.124039265722451e-05
3762.97,-5.2705769115268405e-05
3763.87,-5.327679224336132e-05
3764.77,-5.389541622280251e-05
3765.67,-5.428211092046839e-05
3766.57,-5.4820758720014564e-05
3767.47,-5.556816018398803e-05
3768.37,-5.7060588705642685e-05
3769.27,-5.899728078072371e-05
3770.17,-6.173649944929992e-05
3771.07,-6.461239136062889e-05
3771.97,-6.74308770678604e-05
3772.87,-6.984514895928282e-05
3773.77,-7.220836055014255e-05
3774.67,-7.402523632381323e-05
3775.57,-7.486212961697228e-05
3776.47,-7.557720547069376e-05
3777.37,-7.625898366739012e-05
3778.27,-7.760427446236825e-05
3779.17,-7.90775353415739e-05
3780.07,-8.084200540962118e-05
3780.97,-8.337235016318618e-05
3781.87,-8.4956618153598e-05
3782.77,-8.600905167028286e-05
3783.67,-8.579226037245242e-05
3784.57,-8.446187777558463e-05
3785.47,-8.16366537254099e-05
3786.38,-7.786975453197374e-05
3787.28,-7.361448722607682e-05
3788.18,-7.019394828629573e-05
3789.08,-6.740132520776117e-05
3789.98,-6.583032308138457e-05
3790.88,-6.624842646796067e-05
3791.78,-6.657287056680509e-05
3792.68,-6.68690850524411e-05
3793.58,-6.615049004903219e-05
3794.48,-6.55354007650926e-05
3795.38,-6.410677366222211e-05
3796.28,-6.216284773595938e-05
3797.18,-6.119694790024637e-05
3798.08,-6.0560788460150755e-05
3798.98,-6.0892109887002796e-05
3799.88,-6.297991206075942e-05
3800.78,-6.665286387231723e-05
3801.68,-7.17704990007472e-05
3802.58,-7.70153683131816e-05
3803.48,-8.165899540783974e-05
3804.38,-8.494374417343222e-05
3805.28,-8.666342168126046e-05
3806.18,-8.660971010524274e-05
3807.08,-8.64592420157572e-05
3807.98,-8.653765072579528e-05
3808.88,-8.71220598896618e-05
3809.78,-8.846331840526394e-05
3810.68,-8.925335228400287e-05
3811.58,-8.866369395222221e-05
3812.48,-8.650498347973797e-05
3813.38,-8.28692274267078e-05
3814.28,-7.811539251390676e-05
3815.18,-7.414755474156646e-05
3816.08,-7.066552745962394e-05
3816.98,-6.863043868832534e-05
3817.88,-6.747434754208971e-05
3818.78,-6.6496629850255e-05
3819.68,-6.521260604341353e-05
3820.58,-6.373077807464177e-05
3821.48,-6.271610769093329e-05
3822.38,-6.18972336716894e-05
3823.28,-6.131819760545058e-05
3824.18,-6.008380850932909e-05
3825.09,-5.801384485086833e-05
3825.99,-5.5920788675768885e-05
3826.89,-5.431632700082352e-05
3827.79,-5.3609540632256866e-05
3828.69,-5.3601129288752864e-05
3829.59,-5.453250670873814e-05
3830.49,-5.512724199781745e-05
3831.39,-5.519625056115186e-05
3832.29,-5.474927493042149e-05
3833.19,-5.3766674319798946e-05
3834.09,-5.3521639507474406e-05
3834.99,-5.416897156544793e-05
3835.89,-5.4927651992752706e-05
3836.79,-5.549861793757752e-05
3837.69,-5.61824991813465e-05
3838.59,-5.6374021278423663e-05
3839.49,-5.724348538853229e-05
3840.39,-5.942760844100797e-05
3841.29,-6.333280745281367e-05
3842.19,-6.858638866875092e-05
3843.09,-7.536158607542055e-05
3843.99,-8.157337841931108e-05
3844.89,-8.686111228900093e-05
3845.79,-9.054226334030196e-05
3846.69,-9.344128962543369e-05
3847.59,-9.463842760363005e-05
3848.49,-9.493496255380136e-05
3849.39,-9.450697065833174e-05
3850.29,-9.36884441019422e-05
3851.19,-9.351019564211136e-05
3852.09,-9.383025472166965e-05
3852.99,-9.383153820251769e-05
3853.89,-9.344406471119901e-05
3854.79,-9.201441270233802e-05
3855.69,-8.98702321666535e-05
3856.59,-8.744525391168543e-05
3857.49,-8.392195125411152e-05
3858.39,-8.110343202974687e-05
3859.29,-7.940860785194141e-05
3860.19,-7.851050790874727e-05
3861.09,-8.114329554171274e-05
3861.99,-8.579795625715783e-05
3862.9,-9.17239283755869e-05
3863.8,-9.759256288622919e-05
3864.7,-0.00010213671734126314
3865.6,-0.00010440867121703219
3866.5,-0.00010479189915014524
3867.4,-0.0001038684473094173
3868.3,-0.00010218624060324359
3869.2,-0.00010012657390503668
3870.1,-9.665104128344577e-05
3871.0,-9.400236566644874e-05
3871.9,-9.289299721627846e-05
3872.8,-9.374949274123314e-05
3873.7,-9.678526388350268e-05
3874.6,-0.00010081418067008528
3875.5,-0.00010549275231060449
3876.4,-0.00010779572548328946
3877.3,-0.00010836681757323676
3878.2,-0.0001073102592364449
3879.1,-0.00010533355246087454
3880.0,-0.00010394511972300203
3880.9,-0.00010395916750224246
3881.8,-0.00010427008028560054
3882.7,-0.00010569110202781607
3883.6,-0.00010766228654265037
3884.5,-0.00010804894427633148
3885.4,-0.00010788718552044594
3886.3,-0.00010730187063110987
3887.2,-0.00010644682676792446
3888.1,-0.00010704441402206231
3889.0,-0.0001092724055903651
3889.9,-0.00011479149368245946
3890.8,-0.00012245121399420418
3891.7,-0.00013188707398378117
3892.6,-0.00013956343886515853
3893.5,-0.0001447416380987546
3894.4,-0.00014842631422519025
3895.3,-0.000151165901575075
3896.2,-0.0001516034632676916
3897.1,-0.0001521894556406947
3898.0,-0.00015420239017484812
3898.9,-0.00015520880411048257
3899.8,-0.00015552536573878572
3900.7,-0.00015670859965873592
3901.6,-0.0001569582074965923
3902.51,-0.00015614545709486858
3903.41,-0.0001550947626693115
3904.31,-0.00015327838311437404
3905.21,-0.00015320126885570248
3906.11,-0.0001531813673853228
3907.01,-0.00015677591088359818
3907.91,-0.0001630920669634709
3908.81,-0.00017111968900964295
3909.71,-0.00017957781987301596
3910.61,-0.00018736462221996544
3911.51,-0.000193664443667046
3912.41,-0.0001967633081624431
3913.31,-0.0002003608746476554
3914.21,-0.00020078763017116556
3915.11,-0.00019926381123685022
3916.01,-0.0001981941648288233
3916.91,-0.00019488297721788545
3917.81,-0.0001911988772354155
3918.71,-0.00018464595355798682
3919.61,-0.00017773121292000024
3920.51,-0.00017159121727356979
3921.41,-0.0001660478586774977
3922.31,-0.00016212913696379632
3923.21,-0.00016023701680742956
3924.11,-0.00015892762928699242
3925.01,-0.0001569549065724769
3925.91,-0.00015251884739217827
3926.81,-0.0001450303015057448
3927.71,-0.0001357728928181361
3928.61,-0.0001223069310282125
3929.51,-0.00010879828469964524
3930.41,-9.580113438952876e-05
3931.31,-8.394771900299404e-05
3932.21,-7.397144175283368e-05
3933.11,-6.671206343561366e-05
3934.01,-6.285981842576156e-05
3934.91,-6.323948029854364e-05
3935.81,-6.778049071193729e-05
3936.71,-7.644573126792588e-05
3937.61,-8.811637328775316e-05
3938.51,-0.00010217442390786819
3939.42,-0.00011687418166765339
3940.32,-0.0001307528799471564
3941.22,-0.0001417337679319792
3942.12,-0.00015078649975617462
3943.02,-0.00015760731898064814
3943.92,-0.0001641870202444145
3944.82,-0.00017255273855012722
3945.72,-0.00018230881449291748
3946.62,-0.00019262177239084806
3947.52,-0.000203977734975245
3948.42,-0.00021533687382936116
3949.32,-0.00022677906269627157
3950.22,-0.00023584771533162314
3951.12,-0.0002438846711730397
3952.02,-0.00024958124566673914
3952.92,-0.0002535272031007565
3953.82,-0.00025632728123289677
3954.72,-0.00025683937355081216
3955.62,-0.00025963713009682134
3956.52,-0.0002577862392315176
3957.42,-0.0002556614041626355
3958.32,-0.0002513047406177759
3959.22,-0.0002456883334546207
3960.12,-0.0002347504466511445
3961.02,-0.00022186592759460368
3961.92,-0.0002063371187523526
3962.82,-0.00018985283371342803
3963.72,-0.000173136730655641
3964.62,-0.00015728986592164135
3965.52,-0.0001414848309121862
3966.42,-0.0001269735062234901
3967.32,-0.00011370790936369479
3968.22,-0.00010300173233148235
3969.12,-9.70140722120938e-05
3970.02,-9.72207841981245e-05
3970.92,-0.00010477364043924482
3971.82,-0.0001183765848367505
3972.72,-0.00013592746840158836
3973.62,-0.0001578445774107883
3974.52,-0.00018055678253055144
3975.42,-0.00020537876254583543
3976.32,-0.00022832987936156015
3977.22,-0.0002509182343074757
3978.13,-0.0002732173750295967
3979.03,-0.00029422206780063074
3979.93,-0.0003111751041172248
3980.83,-0.0003261082524105871
3981.73,-0.00033476268074470107
3982.63,-0.00034256336273872555
3983.53,-0.0003473454414961237
3984.43,-0.00035184390507759676
3985.33,-0.0003576591623560765
3986.23,-0.0003644454748739361
3987.13,-0.00037374590941631984
3988.03,-0.00038011671010337595
3988.93,-0.0003885808759593533
3989.83,-0.0003967944118900917
3990.73,-0.0004037087858968404
3991.63,-0.0004085635840984791
3992.53,-0.00041321992862048285
3993.43,-0.0004185594383463529
3994.33,-0.00042270472688667594
3995.23,-0.0004201409744707966
3996.13,-0.00042049137447448793
3997.03,-0.0004209768706788763
3997.93,-0.00042266114497977304
3998.83,-0.0004286237132573139
3999.73,-0.0004411708475263977
4000.63,-0.00045136557624836056
4001.53,-0.0004616387396509088
4002.43,-0.0004701394509385705
4003.33,-0.0004699111912969817
4004.23,-0.000466371553882297
4005.13,-0.00046153644628048844
4006.03,-0.00045278336223722525
4006.93,-0.0004523681958469484
4007.83,-0.0004568017513408177
4008.73,-0.000466613676648458
4009.63,-0.00047920287725039453
4010.53,-0.00049334107055172
4011.43,-0.0005071626344126774
4012.33,-0.000514451907117932
4013.23,-0.0005243092596460192
4014.13,-0.0005331669226914735
4015.03,-0.000536783800152917
4015.93,-0.0005441768927985914
4016.84,-0.0005482495900764574
4017.74,-0.00055261109614487
4018.64,-0.0005552256684083922
4019.54,-0.0005610182650917162
4020.44,-0.0005670387791552835
4021.34,-0.0005709517379911213
4022.24,-0.0005744155735480643
4023.14,-0.0005764553105020976
4024.04,-0.0005768214667182692
4024.94,-0.0005818857767491062
4025.84,-0.0005856523526162738
4026.74,-0.0005923316359248766
4027.64,-0.0005997581491452457
4028.54,-0.0005994053894203654
4029.44,-0.0005925886041056659
4030.34,-0.0005773737895754985
4031.24,-0.0005619336781959412
4032.14,-0.000541434712118416
4033.04,-0.0005281005327478174
4033.94,-0.0005260698582840673
4034.84,-0.0005358583252844461
4035.74,-0.0005574629176542808
4036.64,-0.0005857861327739314
4037.54,-0.0006166160775101347
4038.44,-0.0006438568991427207
4039.34,-0.0006647115460288969
4040.24,-0.000671277789091068
4041.14,-0.0006715383918186134
4042.04,-0.0006641535393897281
4042.94,-0.0006411416242559848
4043.84,-0.0006210163558043183
4044.74,-0.0005939485749554316
4045.64,-0.0005730245787561711
4046.54,-0.000563855021526355
4047.44,-0.0005733052777722703
4048.34,-0.0005973102047168658
4049.24,-0.0006280663520871131
4050.14,-0.0006660306906248631
4051.04,-0.0006946570630714478
4051.94,-0.0007068980644491667
4052.84,-0.0007138581043055581
4053.74,-0.0007139943354375531
4054.65,-0.0007034451400314807
4055.55,-0.0006939535985681158
4056.45,-0.000685204130548824
4057.35,-0.0006795928530972585
4058.25,-0.000677128556270903
4059.15,-0.0006810934414755221
4060.05,-0.0006845650612283468
4060.95,-0.0006884063408598618
4061.85,-0.0006824225995006692
4062.75,-0.0006739668347318712
4063.65,-0.0006640586906088994
4064.55,-0.0006585949458093564
4065.45,-0.0006589349198284542
4066.35,-0.0006763059477819463
4067.25,-0.0006965186095211083
4068.15,-0.0007246142722134414
4069.05,-0.0007416090519952817
4069.95,-0.0007557532102710708
4070.85,-0.000764723475013833
4071.75,-0.0007640447799838982
4072.65,-0.0007641530434680245
4073.55,-0.0007684650046170047
4074.45,-0.0007705444359864089
4075.35,-0.0007707343813603047
4076.25,-0.00077010864822775
4077.15,-0.000764362337572469
4078.05,-0.0007699954331803933
4078.95,-0.0007849742775110582
4079.85,-0.0008100345488371032
4080.75,-0.0008434201078212841
4081.65,-0.0008736211457124642
4082.55,-0.0009022862308176375
4083.45,-0.0009185699794365305
4084.35,-0.0009290445810744043
4085.25,-0.0009390660878401793
4086.15,-0.000959168699186255
4087.05,-0.0009800864909632462
4087.95,-0.001007720409503689
4088.85,-0.0010310784906677189
4089.75,-0.0010524686330793316
4090.65,-0.0010639270002250172
4091.55,-0.0010622846536466734
4092.45,-0.001059308294053755
4093.36,-0.0010515324582340386
4094.26,-0.0010389118658893932
4095.16,-0.0010236329144763096
4096.06,-0.001003573927990146
4096.96,-0.000978788381981368
4097.86,-0.0009598910267142422
4098.76,-0.0009346577108690042
4099.66,-0.0009158705108770958
4100.56,-0.0008974057030634488
4101.46,-0.0008817498021918691
4102.36,-0.0008793475932336887
4103.26,-0.0008872466348668494
4104.16,-0.0009208568560550063
4105.06,-0.0009601775927243351
4105.96,-0.001003175189162793
4106.86,-0.001042248806030763
4107.76,-0.00108058483124055
4108.66,-0.0011014857539025243
4109.56,-0.0011136892356167563
4110.46,-0.0011239594850236529
4111.36,-0.0011332044430563465
4112.26,-0.0011436663807682813
4113.16,-0.0011620428630772324
4114.06,-0.0011817859330499542
4114.96,-0.0012055066956876794
4115.86,-0.0012236888841096266
4116.76,-0.001238919170264523
4117.66,-0.001239930102724052
4118.56,-0.0012410821848425134
4119.46,-0.0012387749217201204
4120.36,-0.0012392617366434858
4121.26,-0.001237353823669442
4122.16,-0.0012477353021170569
4123.06,-0.0012624953492156833
4123.96,-0.0012748273187031096
4124.86,-0.001292498753900665
4125.76,-0.0013021021975639204
4126.66,-0.0013116896408684276
4127.56,-0.0013147417755902601
4128.46,-0.0013046443996988153
4129.36,-0.0012925297866560206
4130.26,-0.0012803741671428173
4131.17,-0.0012593299547507385
4132.06,-0.001245079385959814
4132.97,-0.001237889225295852
4133.87,-0.0012394792927087007
4134.77,-0.0012691295382295641
4135.67,-0.001303391106146637
4136.57,-0.0013480043787249699
4137.47,-0.0013983738825606466
4138.37,-0.001443604736043359
4139.27,-0.0014714915553133252
4140.17,-0.0014750543761900177
4141.07,-0.001463571424225171
4141.97,-0.00143269223014576
4142.87,-0.0013995899165250843
4143.77,-0.001374957061725514
4144.67,-0.0013620673574230523
4145.57,-0.0013645211977859418
4146.47,-0.001388106729810329
4147.37,-0.001425734041616888
4148.27,-0.001466567928460683
4149.17,-0.0014916291265264932
4150.07,-0.0015081792300967204
4150.97,-0.001509532176636258
4151.87,-0.001506956755903397
4152.77,-0.0015062176791421605
4153.67,-0.0015071122944910313
4154.57,-0.0015102982085060705
4155.47,-0.0015255647609871237
4156.37,-0.001536965437909506
4157.27,-0.0015638025290165489
4158.17,-0.0015976191495434477
4159.07,-0.001649129504171945
4159.97,-0.0016952601388902486
4160.87,-0.0017417612650128186
4161.77,-0.0017856046379518692
4162.67,-0.00181928608697751
4163.57,-0.0018461746308463722
4164.47,-0.001854643998319492
4165.37,-0.0018567623822221652
4166.27,-0.0018489557574848119
4167.17,-0.0018329238086018092
4168.07,-0.0018300391228231983
4168.98,-0.0018233859424602534
4169.88,-0.001820328174744944
4170.78,-0.001803879452666071
4171.68,-0.0017852094839374908
4172.58,-0.0017671627686159771
4173.48,-0.001752820147606641
4174.38,-0.0017418318704343818
4175.28,-0.001744502938758607
4176.18,-0.0017665360254109253
4177.08,-0.0017943943932962057
4177.98,-0.001828062094955852
4178.88,-0.0018612514129858404
4179.78,-0.001895333201026501
4180.68,-0.0019251971670554977
4181.58,-0.0019562183068410387
4182.48,-0.001976423578548867
4183.38,-0.002004801451015669
4184.28,-0.002046357124898683
4185.18,-0.0020593689934060512
4186.08,-0.002071988996046143
4186.98,-0.002085520412383195
4187.88,-0.002097499791316721
4188.78,-0.002109390448216109
4189.68,-0.0021396998757603524
4190.58,-0.002164444771666614
4191.48,-0.002213241922800873
4192.38,-0.0022546062430992644
4193.28,-0.002292346783608388
4194.18,-0.0023111262735667688
4195.08,-0.00230076230835279
4195.98,-0.0022731837979585627
4196.88,-0.002242154316023004
4197.78,-0.0022018034722528943
4198.68,-0.0021721617436427395
4199.58,-0.0021503722481547487
4200.48,-0.002147575472837734
4201.38,-0.002174900474948689
4202.28,-0.0022083952116464813
4203.18,-0.0022727253975122277
4204.08,-0.002343736101951596
4204.98,-0.0024123084014149444
4205.88,-0.0025097323603409673
4206.79,-0.0025980613775577455
4207.69,-0.0026690545213335867
4208.59,-0.002735880510090169
4209.49,-0.0027839277222322313
4210.39,-0.002804800363877911
4211.29,-0.0028389577768992463
4212.19,-0.0028384309508225083
4213.09,-0.002831068620363656
4213.99,-0.002816071225850791
4214.89,-0.002816738431780003
4215.79,-0.002814902875810375
4216.69,-0.0028425623333467155
4217.59,-0.0028885266460919037
4218.49,-0.002972944139222189
4219.39,-0.003066550823698211
4220.29,-0.0031237320295157663
4221.19,-0.0031534229770378264
4222.09,-0.0031395330638478713
4222.99,-0.0030722829570678013
4223.89,-0.0029344451917538115
4224.79,-0.0027583502644512813
4225.69,-0.002600384834083073
4226.59,-0.0024811044334891817
4227.49,-0.0024410357655001136
4228.39,-0.0024983077789248243
4229.29,-0.00262951571822731
4230.19,-0.002810907784218828
4231.09,-0.0029989323145754843
4231.99,-0.0031713757751702454
4232.89,-0.003278710532687873
4233.79,-0.003334639157118264
4234.69,-0.003349537970736376
4235.59,-0.003347523291022242
4236.49,-0.0033439676909634325
4237.39,-0.003366022556607689
4238.29,-0.0033990591828184594
4239.19,-0.0034633080790707044
4240.09,-0.0035399907609431802
4240.99,-0.0036540453469267827
4241.89,-0.003766853082708367
4242.79,-0.0038844183066022117
4243.69,-0.0039840710092878175
4244.59,-0.004063640444369136
4245.5,-0.004115067719687558
4246.4,-0.004137367530011961
4247.3,-0.0040999714614927425
4248.2,-0.004025676424811415
4249.1,-0.003948053922573059
4250.0,-0.003851089503873744
4250.9,-0.0038167902023848355
4251.8,-0.003818590520260907
4252.7,-0.003829265079713844
4253.6,-0.0038927792220718118
4254.5,-0.003931250462811367
4255.4,-0.004012474003031393
4256.3,-0.004074154234621076
4257.2,-0.004160739758313144
4258.1,-0.004182754544998656
4259.0,-0.004176184031737397
4259.9,-0.004217690671221627
4260.8,-0.004220924880688262
4261.7,-0.004274603384601949
4262.6,-0.004403808686441554
4263.5,-0.004588987666596691
4264.4,-0.004774134138183388
4265.3,-0.004966076087566521
4266.2,-0.005056903294531107
4267.1,-0.005095561042948814
4268.0,-0.0050495869886982535
4268.9,-0.004932688771151451
4269.8,-0.0047486940381494544
4270.7,-0.004557031032048064
4271.6,-0.004372155025816327
4272.5,-0.004219380421594344
4273.4,-0.004162170291527927
4274.3,-0.004206181729741487
4275.2,-0.004345864481234315
4276.1,-0.004549788332071625
4277.0,-0.0048177622069861216
4277.9,-0.00506150088651049
4278.8,-0.005278707747468103
4279.7,-0.005422565128064307
4280.6,-0.0055074202249393595
4281.5,-0.005566775886407075
4282.4,-0.00556686490563626
4283.31,-0.00560583100744075
