wave,flux
3700.85,-6.010934478359355e-07
3701.75,-5.894540880944039e-07
3702.65,-5.66106885708174e-07
3703.55,-5.296930443944471e-07
3704.45,-4.915916353762443e-07
3705.35,-4.5434694766900433e-07
3706.25,-4.251330987601732e-07
3707.15,-4.0981131897575094e-07
3708.05,-4.0761325151478e-07
3708.96,-4.1899626269369804e-07
3709.86,-4.4349673330904153e-07
3710.76,-4.783233787982544e-07
3711.66,-5.207037590630202e-07
3712.56,-5.648355457807913e-07
3713.46,-6.012257051306186e-07
3714.36,-6.234724528490952e-07
3715.26,-6.301767865335674e-07
3716.16,-6.151005905850152e-07
3717.06,-5.818760485106694e-07
3717.96,-5.385264426047662e-07
3718.86,-4.82331409977508e-07
3719.76,-4.3163453655928495e-07
3720.66,-3.8753762736980623e-07
3721.56,-3.6599671784905754e-07
3722.46,-3.677896922275105e-07
3723.36,-3.9166658853951994e-07
3724.26,-4.2772492928500605e-07
3725.16,-4.656729722451953e-07
3726.06,-4.949835822566054e-07
3726.96,-5.111034006103256e-07
3727.86,-5.193165459573167e-07
3728.76,-5.151265432285021e-07
3729.66,-5.094761937213714e-07
3730.56,-4.972929490811295e-07
3731.46,-4.759806909706254e-07
3732.36,-4.4296236703845016e-07
3733.26,-4.0164147750004066e-07
3734.16,-3.601078563008811e-07
3735.06,-3.282197079136843e-07
3735.96,-3.1214578195878375e-07
3736.86,-3.1436177508284956e-07
3737.76,-3.3769904083446936e-07
3738.66,-3.767282923729568e-07
3739.56,-4.229153492247048e-07
3740.46,-4.6260857304167243e-07
3741.36,-4.887710219037816e-07
3742.26,-4.952683189895671e-07
3743.16,-4.793399243807984e-07
3744.06,-4.521576504256521e-07
3744.96,-4.1913534953183483e-07
3745.86,-3.8737375497202533e-07
3746.76,-3.600956558527727e-07
3747.67,-3.4268411457724945e-07
3748.57,-3.3621058409707306e-07
3749.47,-3.409285869079094e-07
3750.37,-3.646740805883874e-07
3751.27,-4.0508565430520825e-07
3752.17,-4.5775256647928885e-07
3753.07,-5.119278121297598e-07
3753.97,-5.62844250288934e-07
3754.87,-5.945371618938794e-07
3755.77,-6.041551469246694e-07
3756.67,-5.923119678046337e-07
3757.57,-5.675050227597881e-07
3758.47,-5.322651373039594e-07
3759.37,-5.070704021226723e-07
3760.27,-4.963193116901012e-07
3761.17,-4.987302317424892e-07
3762.07,-5.06917338321368e-07
3762.97,-5.162972126191549e-07
3763.87,-5.2271704891026e-07
3764.77,-5.289276345762446e-07
3765.67,-5.333032475265628e-07
3766.57,-5.369279910366408e-07
3767.47,-5.475998215386408e-07
3768.37,-5.635917137367611e-07
3769.27,-5.839460124850086e-07
3770.17,-6.1038883875886e-07
3771.07,-6.356362382971943e-07
3771.97,-6.656890133948134e-07
3772.87,-6.883256255759446e-07
3773.77,-7.077004309299504e-07
3774.67,-7.209547724733515e-07
3775.57,-7.263833085014156e-07
3776.47,-7.29645389415041e-07
3777.37,-7.384005516257498e-07
3778.27,-7.465969772508203e-07
3779.17,-7.588714417170013e-07
3780.07,-7.752583957986787e-07
3780.97,-7.910249704392354e-07
3781.87,-8.049231652348855e-07
3782.77,-8.135994945117948e-07
3783.67,-8.078615030889534e-07
3784.57,-7.962455408049386e-07
3785.47,-7.668654808889086e-07
3786.38,-7.288529192221517e-07
3787.28,-6.87108489262763e-07
3788.18,-6.510964856728912e-07
3789.08,-6.267105898866522e-07
3789.98,-6.134703060941105e-07
3790.88,-6.148605983479375e-07
3791.78,-6.166322315734334e-07
3792.68,-6.170439196672799e-07
3793.58,-6.122742838313981e-07
3794.48,-6.041835817913541e-07
3795.38,-5.871062985030145e-07
3796.28,-5.749771496903265e-07
3797.18,-5.582694878812269e-07
3798.08,-5.536626147525151e-07
3798.98,-5.567528799344416e-07
3799.88,-5.757666323260799e-07
3800.78,-6.064481684209902e-07
3801.68,-6.5234523405184e-07
3802.58,-6.974109464278132e-07
3803.48,-7.374448986098908e-07
3804.38,-7.646017633703704e-07
3805.28,-7.796420868735475e-07
3806.18,-7.745793664734683e-07
3807.08,-7.707675544091346e-07
3807.98,-7.663020075957038e-07
3808.88,-7.685229259518882e-07
3809.78,-7.72895810661132e-07
3810.68,-7.807636298633827e-07
3811.58,-7.712694484796774e-07
3812.48,-7.502763164611978e-07
3813.38,-7.170480254001583e-07
3814.28,-6.753267533001094e-07
3815.18,-6.328181367796679e-07
3816.08,-6.00840052694909e-07
3816.98,-5.826085563488158e-07
3817.88,-5.696639637699394e-07
3818.78,-5.580497128531971e-07
3819.68,-5.477275651721636e-07
3820.58,-5.342568089201772e-07
3821.48,-5.223898477428315e-07
3822.38,-5.133013155178938e-07
3823.28,-5.076606830472136e-07
3824.18,-4.946002172176934e-07
3825.09,-4.779516646644533e-07
3825.99,-4.6185097196212704e-07
3826.89,-4.4804687713916507e-07
3827.79,-4.3985808006645767e-07
3828.69,-4.420059634297638e-07
3829.59,-4.468997808984702e-07
3830.49,-4.511067391213781e-07
3831.39,-4.523486399251027e-07
3832.29,-4.488417540009308e-07
3833.19,-4.415502975113986e-07
3834.09,-4.3987115997910593e-07
3834.99,-4.419750772295006e-07
3835.89,-4.472363892095396e-07
3836.79,-4.516267116650994e-07
3837.69,-4.564898085343352e-07
3838.59,-4.561290969288103e-07
3839.49,-4.610803801523054e-07
3840.39,-4.771639563851433e-07
3841.29,-5.078280386346196e-07
3842.19,-5.502151885013177e-07
3843.09,-6.028901672649569e-07
3843.99,-6.534071612031382e-07
3844.89,-6.947078113127231e-07
3845.79,-7.222356846185612e-07
3846.69,-7.431124884146631e-07
3847.59,-7.487838498288041e-07
3848.49,-7.486929264058106e-07
3849.39,-7.437660933623226e-07
3850.29,-7.334227353047723e-07
3851.19,-7.310274078759525e-07
3852.09,-7.288348086923047e-07
3852.99,-7.288654907260335e-07
3853.89,-7.242832595532164e-07
3854.79,-7.098661894117795e-07
3855.69,-6.91974512401155e-07
3856.59,-6.639998391382258e-07
3857.49,-6.361950524667744e-07
3858.39,-6.098374636473867e-07
3859.29,-5.922019267903944e-07
3860.19,-5.880548024528343e-07
3861.09,-6.055914429167238e-07
3861.99,-6.400285579267123e-07
3862.9,-6.862317119999674e-07
3863.8,-7.256579877694866e-07
3864.7,-7.55201380297933e-07
3865.6,-7.723367498017383e-07
3866.5,-7.79456176006201e-07
3867.4,-7.693209296246613e-07
3868.3,-7.604957842528902e-07
3869.2,-7.385497654325475e-07
3870.1,-7.155264539337362e-07
3871.0,-6.972339858244741e-07
3871.9,-6.844551953235437e-07
3872.8,-6.870860707483021e-07
3873.7,-7.072297566225644e-07
3874.6,-7.320290859253386e-07
3875.5,-7.571346582710566e-07
3876.4,-7.747490087109669e-07
3877.3,-7.750530191486045e-07
3878.2,-7.65224407814548e-07
3879.1,-7.516473400243815e-07
3880.0,-7.434585799603142e-07
3880.9,-7.366645585402468e-07
3881.8,-7.422614340953573e-07
3882.7,-7.494202699776197e-07
3883.6,-7.598783643671399e-07
3884.5,-7.689112680890607e-07
3885.4,-7.634254782931694e-07
3886.3,-7.543613324343011e-07
3887.2,-7.483986423924341e-07
3888.1,-7.498916418363091e-07
3889.0,-7.678204570780013e-07
3889.9,-8.040287807984652e-07
3890.8,-8.574819711265312e-07
3891.7,-9.157206786914809e-07
3892.6,-9.67087299713744e-07
3893.5,-9.99260197225358e-07
3894.4,-1.0168664955456869e-06
3895.3,-1.0303156653038596e-06
3896.2,-1.029639602044726e-06
3897.1,-1.0299492547401738e-06
3898.0,-1.0285260392572586e-06
3898.9,-1.0343868055763253e-06
3899.8,-1.0368003747400068e-06
3900.7,-1.03229971652574e-06
3901.6,-1.0333336670937453e-06
3902.51,-1.0299770416442119e-06
3903.41,-1.0154008153447824e-06
3904.31,-1.01068362908524e-06
3905.21,-1.0022606126250957e-06
3906.11,-1.003926109980646e-06
3907.01,-1.0225561095417242e-06
3907.91,-1.05795321663821e-06
3908.81,-1.1096157424675159e-06
3909.71,-1.1598524372697282e-06
3910.61,-1.2128905398404417e-06
3911.51,-1.2429766636039213e-06
3912.41,-1.2747584360528992e-06
3913.31,-1.2828269670808668e-06
3914.21,-1.2843590428489087e-06
3915.11,-1.281892377446006e-06
3916.01,-1.257448281831754e-06
3916.91,-1.2322622747649906e-06
3917.81,-1.1990871572550355e-06
3918.71,-1.1579376203526472e-06
3919.61,-1.1130437314546196e-06
3920.51,-1.0650858138577374e-06
3921.41,-1.0259729450809313e-06
3922.31,-9.960665921812223e-07
3923.21,-9.802791241056822e-07
3924.11,-9.724003024280054e-07
3925.01,-9.551756995880666e-07
3925.91,-9.274398825031181e-07
3926.81,-8.811191523023779e-07
3927.71,-8.213742594049411e-07
3928.61,-7.378581695116721e-07
3929.51,-6.562851552845516e-07
3930.41,-5.777540865182792e-07
3931.31,-5.062636349929492e-07
3932.21,-4.4350849996266707e-07
3933.11,-4.0018829141927144e-07
3934.01,-3.783935396102816e-07
3934.91,-3.791253542352282e-07
3935.81,-4.053376182355112e-07
3936.71,-4.541214571842715e-07
3937.61,-5.223654574986908e-07
3938.51,-6.056806819363215e-07
3939.42,-6.880400675619575e-07
3940.32,-7.645160039754605e-07
3941.22,-8.224435907649146e-07
3942.12,-8.751988222957646e-07
3943.02,-9.126723899025939e-07
3943.92,-9.52928581899852e-07
3944.82,-9.955954722982171e-07
3945.72,-1.0451646424767091e-06
3946.62,-1.1031805064539064e-06
3947.52,-1.1685950468045654e-06
3948.42,-1.232317871350957e-06
3949.32,-1.2899406582029423e-06
3950.22,-1.3357123876649826e-06
3951.12,-1.3703522175737283e-06
3952.02,-1.3988269374501225e-06
3952.92,-1.4279702125255575e-06
3953.82,-1.43693335200855e-06
3954.72,-1.4398462123089715e-06
3955.62,-1.444058413705944e-06
3956.52,-1.4325633716934373e-06
3957.42,-1.414165390958029e-06
3958.32,-1.3792110712390385e-06
3959.22,-1.3401424536311306e-06
3960.12,-1.2759728246372524e-06
3961.02,-1.2006001449534828e-06
3961.92,-1.1156839153343662e-06
3962.82,-1.0196316591272454e-06
3963.72,-9.243065488650549e-07
3964.62,-8.416784621963231e-07
3965.52,-7.605993246699581e-07
3966.42,-6.793575725506156e-07
3967.32,-6.065998968971657e-07
3968.22,-5.49689070307968e-07
3969.12,-5.190127456257421e-07
3970.02,-5.189942236383864e-07
3970.92,-5.561749026727845e-07
3971.82,-6.275871801917604e-07
3972.72,-7.205025995830448e-07
3973.62,-8.332441035395737e-07
3974.52,-9.557933280640632e-07
3975.42,-1.0822629907842466e-06
3976.32,-1.1998984643314932e-06
3977.22,-1.3176233200038174e-06
3978.13,-1.42877576570585e-06
3979.03,-1.5285466018633644e-06
3979.93,-1.6093336275493956e-06
3980.83,-1.6695684473273667e-06
3981.73,-1.71818603013855e-06
3982.63,-1.7495517002263982e-06
3983.53,-1.7650123404431568e-06
3984.43,-1.7871955089841655e-06
3985.33,-1.8101750796069749e-06
3986.23,-1.8387682713870387e-06
3987.13,-1.8773939413860835e-06
3988.03,-1.913858327386097e-06
3988.93,-1.9413073412888177e-06
3989.83,-1.973253816143505e-06
3990.73,-1.988802692647566e-06
3991.63,-2.020378067824736e-06
3992.53,-2.0355382517199473e-06
3993.43,-2.0647244520315804e-06
3994.33,-2.050802998002051e-06
3995.23,-2.046478240584463e-06
3996.13,-2.0359816163496826e-06
3997.03,-2.0327010307537104e-06
3997.93,-2.0335991111544575e-06
3998.83,-2.0452191001302734e-06
3999.73,-2.092983231040773e-06
4000.63,-2.138856549280877e-06
4001.53,-2.1857812981104607e-06
4002.43,-2.2131333652787364e-06
4003.33,-2.213842784886977e-06
4004.23,-2.194678529037512e-06
4005.13,-2.1555224307598785e-06
4006.03,-2.1105273539648535e-06
4006.93,-2.099407222164046e-06
4007.83,-2.111689234670417e-06
4008.73,-2.1567528509265063e-06
4009.63,-2.2130406870374856e-06
4010.53,-2.272271803590422e-06
4011.43,-2.3247053484512867e-06
4012.33,-2.354612401700575e-06
4013.23,-2.3885870743724376e-06
4014.13,-2.4168788499818674e-06
4015.03,-2.4254979498279366e-06
4015.93,-2.4522585622100265e-06
4016.84,-2.467629191896601e-06
4017.74,-2.465252064114675e-06
4018.64,-2.469907299720892e-06
4019.54,-2.4853298367496178e-06
4020.44,-2.501319631338073e-06
4021.34,-2.5129601573363137e-06
4022.24,-2.517740947132966e-06
4023.14,-2.515596285404526e-06
4024.04,-2.520869203536074e-06
4024.94,-2.537369045567265e-06
4025.84,-2.54895172231787e-06
4026.74,-2.5643484222787067e-06
4027.64,-2.581834059987658e-06
4028.54,-2.58628314431197e-06
4029.44,-2.5451577476338516e-06
4030.34,-2.471561239902748e-06
4031.24,-2.3908464095898396e-06
4032.14,-2.2993933399565167e-06
4033.04,-2.2375474618953895e-06
4033.94,-2.2312734951524797e-06
4034.84,-2.268045750502643e-06
4035.74,-2.337971822705506e-06
4036.64,-2.4520721070142364e-06
4037.54,-2.5661012813108782e-06
4038.44,-2.6811014713117577e-06
4039.34,-2.7321905168167775e-06
4040.24,-2.7809525810189244e-06
4041.14,-2.750549193105136e-06
4042.04,-2.7135703676237935e-06
4042.94,-2.630475459650288e-06
4043.84,-2.5112683676220755e-06
4044.74,-2.394640142378256e-06
4045.64,-2.298081238731344e-06
4046.54,-2.265437017160113e-06
4047.44,-2.2834512599515883e-06
4048.34,-2.365560687308478e-06
4049.24,-2.506026688488647e-06
4050.14,-2.619900808821059e-06
4051.04,-2.7363197232620593e-06
4051.94,-2.797279905390566e-06
4052.84,-2.8112687033538575e-06
4053.74,-2.7858368678455105e-06
4054.65,-2.77555105099328e-06
4055.55,-2.7189933079354968e-06
4056.45,-2.6694613962926174e-06
4057.35,-2.6616273192014212e-06
4058.25,-2.6468710942955882e-06
4059.15,-2.6475364409206356e-06
4060.05,-2.6485494857082766e-06
4060.95,-2.634923333616541e-06
4061.85,-2.6021090070857458e-06
4062.75,-2.5469253163689727e-06
4063.65,-2.506095860099872e-06
4064.55,-2.4680783950923632e-06
4065.45,-2.476706694245453e-06
4066.35,-2.5248378759897697e-06
4067.25,-2.5887683963670687e-06
4068.15,-2.6755438087936853e-06
4069.05,-2.7391400415683206e-06
4069.95,-2.78796346602193e-06
4070.85,-2.8027496561185647e-06
4071.75,-2.7991923381701814e-06
4072.65,-2.786836660016403e-06
4073.55,-2.7831529388913104e-06
4074.45,-2.7849239810030437e-06
4075.35,-2.780800701348423e-06
4076.25,-2.773031268632616e-06
4077.15,-2.7440935462779393e-06
4078.05,-2.7583181020723986e-06
4078.95,-2.7903025376821004e-06
4079.85,-2.859396953070323e-06
4080.75,-2.964960789931759e-06
4081.65,-3.066914772888244e-06
4082.55,-3.132434601596974e-06
4083.45,-3.1811408783964404e-06
4084.35,-3.228287518098778e-06
4085.25,-3.253125499873761e-06
4086.15,-3.2908255496966996e-06
4087.05,-3.3701696966589176e-06
4087.95,-3.457817852630082e-06
4088.85,-3.508701705535624e-06
4089.75,-3.5605176570157654e-06
4090.65,-3.620532313373204e-06
4091.55,-3.596683888443917e-06
4092.45,-3.575185961350541e-06
4093.36,-3.5377057182781942e-06
4094.26,-3.5017318536610017e-06
4095.16,-3.415435010129516e-06
4096.06,-3.3401240258484105e-06
4096.96,-3.254594134418896e-06
4097.86,-3.1665879374544625e-06
4098.76,-3.1031977097392195e-06
4099.66,-3.0136219259469244e-06
4100.56,-2.9511761715654655e-06
4101.46,-2.884446638209071e-06
4102.36,-2.8561539924443482e-06
4103.26,-2.9085941745946673e-06
4104.16,-2.9627813971025655e-06
4105.06,-3.0823497261780475e-06
4105.96,-3.211597590924153e-06
4106.86,-3.327607449038502e-06
4107.76,-3.4009058446405745e-06
4108.66,-3.453350747570619e-06
4109.56,-3.490889017648933e-06
4110.46,-3.4879136374171446e-06
4111.36,-3.5059996196895487e-06
4112.26,-3.521781152650791e-06
4113.16,-3.555461562478594e-06
4114.06,-3.614786907743534e-06
4114.96,-3.673093778761406e-06
4115.86,-3.718250896590546e-06
4116.76,-3.7313638736336354e-06
4117.66,-3.7260537912166367e-06
4118.56,-3.720322750266783e-06
4119.46,-3.6857420188385638e-06
4120.36,-3.6741325991534996e-06
4121.26,-3.672655077102497e-06
4122.16,-3.6725502026321964e-06
4123.06,-3.707973998807264e-06
4123.96,-3.7346789961836533e-06
4124.86,-3.771910470932612e-06
4125.76,-3.7949863151449334e-06
4126.66,-3.8138553809800992e-06
4127.56,-3.7724182441295827e-06
4128.46,-3.7509864257393703e-06
4129.36,-3.698790408639059e-06
4130.26,-3.631375098375483e-06
4131.17,-3.5568585348939276e-06
4132.06,-3.5075770871626245e-06
4132.97,-3.4736175103088827e-06
4133.87,-3.481067023611614e-06
4134.77,-3.5267627421311067e-06
4135.67,-3.6317061975515703e-06
4136.57,-3.732872668216438e-06
4137.47,-3.837801926692688e-06
4138.37,-3.949428792305049e-06
4139.27,-4.0043411848200255e-06
4140.17,-3.993240814331082e-06
4141.07,-3.942464482864215e-06
4141.97,-3.873747563457075e-06
4142.87,-3.7311091304962525e-06
4143.77,-3.6369609725388827e-06
4144.67,-3.595193664774805e-06
4145.57,-3.6068847106209695e-06
4146.47,-3.6599242821617736e-06
4147.37,-3.7552006830893367e-06
4148.27,-3.842020629156845e-06
4149.17,-3.891666705971911e-06
4150.07,-3.916703534728061e-06
4150.97,-3.920037335499348e-06
4151.87,-3.906913242088991e-06
4152.77,-3.8885326462739425e-06
4153.67,-3.8942803725534756e-06
4154.57,-3.878295061535537e-06
4155.47,-3.893367366656089e-06
4156.37,-3.934576937068006e-06
4157.27,-3.963453394988201e-06
4158.17,-4.029369604989847e-06
4159.07,-4.118088596019746e-06
4159.97,-4.223265177838843e-06
4160.87,-4.335678567063776e-06
4161.77,-4.399872013812183e-06
4162.67,-4.467350542464123e-06
4163.57,-4.5029441791273006e-06
4164.47,-4.496349796619149e-06
4165.37,-4.476321387358075e-06
4166.27,-4.445649921323143e-06
4167.17,-4.41178384228843e-06
4168.07,-4.3409879614524345e-06
4168.98,-4.345074198277319e-06
4169.88,-4.2997700014174956e-06
4170.78,-4.258366909832801e-06
4171.68,-4.192673324372217e-06
4172.58,-4.129098774332454e-06
4173.48,-4.069946666242018e-06
4174.38,-4.028988318416507e-06
4175.28,-4.015724275813498e-06
4176.18,-4.063510890157931e-06
4177.08,-4.1133740839538035e-06
4177.98,-4.176535133856009e-06
4178.88,-4.2463250389435505e-06
4179.78,-4.306421380945103e-06
4180.68,-4.351725900115897e-06
4181.58,-4.382216451018805e-06
4182.48,-4.433039156377731e-06
4183.38,-4.480863208284334e-06
4184.28,-4.48338611077653e-06
4185.18,-4.503872500017694e-06
4186.08,-4.507438434905149e-06
4186.98,-4.541057107132335e-06
4187.88,-4.522913271894082e-06
4188.78,-4.515451182405392e-06
4189.68,-4.559926773226763e-06
4190.58,-4.6150439769168e-06
4191.48,-4.685474985250539e-06
4192.38,-4.762360188763216e-06
4193.28,-4.8012146970149986e-06
4194.18,-4.8100211041897235e-06
4195.08,-4.7898660968784785e-06
4195.98,-4.72637859944376e-06
4196.88,-4.605412338521725e-06
4197.78,-4.515662786211124e-06
4198.68,-4.42694426226729e-06
4199.58,-4.371843328985457e-06
4200.48,-4.352337800025292e-06
4201.38,-4.377086997134383e-06
4202.28,-4.434206748318086e-06
4203.18,-4.517381915234021e-06
4204.08,-4.6290136980497255e-06
4204.98,-4.777168136923184e-06
4205.88,-4.919198188367702e-06
4206.79,-5.063300371749932e-06
4207.69,-5.213567460684031e-06
4208.59,-5.28899775965475e-06
4209.49,-5.378740152352536e-06
4210.39,-5.417481227828591e-06
4211.29,-5.393233881344391e-06
4212.19,-5.390732935712401e-06
4213.09,-5.35207237578371e-06
4213.99,-5.320626376653882e-06
4214.89,-5.271741571906915e-06
4215.79,-5.25132559935054e-06
4216.69,-5.253582032503973e-06
4217.59,-5.332309411279136e-06
4218.49,-5.4427609330985805e-06
4219.39,-5.574996744346021e-06
4220.29,-5.65191971273596e-06
4221.19,-5.699322350021508e-06
4222.09,-5.592811980793173e-06
4222.99,-5.444849367460521e-06
4223.89,-5.171553518548099e-06
4224.79,-4.831883562486629e-06
4225.69,-4.534084916685307e-06
4226.59,-4.287544394595476e-06
4227.49,-4.196117569083426e-06
4228.39,-4.275088201400542e-06
4229.29,-4.469397640687522e-06
4230.19,-4.79061714101509e-06
4231.09,-5.105789405392611e-06
4231.99,-5.3480150212748466e-06
4232.89,-5.510708762777715e-06
4233.79,-5.567843216727574e-06
4234.69,-5.5893175481333566e-06
4235.59,-5.557228363669188e-06
4236.49,-5.525948297940584e-06
4237.39,-5.521955548787211e-06
4238.29,-5.54941730116521e-06
4239.19,-5.63477324434506e-06
4240.09,-5.7596933115460255e-06
4240.99,-5.892157149094425e-06
4241.89,-6.038977939247051e-06
4242.79,-6.194672075319974e-06
4243.69,-6.3208847590579474e-06
4244.59,-6.432613931730711e-06
4245.5,-6.450805052857036e-06
4246.4,-6.419077806717783e-06
4247.3,-6.340594140384991e-06
4248.2,-6.198734622040786e-06
4249.1,-6.011304727286709e-06
4250.0,-5.8786950223560275e-06
4250.9,-5.81284912037486e-06
4251.8,-5.765850743275495e-06
4252.7,-5.771544061091918e-06
4253.6,-5.816149397942578e-06
4254.5,-5.8501511441228775e-06
4255.4,-5.916855517364507e-06
4256.3,-6.020182579957426e-06
4257.2,-6.065178453959349e-06
4258.1,-6.082885959479178e-06
4259.0,-6.1054615027228305e-06
4259.9,-6.078672813556651e-06
4260.8,-6.069176930421984e-06
4261.7,-6.14459890780827e-06
4262.6,-6.269277449718805e-06
4263.5,-6.493312661571593e-06
4264.4,-6.709074469571634e-06
4265.3,-6.897973922275584e-06
4266.2,-7.017026680903529e-06
4267.1,-7.0511861090687755e-06
4268.0,-6.934095814392115e-06
4268.9,-6.717889459176328e-06
4269.8,-6.44668178760329e-06
4270.7,-6.174496169569983e-06
4271.6,-5.855431201587967e-06
4272.5,-5.64749125497881e-06
4273.4,-5.539546907695314e-06
4274.3,-5.589904220708013e-06
4275.2,-5.742756327035246e-06
4276.1,-5.966387678240709e-06
4277.0,-6.238434713081651e-06
4277.9,-6.525695856590652e-06
