wave,flux
3700.85,-5.023693245711357e-07
3701.75,-4.98547481760687e-07
3702.65,-4.852691919737481e-07
3703.55,-4.6598022627337583e-07
3704.45,-4.465183248750133e-07
3705.35,-4.278604008414217e-07
3706.25,-4.1881611491311737e-07
3707.15,-4.1592460961933395e-07
3708.05,-4.19502820702675e-07
3708.96,-4.254838342563407e-07
3709.86,-4.331975137821694e-07
3710.76,-4.4523590442857384e-07
3711.66,-4.5547936260698907e-07
3712.56,-4.691324899120721e-07
3713.46,-4.86504908561731e-07
3714.36,-5.053523213273275e-07
3715.26,-5.198537323442501e-07
3716.16,-5.250778097519303e-07
3717.06,-5.257841088224713e-07
3717.96,-5.142191646919208e-07
3718.86,-4.919919743755216e-07
3719.76,-4.6272822633943023e-07
3720.66,-4.3488291054404106e-07
3721.56,-4.1199934974374496e-07
3722.46,-4.046275461423291e-07
3723.36,-4.1436715131194684e-07
3724.26,-4.3587514555202305e-07
3725.16,-4.601918805910241e-07
3726.06,-4.808533829810296e-07
3726.96,-4.983587837203314e-07
3727.86,-5.071766526034887e-07
3728.76,-5.103351942383609e-07
3729.66,-5.065791813719579e-07
3730.56,-4.989117615041938e-07
3731.46,-4.82593358557687e-07
3732.36,-4.5782346768653157e-07
3733.26,-4.2829799619201467e-07
3734.16,-3.9881968777404025e-07
3735.06,-3.796692699579549e-07
3735.96,-3.710928859772604e-07
3736.86,-3.7986159967543095e-07
3737.76,-4.0180850029649084e-07
3738.66,-4.319206518935839e-07
3739.56,-4.6600936828950274e-07
3740.46,-4.963201829786252e-07
3741.36,-5.176105287179479e-07
3742.26,-5.245560225868774e-07
3743.16,-5.185001489939878e-07
3744.06,-5.063305027440585e-07
3744.96,-4.889566973645538e-07
3745.86,-4.6967964764995427e-07
3746.76,-4.449178555210918e-07
3747.67,-4.219718123334724e-07
3748.57,-4.030763641369541e-07
3749.47,-3.8981081162483836e-07
3750.37,-3.8881130797465797e-07
3751.27,-4.016245516827262e-07
3752.17,-4.3226919675242894e-07
3753.07,-4.679581605362523e-07
3753.97,-5.061988179568193e-07
3754.87,-5.354767879116215e-07
3755.77,-5.540317765277763e-07
3756.67,-5.59151084168518e-07
3757.57,-5.550235818946037e-07
3758.47,-5.415189257799001e-07
3759.37,-5.30944222758424e-07
3760.27,-5.257011902708555e-07
3761.17,-5.310520025813642e-07
3762.07,-5.358003888440963e-07
3762.97,-5.474809522347249e-07
3763.87,-5.547598037210218e-07
3764.77,-5.590729356536275e-07
3765.67,-5.564895084803831e-07
3766.57,-5.463083641677268e-07
3767.47,-5.358240346627625e-07
3768.37,-5.219401341425331e-07
3769.27,-5.055846720787618e-07
3770.17,-4.970974597338638e-07
3771.07,-4.943614657644961e-07
3771.97,-5.0223145669532e-07
3772.87,-5.195991256867271e-07
3773.77,-5.403440986996148e-07
3774.67,-5.646390088170012e-07
3775.57,-5.816328608154295e-07
3776.47,-5.992503266122452e-07
3777.37,-6.17695510204864e-07
3778.27,-6.327848691948048e-07
3779.17,-6.513705468042232e-07
3780.07,-6.6529558044217e-07
3780.97,-6.773240683146335e-07
3781.87,-6.927724996222181e-07
3782.77,-6.964989836649745e-07
3783.67,-6.98889303597391e-07
3784.57,-6.936595249676295e-07
3785.47,-6.792524938859381e-07
3786.38,-6.648200408869518e-07
3787.28,-6.43777822881783e-07
3788.18,-6.304080142963912e-07
3789.08,-6.201850288267241e-07
3789.98,-6.083570636929066e-07
3790.88,-6.032424426947934e-07
3791.78,-5.974363549614704e-07
3792.68,-5.851477757041444e-07
3793.58,-5.726239537972956e-07
3794.48,-5.505726200132964e-07
3795.38,-5.310743666681224e-07
3796.28,-5.037696708556776e-07
3797.18,-4.837774192559925e-07
3798.08,-4.7004439977423064e-07
3798.98,-4.6788805519611367e-07
3799.88,-4.833157070916129e-07
3800.78,-5.083328186449598e-07
3801.68,-5.475989878928006e-07
3802.58,-5.857036788315397e-07
3803.48,-6.231231517085587e-07
3804.38,-6.500681242844436e-07
3805.28,-6.677163847711405e-07
3806.18,-6.819254127961308e-07
3807.08,-6.85128714943913e-07
3807.98,-6.913009838505088e-07
3808.88,-6.979916324140058e-07
3809.78,-7.057499455055235e-07
3810.68,-7.135887554457331e-07
3811.58,-7.141843247344164e-07
3812.48,-7.034965082884052e-07
3813.38,-6.921696092656041e-07
3814.28,-6.732331580906465e-07
3815.18,-6.602741482932527e-07
3816.08,-6.524642911956947e-07
3816.98,-6.518619628947565e-07
3817.88,-6.527044917129646e-07
3818.78,-6.51630967229541e-07
3819.68,-6.508741711903156e-07
3820.58,-6.445844770385806e-07
3821.48,-6.396048831506836e-07
3822.38,-6.347842338075691e-07
3823.28,-6.2633040511223e-07
3824.18,-6.165690602355203e-07
3825.09,-6.035919605487251e-07
3825.99,-5.871140270670989e-07
3826.89,-5.749026401747369e-07
3827.79,-5.63610499854847e-07
3828.69,-5.536508433999434e-07
3829.59,-5.448555410276834e-07
3830.49,-5.319297311469504e-07
3831.39,-5.180853873251553e-07
3832.29,-4.928050645261005e-07
3833.19,-4.697875437404408e-07
3834.09,-4.4541199689733617e-07
3834.99,-4.2785358526559866e-07
3835.89,-4.197716820443371e-07
3836.79,-4.207198188865044e-07
3837.69,-4.2979092447448446e-07
3838.59,-4.455927819142826e-07
3839.49,-4.678644906302932e-07
3840.39,-4.965191490498592e-07
3841.29,-5.310307381252176e-07
3842.19,-5.674451168924969e-07
3843.09,-6.007563192048147e-07
3843.99,-6.346070789129061e-07
3844.89,-6.626968084318699e-07
3845.79,-6.857552758444564e-07
3846.69,-7.021081236824119e-07
3847.59,-7.151151231273768e-07
3848.49,-7.199822921860367e-07
3849.39,-7.290715561157714e-07
3850.29,-7.314572868786954e-07
3851.19,-7.365805827639368e-07
3852.09,-7.437392694919794e-07
3852.99,-7.479743368904254e-07
3853.89,-7.495430227838001e-07
3854.79,-7.495520294351117e-07
3855.69,-7.426993254270723e-07
3856.59,-7.324959122837762e-07
3857.49,-7.232085538812887e-07
3858.39,-7.09996264612483e-07
3859.29,-7.030166415984472e-07
3860.19,-7.001111607990532e-07
3861.09,-7.106793117235029e-07
3861.99,-7.261836725325255e-07
3862.9,-7.426583467870573e-07
3863.8,-7.646272955017303e-07
3864.7,-7.745946095566722e-07
3865.6,-7.80667959786029e-07
3866.5,-7.874120665041315e-07
3867.4,-7.828249202799108e-07
3868.3,-7.834515354680493e-07
3869.2,-7.769819996869322e-07
3870.1,-7.668299261995924e-07
3871.0,-7.515687359714493e-07
3871.9,-7.390099043519264e-07
3872.8,-7.235410867046604e-07
3873.7,-7.181481138851116e-07
3874.6,-7.176438055727589e-07
3875.5,-7.219308142049053e-07
3876.4,-7.245050343504993e-07
3877.3,-7.209235794737463e-07
3878.2,-7.184836526026868e-07
3879.1,-7.109677100678204e-07
3880.0,-7.053480372199334e-07
3880.9,-7.020702339846686e-07
3881.8,-6.9887639795854e-07
3882.7,-6.915994608387213e-07
3883.6,-6.8066535772568e-07
3884.5,-6.647383421607797e-07
3885.4,-6.398508882747936e-07
3886.3,-6.12996315680334e-07
3887.2,-5.826073332073561e-07
3888.1,-5.57392020830213e-07
3889.0,-5.413140965233476e-07
3889.9,-5.406231322464856e-07
3890.8,-5.538060836155685e-07
3891.7,-5.789443598786915e-07
3892.6,-6.11389349087399e-07
3893.5,-6.413509624645475e-07
3894.4,-6.659048789339314e-07
3895.3,-6.884684449786029e-07
3896.2,-7.08327485415959e-07
3897.1,-7.229712356386151e-07
3898.0,-7.332078561683964e-07
3898.9,-7.491205584032971e-07
3899.8,-7.555512608356006e-07
3900.7,-7.645330723004539e-07
3901.6,-7.717314958597769e-07
3902.51,-7.75130471095353e-07
3903.41,-7.76242406502355e-07
3904.31,-7.706149317831381e-07
3905.21,-7.697429500621908e-07
3906.11,-7.720914410056953e-07
3907.01,-7.786998456358846e-07
3907.91,-7.880515923413594e-07
3908.81,-8.121377187158148e-07
3909.71,-8.303305464705136e-07
3910.61,-8.489501176457676e-07
3911.51,-8.625629899746865e-07
3912.41,-8.719457375627482e-07
3913.31,-8.724308003194971e-07
3914.21,-8.714197031347505e-07
3915.11,-8.584202817422983e-07
3916.01,-8.57146160723049e-07
3916.91,-8.42473895660447e-07
3917.81,-8.35064812076212e-07
3918.71,-8.24917866169625e-07
3919.61,-8.125823524720538e-07
3920.51,-8.037939347990402e-07
3921.41,-7.961531536117037e-07
3922.31,-7.916889338745793e-07
3923.21,-7.860163558258412e-07
3924.11,-7.805738457866459e-07
3925.01,-7.679930026635584e-07
3925.91,-7.475128732436256e-07
3926.81,-7.171663940932585e-07
3927.71,-6.781958787941554e-07
3928.61,-6.303490603016668e-07
3929.51,-5.708110642233027e-07
3930.41,-5.086145234267669e-07
3931.31,-4.4463887154260727e-07
3932.21,-3.8817190486297685e-07
3933.11,-3.406267110463007e-07
3934.01,-3.1162439653858573e-07
3934.91,-3.0852510132160453e-07
3935.81,-3.2774628921887214e-07
3936.71,-3.684482446582e-07
3937.61,-4.251314354324044e-07
3938.51,-4.914970606087792e-07
3939.42,-5.575548260241302e-07
3940.32,-6.164430638238798e-07
3941.22,-6.657657126403843e-07
3942.12,-7.012301650595579e-07
3943.02,-7.259208763437947e-07
3943.92,-7.537331807402052e-07
3944.82,-7.719840419735058e-07
3945.72,-7.873081965438882e-07
3946.62,-8.114118857682329e-07
3947.52,-8.262635869173715e-07
3948.42,-8.398114161809861e-07
3949.32,-8.531127371366641e-07
3950.22,-8.582670519683249e-07
3951.12,-8.680210761464774e-07
3952.02,-8.754118780564957e-07
3952.92,-8.822350426773111e-07
3953.82,-8.8072887870331e-07
3954.72,-8.846181324047909e-07
3955.62,-8.825736066614389e-07
3956.52,-8.778676386824521e-07
3957.42,-8.716154328172289e-07
3958.32,-8.633250996973169e-07
3959.22,-8.514773428849722e-07
3960.12,-8.30440420800726e-07
3961.02,-8.038287766495172e-07
3961.92,-7.678673030168054e-07
3962.82,-7.224449500546459e-07
3963.72,-6.717040987300988e-07
3964.62,-6.190844801851781e-07
3965.52,-5.584545216478038e-07
3966.42,-4.973666773695873e-07
3967.32,-4.343428462863883e-07
3968.22,-3.8255247413667e-07
3969.12,-3.5190476079748727e-07
3970.02,-3.405786549700787e-07
3970.92,-3.561155989185342e-07
3971.82,-3.959547866341378e-07
3972.72,-4.519384929137665e-07
3973.62,-5.145629476277812e-07
3974.52,-5.825703501602243e-07
3975.42,-6.479921219562565e-07
3976.32,-7.045254019932946e-07
3977.22,-7.635841554133866e-07
3978.13,-8.105210494210923e-07
3979.03,-8.522971395272851e-07
3979.93,-8.850567485085816e-07
3980.83,-9.075005669918058e-07
3981.73,-9.275942245462208e-07
3982.63,-9.389821018098159e-07
3983.53,-9.506613435377554e-07
3984.43,-9.558729097256136e-07
3985.33,-9.648384905131763e-07
3986.23,-9.725491721881759e-07
3987.13,-9.879402579073196e-07
3988.03,-1.0034209276737084e-06
3988.93,-1.012936983980447e-06
3989.83,-1.0237301181477139e-06
3990.73,-1.034788969099957e-06
3991.63,-1.0424470866857014e-06
3992.53,-1.0525884075198858e-06
3993.43,-1.0603112706853325e-06
3994.33,-1.0578959123653643e-06
3995.23,-1.048721521090256e-06
3996.13,-1.0465260174581177e-06
3997.03,-1.0360454741630413e-06
3997.93,-1.0362835205535372e-06
3998.83,-1.0378724906882219e-06
3999.73,-1.0476917002958624e-06
4000.63,-1.0645519030073614e-06
4001.53,-1.0802040336801664e-06
4002.43,-1.0904603930134435e-06
4003.33,-1.08828434519985e-06
4004.23,-1.08495801401969e-06
4005.13,-1.0747791318307672e-06
4006.03,-1.0653929674965506e-06
4006.93,-1.0623778187073148e-06
4007.83,-1.0653740114708176e-06
4008.73,-1.0782118178873734e-06
4009.63,-1.0970870801485511e-06
4010.53,-1.107795477941919e-06
4011.43,-1.1181438206243847e-06
4012.33,-1.1276627121393605e-06
4013.23,-1.133206631335479e-06
4014.13,-1.1415778870689476e-06
4015.03,-1.1380032874658318e-06
4015.93,-1.146010910012579e-06
4016.84,-1.1439693521120478e-06
4017.74,-1.1450675583281777e-06
4018.64,-1.149027297092128e-06
4019.54,-1.1558034950119054e-06
4020.44,-1.158530710251629e-06
4021.34,-1.1607058045329428e-06
4022.24,-1.1630243762432404e-06
4023.14,-1.1602342372774547e-06
4024.04,-1.1647930761212222e-06
4024.94,-1.1673450998514486e-06
4025.84,-1.1716406664792096e-06
4026.74,-1.1841721220561707e-06
4027.64,-1.184869676976401e-06
4028.54,-1.1812329253195848e-06
4029.44,-1.176937620004797e-06
4030.34,-1.158522293274767e-06
4031.24,-1.1373481199821528e-06
4032.14,-1.1205329389922415e-06
4033.04,-1.1070450820544644e-06
4033.94,-1.1087494315476978e-06
4034.84,-1.1194847433368433e-06
4035.74,-1.1414163067647438e-06
4036.64,-1.167441964132324e-06
4037.54,-1.1935874276453558e-06
4038.44,-1.2197959857480143e-06
4039.34,-1.2259289046252666e-06
4040.24,-1.233105118041834e-06
4041.14,-1.2299025655967855e-06
4042.04,-1.2147344977987051e-06
4042.94,-1.1944175901379254e-06
4043.84,-1.1760897213979125e-06
4044.74,-1.1560747418429547e-06
4045.64,-1.1358935888080519e-06
4046.54,-1.1301434788922776e-06
4047.44,-1.1345452809991734e-06
4048.34,-1.1550654459977045e-06
4049.24,-1.1720443990622656e-06
4050.14,-1.199878123429664e-06
4051.04,-1.2188386277319816e-06
4051.94,-1.221394280798039e-06
4052.84,-1.2236637702108482e-06
4053.74,-1.218216277032478e-06
4054.65,-1.2062065992669891e-06
4055.55,-1.1942364762758516e-06
4056.45,-1.1932313659658584e-06
4057.35,-1.1884449929718029e-06
4058.25,-1.188863837326296e-06
4059.15,-1.1934505456139212e-06
4060.05,-1.1997518293902213e-06
4060.95,-1.1994756327617046e-06
4061.85,-1.1939527554396954e-06
4062.75,-1.1854941634160986e-06
4063.65,-1.1692744333207344e-06
4064.55,-1.1686277550643539e-06
4065.45,-1.1599832473590359e-06
4066.35,-1.1719501888688766e-06
4067.25,-1.1829362071879218e-06
4068.15,-1.1985845699193673e-06
4069.05,-1.2084378658563825e-06
4069.95,-1.2154538929645148e-06
4070.85,-1.2180110911825175e-06
4071.75,-1.2190796949180898e-06
4072.65,-1.2116560461663645e-06
4073.55,-1.2039428969459749e-06
4074.45,-1.19686860246326e-06
4075.35,-1.1840717025289419e-06
4076.25,-1.1706703491395919e-06
4077.15,-1.1555187880070564e-06
4078.05,-1.140448495836907e-06
4078.95,-1.1489307975406454e-06
4079.85,-1.1605742742368776e-06
4080.75,-1.1799575306452932e-06
4081.65,-1.2001145009609272e-06
4082.55,-1.2181070433947053e-06
4083.45,-1.2360519722452905e-06
4084.35,-1.2378700452307308e-06
4085.25,-1.2410910414663252e-06
4086.15,-1.2507479513481334e-06
4087.05,-1.2610986653812504e-06
4087.95,-1.2772166174554014e-06
4088.85,-1.2901312497100668e-06
4089.75,-1.3045465536021089e-06
4090.65,-1.3054742960181195e-06
4091.55,-1.3040080804555254e-06
4092.45,-1.2974031345833406e-06
4093.36,-1.2823647945995492e-06
4094.26,-1.2538638499971717e-06
4095.16,-1.2344229850123623e-06
4096.06,-1.2158586168378171e-06
4096.96,-1.1754077263279719e-06
4097.86,-1.1373005738072607e-06
4098.76,-1.1009259293543192e-06
4099.66,-1.0467294857555136e-06
4100.56,-1.0018463926014614e-06
4101.46,-9.67245750851253e-07
4102.36,-9.471739167108918e-07
4103.26,-9.43339661130744e-07
4104.16,-9.679896711615074e-07
4105.06,-1.012346734698146e-06
4105.96,-1.0575658573079386e-06
4106.86,-1.108887678936979e-06
4107.76,-1.1452642784865282e-06
4108.66,-1.1776436012143021e-06
4109.56,-1.2060419006850319e-06
4110.46,-1.2216497326311228e-06
4111.36,-1.240609183269749e-06
4112.26,-1.2548748105703765e-06
4113.16,-1.2689849637566181e-06
4114.06,-1.293583432538846e-06
4114.96,-1.3049517051093099e-06
4115.86,-1.3209204022003225e-06
4116.76,-1.3275785663386982e-06
4117.66,-1.3282022606782034e-06
4118.56,-1.3248408280304952e-06
4119.46,-1.318724073260431e-06
4120.36,-1.3200370108768263e-06
4121.26,-1.3128713286737329e-06
4122.16,-1.3204889779388094e-06
4123.06,-1.3229269377658663e-06
4123.96,-1.3233777847732017e-06
4124.86,-1.3411960882883221e-06
4125.76,-1.3427627107841472e-06
4126.66,-1.3456213541139145e-06
4127.56,-1.3435781699409423e-06
4128.46,-1.3395885348928153e-06
4129.36,-1.333289033237114e-06
4130.26,-1.3244440556696422e-06
4131.17,-1.3188059538708925e-06
4132.06,-1.311197833185742e-06
4132.97,-1.3106324951729491e-06
4133.87,-1.3041824491641636e-06
4134.77,-1.312749462799993e-06
4135.67,-1.3327985744060073e-06
4136.57,-1.3553164064357127e-06
4137.47,-1.3765801095093313e-06
4138.37,-1.3965520450591865e-06
4139.27,-1.4089583216658654e-06
4140.17,-1.4100565261549775e-06
4141.07,-1.4074045536322482e-06
4141.97,-1.3936410231665872e-06
4142.87,-1.374001755265048e-06
4143.77,-1.3551365409874477e-06
4144.67,-1.3496158967349057e-06
4145.57,-1.3478213892033934e-06
4146.47,-1.358189001199558e-06
4147.37,-1.38079834422346e-06
4148.27,-1.3918291432382675e-06
4149.17,-1.3950979606681076e-06
4150.07,-1.407304541317911e-06
4150.97,-1.40385744493122e-06
4151.87,-1.4000322273895522e-06
4152.77,-1.395392569234265e-06
4153.67,-1.388763026051955e-06
4154.57,-1.3850996829700933e-06
4155.47,-1.3847161404262746e-06
4156.37,-1.3855066539148252e-06
4157.27,-1.3957914153612237e-06
4158.17,-1.412067236364665e-06
4159.07,-1.4134640581369419e-06
4159.97,-1.4351739004557306e-06
4160.87,-1.4492558831236994e-06
4161.77,-1.4587978616701167e-06
4162.67,-1.4673106341246711e-06
4163.57,-1.47743978737957e-06
4164.47,-1.4756546189972469e-06
4165.37,-1.4801632596595838e-06
4166.27,-1.4767363723971903e-06
4167.17,-1.4704990657891455e-06
4168.07,-1.4618508072447162e-06
4168.98,-1.4524460615025374e-06
4169.88,-1.4357282878606616e-06
4170.78,-1.4241822086891548e-06
4171.68,-1.4046325910840359e-06
4172.58,-1.3924284023523133e-06
4173.48,-1.37009709200817e-06
4174.38,-1.3589174788138594e-06
4175.28,-1.3607630996332535e-06
4176.18,-1.3676953907789498e-06
4177.08,-1.3821232177164744e-06
4177.98,-1.3902066210147393e-06
4178.88,-1.409904239364116e-06
4179.78,-1.4241583499605399e-06
4180.68,-1.4299198198306904e-06
4181.58,-1.4426642721798532e-06
4182.48,-1.4489490878115275e-06
4183.38,-1.4555276652370544e-06
4184.28,-1.4554391312657564e-06
4185.18,-1.4603927353046568e-06
4186.08,-1.4573600844702749e-06
4186.98,-1.4504545012740964e-06
4187.88,-1.4581579181752273e-06
4188.78,-1.4601399420410504e-06
4189.68,-1.4622308998893114e-06
4190.58,-1.469408662400888e-06
4191.48,-1.4861818896471388e-06
4192.38,-1.4975106001364896e-06
4193.28,-1.5008576061825698e-06
4194.18,-1.5092498856972914e-06
4195.08,-1.5040896810207969e-06
4195.98,-1.4918347464077806e-06
4196.88,-1.4796174358044465e-06
4197.78,-1.4674379453777278e-06
4198.68,-1.4455468784137588e-06
4199.58,-1.4336455882660875e-06
4200.48,-1.4288726477926464e-06
4201.38,-1.4279574038409725e-06
4202.28,-1.4340020216936065e-06
4203.18,-1.4401681813844239e-06
4204.08,-1.455381963835581e-06
4204.98,-1.4677141574598565e-06
4205.88,-1.486823923519295e-06
4206.79,-1.5021729261190041e-06
4207.69,-1.5211198172126001e-06
4208.59,-1.542794330649464e-06
4209.49,-1.5495791695964604e-06
4210.39,-1.5583770049569535e-06
4211.29,-1.562577161849513e-06
4212.19,-1.5608873069798291e-06
4213.09,-1.5608681070821933e-06
4213.99,-1.5493471242278669e-06
4214.89,-1.5478830958843795e-06
4215.79,-1.525623532378674e-06
4216.69,-1.5255867099131233e-06
4217.59,-1.5232725486436722e-06
4218.49,-1.5355744898780228e-06
4219.39,-1.5498194868242324e-06
4220.29,-1.5665676540658311e-06
4221.19,-1.575278875551745e-06
4222.09,-1.5634006696397853e-06
4222.99,-1.5418737842840004e-06
4223.89,-1.508549854287802e-06
4224.79,-1.4672021543892647e-06
4225.69,-1.4225147500679688e-06
4226.59,-1.3931371810302733e-06
4227.49,-1.377714859739507e-06
4228.39,-1.3946406671182964e-06
4229.29,-1.425417600291699e-06
4230.19,-1.4693149277609084e-06
4231.09,-1.5054293164086187e-06
4231.99,-1.5360156848135965e-06
4232.89,-1.5564002577660513e-06
4233.79,-1.5671816273406927e-06
4234.69,-1.5530508037978542e-06
4235.59,-1.546639606454575e-06
4236.49,-1.5421706045746455e-06
4237.39,-1.5415017441716683e-06
4238.29,-1.5387872459229982e-06
4239.19,-1.5467022656942411e-06
4240.09,-1.5583509947668698e-06
4240.99,-1.5787586390950289e-06
4241.89,-1.5851162333378655e-06
4242.79,-1.5999753049430525e-06
4243.69,-1.6104505039775302e-06
4244.59,-1.627895652821321e-06
4245.5,-1.6173631267494372e-06
4246.4,-1.6120185132225445e-06
4247.3,-1.5993790794485638e-06
4248.2,-1.5804518886483206e-06
4249.1,-1.5650449620481914e-06
4250.0,-1.5569027452168603e-06
4250.9,-1.5532811657789863e-06
4251.8,-1.5708559335116128e-06
4252.7,-1.5773934112146486e-06
4253.6,-1.5903636072681984e-06
4254.5,-1.5940360946213306e-06
4255.4,-1.6087633550280087e-06
4256.3,-1.6194904577884726e-06
4257.2,-1.6132597628469207e-06
4258.1,-1.614793547390533e-06
4259.0,-1.6064706107909669e-06
4259.9,-1.6156424997579473e-06
4260.8,-1.5909635282623275e-06
4261.7,-1.6026775179173714e-06
4262.6,-1.618728973088859e-06
4263.5,-1.644390853501812e-06
4264.4,-1.6618702851901515e-06
4265.3,-1.6808878164602385e-06
4266.2,-1.6983779542303402e-06
4267.1,-1.700770694275117e-06
4268.0,-1.6877694556323806e-06
4268.9,-1.6635435429824697e-06
4269.8,-1.6353324665822575e-06
4270.7,-1.6053006718565647e-06
4271.6,-1.5698689575713436e-06
4272.5,-1.5480130505000852e-06
4273.4,-1.5383541753894857e-06
4274.3,-1.5406218988483324e-06
4275.2,-1.5610080597791306e-06
