wave,flux
3700.85,-4.6410752656071844e-05
3701.75,-4.627509009343754e-05
3702.65,-4.5335040060043016e-05
3703.55,-4.429491776610788e-05
3704.45,-4.288608351090447e-05
3705.35,-4.193776775903937e-05
3706.25,-4.1847019783497134e-05
3707.15,-4.2242627693097714e-05
3708.05,-4.308559540948371e-05
3708.96,-4.351703022726601e-05
3709.86,-4.3949447950891206e-05
3710.76,-4.419802955036561e-05
3711.66,-4.46533281546763e-05
3712.56,-4.546441305701508e-05
3713.46,-4.7068140502081605e-05
3714.36,-4.888183668287446e-05
3715.26,-5.100003061197472e-05
3716.16,-5.2226877233734246e-05
3717.06,-5.317419130708697e-05
3717.96,-5.278057954539482e-05
3718.86,-5.1039558767191266e-05
3719.76,-4.8628141096447246e-05
3720.66,-4.620540625691326e-05
3721.56,-4.389810297159329e-05
3722.46,-4.328977423119933e-05
3723.36,-4.447539975518226e-05
3724.26,-4.6578302062713974e-05
3725.16,-4.966076574554166e-05
3726.06,-5.275422495031848e-05
3726.96,-5.5412601504449064e-05
3727.86,-5.681677756162037e-05
3728.76,-5.7778527828858015e-05
3729.66,-5.7550820707985414e-05
3730.56,-5.643342580235519e-05
3731.46,-5.445121794742249e-05
3732.36,-5.131378356955418e-05
3733.26,-4.7797210589576556e-05
3734.16,-4.505910439203077e-05
3735.06,-4.316863966556682e-05
3735.96,-4.324888112952464e-05
3736.86,-4.5115490958149485e-05
3737.76,-4.870840914177696e-05
3738.66,-5.309989904795337e-05
3739.56,-5.768313291377736e-05
3740.46,-6.155524853157839e-05
3741.36,-6.475558852087639e-05
3742.26,-6.613127296298314e-05
3743.16,-6.611703760748405e-05
3744.06,-6.506976388889526e-05
3744.96,-6.307141794861375e-05
3745.86,-6.0149010689065304e-05
3746.76,-5.682784446194063e-05
3747.67,-5.356874525531615e-05
3748.57,-5.041694398621463e-05
3749.47,-4.781059702062386e-05
3750.37,-4.716239935350597e-05
3751.27,-4.841018259891756e-05
3752.17,-5.1312895065872113e-05
3753.07,-5.63046851826807e-05
3753.97,-6.113317668291717e-05
3754.87,-6.630216439285228e-05
3755.77,-7.03391805675036e-05
3756.67,-7.291986883493081e-05
3757.57,-7.441831303031124e-05
3758.47,-7.51665671670446e-05
3759.37,-7.571495584690263e-05
3760.27,-7.618898374797971e-05
3761.17,-7.732363460073357e-05
3762.07,-7.827046289796563e-05
3762.97,-7.875972214857287e-05
3763.87,-7.876724562220713e-05
3764.77,-7.776377338705133e-05
3765.67,-7.629295057108743e-05
3766.57,-7.388421425157525e-05
3767.47,-7.027872372197155e-05
3768.37,-6.685126800202076e-05
3769.27,-6.34459924357735e-05
3770.17,-6.085580556808319e-05
3771.07,-5.9955240146682946e-05
3771.97,-6.072865448610466e-05
3772.87,-6.330396140810337e-05
3773.77,-6.726830709161934e-05
3774.67,-7.191499396179734e-05
3775.57,-7.728477443255696e-05
3776.47,-8.205855415477394e-05
3777.37,-8.691056503951766e-05
3778.27,-9.19655408134797e-05
3779.17,-9.631135929916625e-05
3780.07,-0.00010002428564834617
3780.97,-0.00010421357939008048
3781.87,-0.00010687628990506306
3782.77,-0.00010866193881118588
3783.67,-0.00011016984600240514
3784.57,-0.00010986125836016792
3785.47,-0.00010880483785667354
3786.38,-0.00010802005978859007
3787.28,-0.00010614240085497928
3788.18,-0.00010381013209295148
3789.08,-0.00010195187877363395
3789.98,-9.947581486584844e-05
3790.88,-9.773718848406217e-05
3791.78,-9.529552880953384e-05
3792.68,-9.154125694103488e-05
3793.58,-8.75156471243551e-05
3794.48,-8.24941842166727e-05
3795.38,-7.67280232217435e-05
3796.28,-7.154524520879651e-05
3797.18,-6.746983318492588e-05
3798.08,-6.479998506481384e-05
3798.98,-6.47882196521041e-05
3799.88,-6.765755100248582e-05
3800.78,-7.27645253815651e-05
3801.68,-7.99585340645321e-05
3802.58,-8.705551689263433e-05
3803.48,-9.408208735606356e-05
3804.38,-0.00010129585044469764
3805.28,-0.00010669423363272569
3806.18,-0.00011121577877261889
3807.08,-0.00011552651537309178
3807.98,-0.00012007136284523088
3808.88,-0.0001233604305014876
3809.78,-0.0001283907461474024
3810.68,-0.00013113294430430012
3811.58,-0.00013408139375792596
3812.48,-0.0001343699740561608
3813.38,-0.00013552372539496723
3814.28,-0.00013480164015243593
3815.18,-0.00013545715717692598
3816.08,-0.00013562279559646171
3816.98,-0.00013744616328272995
3817.88,-0.0001383425045118488
3818.78,-0.0001389629572775156
3819.68,-0.00013926365892624916
3820.58,-0.00013821772877897062
3821.48,-0.00013704573490153253
3822.38,-0.0001353294680157263
3823.28,-0.00013327758327381657
3824.18,-0.0001308362758042527
3825.09,-0.0001276491065333804
3825.99,-0.00012398316415175088
3826.89,-0.0001210640753309441
3827.79,-0.00011728383869644572
3828.69,-0.0001135679789215466
3829.59,-0.00010979248484092322
3830.49,-0.00010521736918352174
3831.39,-9.905290255515174e-05
3832.29,-9.306554726278085e-05
3833.19,-8.688297101878273e-05
3834.09,-8.127590050380635e-05
3834.99,-7.677889076777123e-05
3835.89,-7.469812106073779e-05
3836.79,-7.500690999892458e-05
3837.69,-7.792587017969841e-05
3838.59,-8.333785353931921e-05
3839.49,-9.038324894206419e-05
3840.39,-9.847936946921781e-05
3841.29,-0.00010753975214778084
3842.19,-0.00011684951236283772
3843.09,-0.00012581396841109156
3843.99,-0.00013462721950148698
3844.89,-0.00014206771388338376
3845.79,-0.00014885838632025495
3846.69,-0.00015525660301557965
3847.59,-0.00016027765994140506
3848.49,-0.00016459132077003346
3849.39,-0.0001688822419839324
3850.29,-0.00017295094994617527
3851.19,-0.00017740261213747407
3852.09,-0.00018085557759861117
3852.99,-0.00018458249206431887
3853.89,-0.00018720401212971675
3854.79,-0.00018875025465648877
3855.69,-0.00019002499083577222
3856.59,-0.00019131872103707808
3857.49,-0.0001924041929168795
3858.39,-0.0001932082567369337
3859.29,-0.00019443620341027352
3860.19,-0.00019583357759099965
3861.09,-0.00019820191029746318
3861.99,-0.00020202494866994704
3862.9,-0.0002046811415790776
3863.8,-0.000207677952372261
3864.7,-0.00021074401477316721
3865.6,-0.0002108863182496548
3866.5,-0.00021393070690347484
3867.4,-0.00021388144164038067
3868.3,-0.00021478785046554
3869.2,-0.00021460388057410284
3870.1,-0.00021474348946715397
3871.0,-0.00021280452975323312
3871.9,-0.0002109570528304287
3872.8,-0.0002085506441216582
3873.7,-0.00020800247118475147
3874.6,-0.0002056730250638677
3875.5,-0.0002042513305242124
3876.4,-0.0002029526328142945
3877.3,-0.00020011376257415785
3878.2,-0.00019465231918559787
3879.1,-0.0001907629571309099
3880.0,-0.00018642668024221895
3880.9,-0.00018201348740665195
3881.8,-0.00017884441454743828
3882.7,-0.0001740277349613817
3883.6,-0.00016780318728597672
3884.5,-0.00016025252324512816
3885.4,-0.00015175351048779689
3886.3,-0.0001421014880399928
3887.2,-0.0001324785636199829
3888.1,-0.0001248711639275797
3889.0,-0.00011978346486194165
3889.9,-0.00011865359860091034
3890.8,-0.0001222805648054299
3891.7,-0.00012994934670729078
3892.6,-0.00014027334801807806
3893.5,-0.00015125587281867027
3894.4,-0.0001614265990096869
3895.3,-0.00017199712129115603
3896.2,-0.00018199176342910016
3897.1,-0.00019091877492254282
3898.0,-0.0001993700546781128
3898.9,-0.00020633803674284827
3899.8,-0.00021381815712243418
3900.7,-0.00021937099779909512
3901.6,-0.0002266488225529728
3902.51,-0.00023342952724172264
3903.41,-0.00023823813910967077
3904.31,-0.0002431617928198229
3905.21,-0.00024760231628331386
3906.11,-0.00025235527559303164
3907.01,-0.0002568594574670149
3907.91,-0.0002648664695486057
3908.81,-0.0002726996275051921
3909.71,-0.00027942242993330487
3910.61,-0.0002851253165082562
3911.51,-0.00029145529946410025
3912.41,-0.00029546373397880096
3913.31,-0.0002993137950674016
3914.21,-0.00029979700531372063
3915.11,-0.0003008737142032568
3916.01,-0.0003028971373250328
3916.91,-0.0003033979607491109
3917.81,-0.0003048786140842046
3918.71,-0.0003050448641517274
3919.61,-0.0003075875562483929
3920.51,-0.0003077978921341035
3921.41,-0.0003104278427150301
3922.31,-0.0003143295318815607
3923.21,-0.00031554379228710457
3924.11,-0.0003166275721230563
3925.01,-0.0003183356886776064
3925.91,-0.0003181199985547799
3926.81,-0.00031491983950555956
3927.71,-0.00031000803014074533
3928.61,-0.00030150973055806455
3929.51,-0.0002887849458554715
3930.41,-0.00027392441073625825
3931.31,-0.00025725437247007003
3932.21,-0.00023926790013325318
3933.11,-0.00022420629239255335
3934.01,-0.00021443602082981195
3934.91,-0.00021383324335918144
3935.81,-0.00022189571929778724
3936.71,-0.0002384018990516756
3937.61,-0.00025756456839869373
3938.51,-0.0002801741601890993
3939.42,-0.00030006936939302564
3940.32,-0.0003163571667454464
3941.22,-0.00032787840309586857
3942.12,-0.00033722330277287025
3943.02,-0.0003418803728479678
3943.92,-0.00034567409651900137
3944.82,-0.0003492095562977252
3945.72,-0.0003530023817535532
3946.62,-0.0003543336959537677
3947.52,-0.0003579531232384644
3948.42,-0.0003583720982045182
3949.32,-0.0003619842301494774
3950.22,-0.0003628573648712232
3951.12,-0.0003621828750484851
3952.02,-0.0003637148364370904
3952.92,-0.0003620316936335345
3953.82,-0.0003629543135452728
3954.72,-0.00036079966532141404
3955.62,-0.0003577919700659386
3956.52,-0.0003537854340478482
3957.42,-0.0003512201494436573
3958.32,-0.00034600767556819677
3959.22,-0.0003393535036262972
3960.12,-0.000331212783967339
3961.02,-0.0003216551824789814
3961.92,-0.00030823816197753226
3962.82,-0.00029383023491550114
3963.72,-0.0002783950158568378
3964.62,-0.00026026065863739013
3965.52,-0.0002410437630490862
3966.42,-0.00021853313557589435
3967.32,-0.0001972818225978374
3968.22,-0.00017905083484564708
3969.12,-0.00016480548145019882
3970.02,-0.00015714206373116502
3970.92,-0.00015938180243706303
3971.82,-0.00016869674850737506
3972.72,-0.00018541085404154623
3973.62,-0.0002084958087017876
3974.52,-0.00023302228707819614
3975.42,-0.00025796762028453896
3976.32,-0.00028229640380796544
3977.22,-0.0003045784552533735
3978.13,-0.00032581062783275865
3979.03,-0.00034670977855183867
3979.93,-0.00036309134077208916
3980.83,-0.00037951081399204613
3981.73,-0.0003934882551105568
3982.63,-0.0004050211034299722
3983.53,-0.00041433133544874266
3984.43,-0.0004237892349656793
3985.33,-0.0004353708083499627
3986.23,-0.000445690048032471
3987.13,-0.0004564912943427624
3988.03,-0.0004664879744914253
3988.93,-0.00047624555617287515
3989.83,-0.0004869524690922496
3990.73,-0.00049674120105667
3991.63,-0.0005064467891974144
3992.53,-0.0005123935109983475
3993.43,-0.0005214222048156276
3994.33,-0.0005223834627812377
3995.23,-0.0005286620510110124
3996.13,-0.0005346107675031537
3997.03,-0.0005334789473120257
3997.93,-0.0005374912002439427
3998.83,-0.00054579811644171
3999.73,-0.0005513825955594825
4000.63,-0.0005634303762199693
4001.53,-0.0005688045300887201
4002.43,-0.0005784197417195749
4003.33,-0.0005826324946993495
4004.23,-0.0005849890784311725
4005.13,-0.0005839166221509579
4006.03,-0.0005853272832436119
4006.93,-0.0005888729565119444
4007.83,-0.0005976746950999375
4008.73,-0.0006061675367305067
4009.63,-0.0006159314919706086
4010.53,-0.0006265571014381224
4011.43,-0.0006307597821994409
4012.33,-0.0006402305243905773
4013.23,-0.0006474279338144872
4014.13,-0.000651696440332286
4015.03,-0.0006540967371037796
4015.93,-0.0006603018905905775
4016.84,-0.0006656489406868223
4017.74,-0.0006707089706125629
4018.64,-0.0006808861654617299
4019.54,-0.000685514414044277
4020.44,-0.0006906139767352324
4021.34,-0.0006989709089279937
4022.24,-0.000703880552580645
4023.14,-0.000701987840529586
4024.04,-0.0007106267875489889
4024.94,-0.000712632631719073
4025.84,-0.0007162091580920641
4026.74,-0.0007224506571546521
4027.64,-0.000727982851659675
4028.54,-0.0007300510379932468
4029.44,-0.0007318719017257796
4030.34,-0.0007271395105351743
4031.24,-0.0007257722516960698
4032.14,-0.0007214531473730272
4033.04,-0.0007222676922604888
4033.94,-0.0007285416193924155
4034.84,-0.0007399312867230823
4035.74,-0.0007539742049734344
4036.64,-0.0007679460470090922
4037.54,-0.0007849336243083044
4038.44,-0.0007960621495769886
4039.34,-0.000801313820698107
4040.24,-0.000808348528132738
4041.14,-0.0008109921130284925
4042.04,-0.0008112627965671199
4042.94,-0.0008063436288993931
4043.84,-0.0008061476844084114
4044.74,-0.0008013107088305191
4045.64,-0.0008001809614307392
4046.54,-0.0007998487006542846
4047.44,-0.0008075049566977672
4048.34,-0.0008190756145193558
4049.24,-0.0008365007336318653
4050.14,-0.0008481782298341957
4051.04,-0.0008585281450009754
4051.94,-0.0008634302241829045
4052.84,-0.0008668202741632782
4053.74,-0.0008691488871628399
4054.65,-0.0008647550267965968
4055.55,-0.0008673720788929032
4056.45,-0.0008633032038364201
4057.35,-0.0008702915630519307
4058.25,-0.0008806724313527509
4059.15,-0.0008858392850657483
4060.05,-0.000893448208547641
4060.95,-0.0009005003517270672
4061.85,-0.0009045839549940816
4062.75,-0.0009059945290287606
4063.65,-0.00090308243373846
4064.55,-0.00090258438965267
4065.45,-0.0009082281034465575
4066.35,-0.000911064612068142
4067.25,-0.0009201313215544055
4068.15,-0.0009328742206053206
4069.05,-0.0009409370808972523
4069.95,-0.0009511219004088538
4070.85,-0.0009497893024605363
4071.75,-0.0009532327445809628
4072.65,-0.000954807721695593
4073.55,-0.0009518544696217715
4074.45,-0.000952153843184346
4075.35,-0.0009512865971665364
4076.25,-0.0009478252875004061
4077.15,-0.000940656761930747
4078.05,-0.00093944317886646
4078.95,-0.0009374584905827877
4079.85,-0.0009446502060736539
4080.75,-0.0009583491617080837
4081.65,-0.0009677198771411714
4082.55,-0.0009749721661183844
4083.45,-0.0009792731952733091
4084.35,-0.0009801875267399964
4085.25,-0.0009743080754802538
4086.15,-0.0009752146520039977
4087.05,-0.000978618919733779
4087.95,-0.0009794396834988171
4088.85,-0.000985014259757142
4089.75,-0.0009808478075910025
4090.65,-0.0009762883271754084
4091.55,-0.0009674311377777836
4092.45,-0.0009510570954104011
4093.36,-0.000935035974995642
4094.26,-0.0009138389082630511
4095.16,-0.0008910364653410716
4096.06,-0.0008619484016992575
4096.96,-0.0008299436436508144
4097.86,-0.0007923219348695605
4098.76,-0.0007488642708239536
4099.66,-0.0007105918982705291
4100.56,-0.000671693636993633
4101.46,-0.0006437791071089212
4102.36,-0.0006295557467234101
4103.26,-0.0006356425966545857
4104.16,-0.000657139618044034
4105.06,-0.000696951398068989
4105.96,-0.0007414976158820016
4106.86,-0.0007976582907038557
4107.76,-0.000849099725475489
4108.66,-0.0008970109673611676
4109.56,-0.0009364246200861723
4110.46,-0.000972415669446468
4111.36,-0.001010033878417138
4112.26,-0.0010444929312744895
4113.16,-0.0010824418799966148
4114.06,-0.0011173581690581025
4114.96,-0.0011447838599421532
4115.86,-0.0011765566336204827
4116.76,-0.001199112808332596
4117.66,-0.001225517064367617
4118.56,-0.0012407774230179976
4119.46,-0.0012565114500426677
4120.36,-0.0012722943110386974
4121.26,-0.0012872522370134018
4122.16,-0.0013004861006184138
4123.06,-0.0013251160403528709
4123.96,-0.001337428003836692
4124.86,-0.0013655221191025619
4125.76,-0.0013819390475282274
4126.66,-0.0013943655692557097
4127.56,-0.0014099945585715418
4128.46,-0.0014162065277531376
4129.36,-0.0014213137095781428
4130.26,-0.0014262971515512418
4131.17,-0.0014337695645497339
4132.06,-0.001448060413372974
4132.97,-0.0014563578274253048
4133.87,-0.0014834434075951888
4134.77,-0.0015007047797897706
4135.67,-0.001529154516716275
4136.57,-0.0015545665453924806
4137.47,-0.0015875373939757825
4138.37,-0.0016131866959701768
4139.27,-0.0016477309480492446
4140.17,-0.001663953481362374
4141.07,-0.0016631996168321936
4141.97,-0.0016721711954320794
4142.87,-0.0016680394995916047
4143.77,-0.0016698342280130284
4144.67,-0.0016770099130985839
4145.57,-0.0016933362226118406
4146.47,-0.001710516549074689
4147.37,-0.0017346639101163141
4148.27,-0.0017597914880634843
4149.17,-0.001774013243376779
4150.07,-0.0017882856439869585
4150.97,-0.0017993485438310395
4151.87,-0.001806406918939128
4152.77,-0.0018167941150571318
4153.67,-0.0018233478076048865
4154.57,-0.0018271270937500123
4155.47,-0.0018427624264716427
4156.37,-0.0018493965942702004
4157.27,-0.0018757359956497765
4158.17,-0.0018970652038882221
4159.07,-0.001919647871035165
4159.97,-0.001954140537802806
4160.87,-0.0019752430080120344
4161.77,-0.0019999657691068613
4162.67,-0.002024617742678516
4163.57,-0.0020392959535347785
4164.47,-0.002053297001584422
4165.37,-0.0020710007052761833
4166.27,-0.00207811337123294
4167.17,-0.002094434856088825
4168.07,-0.0020956615362529157
4168.98,-0.0021129890710021716
4169.88,-0.002106519466985595
4170.78,-0.0021051996751619557
4171.68,-0.0021064992333624257
4172.58,-0.002094066857376609
4173.48,-0.0020946055577227597
4174.38,-0.002100279208767938
4175.28,-0.002116969785231576
4176.18,-0.002130466281072419
4177.08,-0.002152098354927536
4177.98,-0.002181754746346543
4178.88,-0.0022066254730583866
4179.78,-0.0022324827793098337
4180.68,-0.0022571979209137275
4181.58,-0.002284349782453639
4182.48,-0.002317214104843251
4183.38,-0.00234031544248375
4184.28,-0.0023651367424293392
4185.18,-0.002380437960723476
4186.08,-0.0024046491497807404
4186.98,-0.002429657440225377
4187.88,-0.0024351088426307916
4188.78,-0.0024654405087320315
4189.68,-0.0024963446775550864
4190.58,-0.002526269351050555
4191.48,-0.00254450715330831
4192.38,-0.0025836362237927836
4193.28,-0.002606576506027057
4194.18,-0.002631355465329584
4195.08,-0.0026392156516332832
4195.98,-0.002647761583608263
4196.88,-0.0026349617961425494
4197.78,-0.002634530438151698
4198.68,-0.0026362255689757665
4199.58,-0.002648914443554287
4200.48,-0.0026679933738913224
4201.38,-0.002678645228465079
4202.28,-0.0027042894527806232
4203.18,-0.002753267746599733
4204.08,-0.002775611956791849
4204.98,-0.002826042055381415
4205.88,-0.0028596349561193918
4206.79,-0.0029022460658941055
4207.69,-0.002944220529050037
4208.59,-0.0029864535044343945
4209.49,-0.003015750624553963
4210.39,-0.0030525408963856526
4211.29,-0.003077156162010159
4212.19,-0.003088346670869421
4213.09,-0.0031077250027110852
4213.99,-0.00313219319271863
4214.89,-0.0031356890509529837
4215.79,-0.003154569201505131
4216.69,-0.0031535834465562552
4217.59,-0.003197127584390706
4218.49,-0.0032363413293602285
4219.39,-0.0032672140061681967
4220.29,-0.003332464300326712
4221.19,-0.003364416764500096
4222.09,-0.0033776207039976787
4222.99,-0.0033599699962523124
4223.89,-0.0033510053669835557
4224.79,-0.0033221320123007912
4225.69,-0.003276525790147136
4226.59,-0.0032623467177703364
4227.49,-0.003263442822432519
4228.39,-0.003312811265383299
4229.29,-0.0033822588827454635
4230.19,-0.0034611233229761016
4231.09,-0.00355509599321453
4231.99,-0.0035982437163905915
4232.89,-0.003651223169055889
4233.79,-0.0036761971407451056
4234.69,-0.0036948906547053036
4235.59,-0.0037036210445573277
4236.49,-0.0037405090161748084
4237.39,-0.003748815595285268
4238.29,-0.0037749177224456402
4239.19,-0.0038241232725610237
4240.09,-0.003888974153707274
4240.99,-0.003939353261585205
4241.89,-0.00396065171463345
4242.79,-0.0040430591325302115
4243.69,-0.004076340023194909
4244.59,-0.004112678372945817
4245.5,-0.0041330343779389725
4246.4,-0.004152717642522434
4247.3,-0.0041520770747456226
4248.2,-0.004163251529626893
4249.1,-0.004151696626561871
4250.0,-0.004196732073288832
4250.9,-0.00421225449560217
4251.8,-0.004268429628663971
4252.7,-0.004307177808816287
4253.6,-0.004398420764276616
4254.5,-0.00444344490252066
4255.4,-0.004496053238264616
4256.3,-0.004539296063200961
4257.2,-0.004570861551081382
4258.1,-0.004607878649720314
4259.0,-0.004631635309163404
4259.9,-0.004630156903039131
4260.8,-0.004676736496592109
4261.7,-0.004715879108965309
4262.6,-0.004781435206384734
4263.5,-0.0048412747582127205
4264.4,-0.00493408660676541
4265.3,-0.005012409924270101
4266.2,-0.005077416547518937
4267.1,-0.005098594072579415
4268.0,-0.00515182540858218
4268.9,-0.00508939414905371
4269.8,-0.005107205114779684
4270.7,-0.005046329402671152
4271.6,-0.005049889764458923
4272.5,-0.005037878004503427
4273.4,-0.0050438828502806935
4274.3,-0.005084209783943834
4275.2,-0.005179179462333054
4276.1,-0.005278980165199419
4277.0,-0.005384475005990285
4277.9,-0.005479406420701336
4278.8,-0.005563978005051939
4279.7,-0.00564533832321707
4280.6,-0.00567778252416142
4281.5,-0.005714871361898958
4282.4,-0.005743535658107679
4283.31,-0.005777433113159095
