wave,flux
3700.85,-0.00011682682579191686
3701.75,-0.00011595988588797736
3702.65,-0.00011275718946823435
3703.55,-0.00010868981027567719
3704.45,-0.00010351579843436553
3705.35,-0.00010003005152175822
3706.25,-9.722993678729297e-05
3707.15,-9.654084545497462e-05
3708.05,-9.773255633553606e-05
3708.96,-9.988918412825632e-05
3709.86,-0.00010257004394067587
3710.76,-0.00010598775212218913
3711.66,-0.00010993367916144864
3712.56,-0.00011475123128036758
3713.46,-0.00012029901097624417
3714.36,-0.0001249989166370364
3715.26,-0.00012826343068108917
3716.16,-0.00013037400919068426
3717.06,-0.0001292282852621737
3717.96,-0.0001258148508668686
3718.86,-0.00011953343989893956
3719.76,-0.00011233761741589841
3720.66,-0.00010540794339410554
3721.56,-0.00010064866853224049
3722.46,-9.944396986242422e-05
3723.36,-0.00010333195016903246
3724.26,-0.00010919688363126686
3725.16,-0.0001158595582467703
3726.06,-0.00012212184485372278
3726.96,-0.00012628321192735203
3727.86,-0.00012826958745524184
3728.76,-0.0001294544419495211
3729.66,-0.0001299309859774238
3730.56,-0.00012786431944884912
3731.46,-0.0001248358441555847
3732.36,-0.00011920269095444718
3733.26,-0.00011175444945673363
3734.16,-0.00010474186807293736
3735.06,-9.92935411978749e-05
3735.96,-9.749682335745453e-05
3736.86,-9.905409466506545e-05
3737.76,-0.0001041438123372308
3738.66,-0.00011291654603940122
3739.56,-0.00012123655603045633
3740.46,-0.00012986338897761
3741.36,-0.0001358367151121246
3742.26,-0.00013853740763000174
3743.16,-0.00013714042433457855
3744.06,-0.0001344898412772566
3744.96,-0.00012960007735319983
3745.86,-0.00012395168264532438
3746.76,-0.00011797498543184851
3747.67,-0.00011310993017952991
3748.57,-0.00010951942933075706
3749.47,-0.00010730470520502071
3750.37,-0.00010898012036386395
3751.27,-0.00011540984819412235
3752.17,-0.000125224069854139
3753.07,-0.0001352213857497791
3753.97,-0.00014673628662158748
3754.87,-0.00015492180582051866
3755.77,-0.00016044747940615996
3756.67,-0.00016082351669959212
3757.57,-0.00015784890722456856
3758.47,-0.00015322396859379942
3759.37,-0.00015072122980516693
3760.27,-0.00014960804324339638
3761.17,-0.00015085304814910924
3762.07,-0.0001542647398224947
3762.97,-0.00015810388565079745
3763.87,-0.00016135118939749187
3764.77,-0.00016390691472798713
3765.67,-0.00016425711495123528
3766.57,-0.0001643076033807401
3767.47,-0.00016295395636334789
3768.37,-0.00016101640879734346
3769.27,-0.00015893569287672382
3770.17,-0.00015962208401387978
3771.07,-0.00016124771349080344
3771.97,-0.00016439174344100795
3772.87,-0.00016992905588724655
3773.77,-0.00017632189942595796
3774.67,-0.0001829690824201479
3775.57,-0.00018844696871574414
3776.47,-0.00019388164982433103
3777.37,-0.00019846771322774802
3778.27,-0.00020207982781514575
3779.17,-0.00020659427607669392
3780.07,-0.0002125323216766422
3780.97,-0.00021823078558803847
3781.87,-0.00022107982761818528
3782.77,-0.00022395380964775389
3783.67,-0.00022450742859338375
3784.57,-0.00022297843451558408
3785.47,-0.00021913005044147104
3786.38,-0.00021504338974790322
3787.28,-0.00020996895043870982
3788.18,-0.00020576625615669448
3789.08,-0.00020311811177925465
3789.98,-0.0002013776338915344
3790.88,-0.00020057456725754104
3791.78,-0.00020084481803443215
3792.68,-0.00019995977175495404
3793.58,-0.00019733643279537215
3794.48,-0.0001924561910207536
3795.38,-0.00018762681144696193
3796.28,-0.0001806481640935744
3797.18,-0.00017552267459051667
3798.08,-0.00017257841250419947
3798.98,-0.000174402914037043
3799.88,-0.00017977458623292492
3800.78,-0.0001897855241582135
3801.68,-0.0002036297694766474
3802.58,-0.00021708730019082863
3803.48,-0.00022940649632413701
3804.38,-0.0002384041909337359
3805.28,-0.00024410747626429336
3806.18,-0.0002486001660693806
3807.08,-0.0002486711601680161
3807.98,-0.0002508645016365484
3808.88,-0.00025335949259736496
3809.78,-0.00025703470665380785
3810.68,-0.0002591552678493638
3811.58,-0.00025689277035694603
3812.48,-0.00025476994635259184
3813.38,-0.00024895991070493875
3814.28,-0.00024259677404383045
3815.18,-0.00023641842484126144
3816.08,-0.0002335352142938505
3816.98,-0.00023310653713250865
3817.88,-0.00023321422929607476
3818.78,-0.0002334768251246911
3819.68,-0.0002341644556020311
3820.58,-0.00023148167325297343
3821.48,-0.00022993573448603795
3822.38,-0.0002292735622874483
3823.28,-0.00022746780604907603
3824.18,-0.00022539800369026562
3825.09,-0.00022025309968373867
3825.99,-0.0002161626214141506
3826.89,-0.00021224509063267442
3827.79,-0.0002095156761765504
3828.69,-0.0002088423014480832
3829.59,-0.00020802342236364576
3830.49,-0.00020539918333552568
3831.39,-0.0002004608257111215
3832.29,-0.00019503872055030025
3833.19,-0.00018836789488007975
3834.09,-0.0001822958885396725
3834.99,-0.00017745599788225846
3835.89,-0.0001769335142276074
3836.79,-0.00017828181680988326
3837.69,-0.00018275876044579868
3838.59,-0.00018789348373992562
3839.49,-0.0001967953715601539
3840.39,-0.00020728765241064207
3841.29,-0.00022098428057062606
3842.19,-0.00023687548745261034
3843.09,-0.0002538440453207594
3843.99,-0.00027018845127868926
3844.89,-0.00028312807735550986
3845.79,-0.0002947188983182438
3846.69,-0.00030251627358289827
3847.59,-0.00030696360463352505
3848.49,-0.00031057985399618644
3849.39,-0.0003125800081373966
3850.29,-0.00031392687805666076
3851.19,-0.00031597323002459057
3852.09,-0.00031796880269076457
3852.99,-0.00032021911949045
3853.89,-0.0003242035128272058
3854.79,-0.0003229987761286231
3855.69,-0.0003189660439137158
3856.59,-0.0003142071689495251
3857.49,-0.00030931820743231904
3858.39,-0.0003025083246616967
3859.29,-0.00029857351089490933
3860.19,-0.000298273261091485
3861.09,-0.0003034894347282925
3861.99,-0.0003136442838639856
3862.9,-0.0003263261919638557
3863.8,-0.00033668700476089346
3864.7,-0.0003476986766524194
3865.6,-0.00035330496312835824
3866.5,-0.00035705891359567117
3867.4,-0.00035852092839768314
3868.3,-0.0003591460035108152
3869.2,-0.0003558650715968324
3870.1,-0.0003530729666472045
3871.0,-0.0003461193371884664
3871.9,-0.0003402105718034487
3872.8,-0.0003344475493490515
3873.7,-0.0003332985856363154
3874.6,-0.0003363419334127087
3875.5,-0.00034011738759888
3876.4,-0.00034430744648478217
3877.3,-0.00034835745260211143
3878.2,-0.0003460778299499411
3879.1,-0.0003475833096095142
3880.0,-0.0003468370465805035
3880.9,-0.0003498855734847551
3881.8,-0.0003520925479803224
3882.7,-0.00035159361974127466
3883.6,-0.00035030815416503287
3884.5,-0.0003443468846081252
3885.4,-0.00033827948848400377
3886.3,-0.0003257773254094521
3887.2,-0.0003157310139133398
3888.1,-0.00030613288435001106
3889.0,-0.0003016691425681744
3889.9,-0.00030478276114494717
3890.8,-0.00031563455326553985
3891.7,-0.00033024396234234175
3892.6,-0.00034591602665560414
3893.5,-0.00036116682052139964
3894.4,-0.0003751898236750062
3895.3,-0.000385268186415431
3896.2,-0.0003936375512479248
3897.1,-0.0004007599415164554
3898.0,-0.0004065835366547336
3898.9,-0.0004116716219684487
3899.8,-0.0004169255829815496
3900.7,-0.00041982478341136953
3901.6,-0.00042453733219779136
3902.51,-0.0004252960599319151
3903.41,-0.0004265064994046377
3904.31,-0.00042519595967349677
3905.21,-0.00042367376327480925
3906.11,-0.00042627255076879586
3907.01,-0.00043182829771550696
3907.91,-0.0004418248609953988
3908.81,-0.0004562782085258073
3909.71,-0.0004699136983823214
3910.61,-0.0004827155010804459
3911.51,-0.000496324530265113
3912.41,-0.0005040867919743544
3913.31,-0.0005064447913281237
3914.21,-0.000507907353894784
3915.11,-0.0005066309557376998
3916.01,-0.0005034527549465172
3916.91,-0.0004986360285722841
3917.81,-0.000493513736821389
3918.71,-0.00048310150402389
3919.61,-0.00047863437068842903
3920.51,-0.00047085201076504745
3921.41,-0.00046466265808168774
3922.31,-0.0004637582334599541
3923.21,-0.00046017715291632536
3924.11,-0.0004567810992019527
3925.01,-0.00045089035485736063
3925.91,-0.00043926968541108406
3926.81,-0.0004196643700233247
3927.71,-0.0003938470391540343
3928.61,-0.0003613499168848612
3929.51,-0.000324087030827359
3930.41,-0.00028477520128024277
3931.31,-0.0002459798943785276
3932.21,-0.00021162753426845417
3933.11,-0.00018450350117745772
3934.01,-0.00016916658092933271
3934.91,-0.00016916407345252948
3935.81,-0.00018337992873006354
3936.71,-0.00021052093946695511
3937.61,-0.00024799661068615963
3938.51,-0.0002926928026772805
3939.42,-0.00033876421566634684
3940.32,-0.00037923135205142843
3941.22,-0.00041786271928084535
3942.12,-0.0004452940742252526
3943.02,-0.0004706877449575588
3943.92,-0.0004890552720670138
3944.82,-0.0005095451577051156
3945.72,-0.0005266244282134422
3946.62,-0.000546518355762272
3947.52,-0.0005655043641035776
3948.42,-0.000580788032880815
3949.32,-0.0005934079891488091
3950.22,-0.0006060822818733249
3951.12,-0.0006191018350575699
3952.02,-0.0006284972474662479
3952.92,-0.0006365153569404525
3953.82,-0.0006423249024031634
3954.72,-0.0006479298998072209
3955.62,-0.0006552988151211743
3956.52,-0.0006537190773098474
3957.42,-0.0006499269825222311
3958.32,-0.0006468087828640468
3959.22,-0.0006404647732127689
3960.12,-0.0006291981781337935
3961.02,-0.0006087776828665096
3961.92,-0.0005787193286674976
3962.82,-0.0005470476181061775
3963.72,-0.0005081566959333289
3964.62,-0.0004636027528635173
3965.52,-0.000417026144125732
3966.42,-0.00036828243017780434
3967.32,-0.00032072104030082745
3968.22,-0.0002829892435542684
3969.12,-0.00026055181024432935
3970.02,-0.0002588102015037492
3970.92,-0.00027641778209250756
3971.82,-0.00031532964405445846
3972.72,-0.0003662510021636937
3973.62,-0.00042682044518614105
3974.52,-0.0004883252162833316
3975.42,-0.0005467708843624599
3976.32,-0.0006008052888037037
3977.22,-0.000653662849040442
3978.13,-0.0007012019271983906
3979.03,-0.0007372623304748273
3979.93,-0.0007707095392554952
3980.83,-0.0007939234302053781
3981.73,-0.0008123644730091044
3982.63,-0.0008239713272201241
3983.53,-0.0008365841067305713
3984.43,-0.0008514796812754393
3985.33,-0.000861575445892432
3986.23,-0.0008746391448278551
3987.13,-0.0008892301198826722
3988.03,-0.0009036010877303449
3988.93,-0.0009171507830190247
3989.83,-0.0009358565192383486
3990.73,-0.0009499441926841152
3991.63,-0.000962137889987937
3992.53,-0.0009660662099511746
3993.43,-0.0009814176885798113
3994.33,-0.0009822450907929702
3995.23,-0.000989901652033611
3996.13,-0.0009797220584541822
3997.03,-0.0009762028635172155
3997.93,-0.0009787819631859125
3998.83,-0.000985486242607163
3999.73,-0.0009961620140767457
4000.63,-0.0010186586513351004
4001.53,-0.0010364932369881117
4002.43,-0.0010559550653751633
4003.33,-0.0010624842704593574
4004.23,-0.0010592097793180745
4005.13,-0.0010602333976889055
4006.03,-0.0010529662338525448
4006.93,-0.0010540696488685628
4007.83,-0.0010627787818118563
4008.73,-0.001083738965718193
4009.63,-0.0011072608034198976
4010.53,-0.0011294704753498227
4011.43,-0.0011458822099160765
4012.33,-0.0011615710329954238
4013.23,-0.001174520897251008
4014.13,-0.001182467864306249
4015.03,-0.0011900185235115626
4015.93,-0.0011995333877900653
4016.84,-0.0012060385812883634
4017.74,-0.0012158970563606582
4018.64,-0.0012340308226722017
4019.54,-0.0012428316857214761
4020.44,-0.0012521112253310355
4021.34,-0.00125913917222893
4022.24,-0.0012711765203580851
4023.14,-0.0012736118572486367
4024.04,-0.0012828073661166426
4024.94,-0.0012927805095371496
4025.84,-0.0013104127918953485
4026.74,-0.0013203926087828094
4027.64,-0.0013286624803727199
4028.54,-0.0013401704944303698
4029.44,-0.001336295249203169
4030.34,-0.0013230937038031373
4031.24,-0.0013075261807640023
4032.14,-0.0012841312193966018
4033.04,-0.0012812073293588704
4033.94,-0.0012886453643845565
4034.84,-0.001314073927830855
4035.74,-0.0013426157150368736
4036.64,-0.0013889851817432638
4037.54,-0.0014306777299376203
4038.44,-0.0014648712687298647
4039.34,-0.0014925829142724122
4040.24,-0.0015051637346534582
4041.14,-0.001515634765728963
4042.04,-0.0014976643001228132
4042.94,-0.0014819633554048598
4043.84,-0.0014633161824649504
4044.74,-0.0014366087072028137
4045.64,-0.00141473273748368
4046.54,-0.0014132493336130123
4047.44,-0.0014227589421713428
4048.34,-0.0014601646226887843
4049.24,-0.0014987015572587117
4050.14,-0.00155002783891493
4051.04,-0.0015843782038861415
4051.94,-0.0016057888580141512
4052.84,-0.0016218802653895162
4053.74,-0.0016286980090470316
4054.65,-0.001627139990421088
4055.55,-0.0016356384333117147
4056.45,-0.0016276954882739276
4057.35,-0.0016369906089995097
4058.25,-0.0016497828206518828
4059.15,-0.0016570424696237573
4060.05,-0.001673591726957556
4060.95,-0.001672030393239679
4061.85,-0.0016818084757336737
4062.75,-0.0016715350642552418
4063.65,-0.00165040101182589
4064.55,-0.0016506313847086456
4065.45,-0.0016486943256327244
4066.35,-0.0016643654045689976
4067.25,-0.0017005342975162834
4068.15,-0.0017337257533578305
4069.05,-0.001759058395825009
4069.95,-0.0017937771303362091
4070.85,-0.0018093805342573996
4071.75,-0.0018181040396723239
4072.65,-0.0018294003043129534
4073.55,-0.0018269393116223701
4074.45,-0.0018266205517413058
4075.35,-0.0018213689846739267
4076.25,-0.001801830037356987
4077.15,-0.001785076692357661
4078.05,-0.0017900402689443786
4078.95,-0.0018011552530988384
4079.85,-0.0018341624268633605
4080.75,-0.0018783294859672037
4081.65,-0.0019332403101238534
4082.55,-0.001976402087111241
4083.45,-0.002009646490654323
4084.35,-0.0020454958039508816
4085.25,-0.002065145801376724
4086.15,-0.0021030802568941546
4087.05,-0.0021488249625144975
4087.95,-0.0021962739760818632
4088.85,-0.0022445399889882097
4089.75,-0.002266691721609074
4090.65,-0.00230129265667423
4091.55,-0.0023216287996410553
4092.45,-0.002322424931381761
4093.36,-0.0023183168342720164
4094.26,-0.002301390768203493
4095.16,-0.0022853239860777808
4096.06,-0.0022616246364069686
4096.96,-0.0022143267126176307
4097.86,-0.0021758651355652707
4098.76,-0.002115864826140778
4099.66,-0.002045253750915803
4100.56,-0.0019878944107571935
4101.46,-0.001935068132901042
4102.36,-0.0019064588481595014
4103.26,-0.0019152359076546929
4104.16,-0.0019749473964390577
4105.06,-0.0020583326346288143
4105.96,-0.002154048209287786
4106.86,-0.002253330722443211
4107.76,-0.0023434128351367397
4108.66,-0.002412901255219002
4109.56,-0.0024652630923796865
4110.46,-0.002497923998751848
4111.36,-0.0025203528731897536
4112.26,-0.002576558263716679
4113.16,-0.0026139191033527553
4114.06,-0.0026590318969445885
4114.96,-0.0026950502461769643
4115.86,-0.0027430487357084908
4116.76,-0.0027716322899997113
4117.66,-0.002779056835688804
4118.56,-0.002794932326693795
4119.46,-0.0027794260276981266
4120.36,-0.002790979723708765
4121.26,-0.0028039184813453137
4122.16,-0.0028251936080906513
4123.06,-0.0028402872963609305
4123.96,-0.0028840318734838733
4124.86,-0.0029175264690526237
4125.76,-0.0029453402620929687
4126.66,-0.002979836340446979
4127.56,-0.0029821349974004647
4128.46,-0.002993837929214648
4129.36,-0.0029956687900165656
4130.26,-0.002992392573121327
4131.17,-0.0029719796228078414
4132.06,-0.0029667871627868814
4132.97,-0.0029773504638636993
4133.87,-0.002988671921675362
4134.77,-0.003032116136060748
4135.67,-0.00308197022323579
4136.57,-0.0031640034417351466
4137.47,-0.00324183438135549
4138.37,-0.003301224808143964
4139.27,-0.0033629254287556097
4140.17,-0.0034065097016777535
4141.07,-0.0033932932536452905
4141.97,-0.003369044296589253
4142.87,-0.003329214861711486
4143.77,-0.003304118983812099
4144.67,-0.0032993758494233344
4145.57,-0.0033260860255639843
4146.47,-0.0033929173630674356
4147.37,-0.003450753243165427
4148.27,-0.0035421196108141556
4149.17,-0.0035737028930581103
4150.07,-0.0036305365543567733
4150.97,-0.003624753926498143
4151.87,-0.003654853711773241
4152.77,-0.003668283007126328
4153.67,-0.003670932819308705
4154.57,-0.003690455443052398
4155.47,-0.0037126863680975075
4156.37,-0.0037473358733793945
4157.27,-0.0038015811423770746
4158.17,-0.0038464770666850794
4159.07,-0.003935504273430261
4159.97,-0.003978028422651007
4160.87,-0.004050905957097275
4161.77,-0.0041179808658967625
4162.67,-0.0041729479817525375
4163.57,-0.004217223271975613
4164.47,-0.004252918464016224
4165.37,-0.004284172207143489
4166.27,-0.004294659163901335
4167.17,-0.00429536648290684
4168.07,-0.004293184580366115
4168.98,-0.004300765626591416
4169.88,-0.00428116294780322
4170.78,-0.004258052884350204
4171.68,-0.0042184862991636336
4172.58,-0.004187323795436535
4173.48,-0.004162906709673526
4174.38,-0.0041778850373970205
4175.28,-0.0041871830214358354
4176.18,-0.004242800824239917
4177.08,-0.004311138448356929
4177.98,-0.004397112692502791
4178.88,-0.004497465154725262
4179.78,-0.004578943999478259
4180.68,-0.004647549535709889
4181.58,-0.004717262686454766
4182.48,-0.004757739916498371
4183.38,-0.00479682613676417
4184.28,-0.004841681723788261
4185.18,-0.004844746591645297
4186.08,-0.004890186543286082
4186.98,-0.00489473289160639
4187.88,-0.0049256389654299204
4188.78,-0.0049607907676887265
4189.68,-0.005006228053829733
4190.58,-0.0050798906005294015
4191.48,-0.005138286998257441
4192.38,-0.005256558709420064
4193.28,-0.005337988874087358
4194.18,-0.005358588069768708
4195.08,-0.005416365795346144
4195.98,-0.005403030861066285
4196.88,-0.005361491244696076
4197.78,-0.00535382860837562
4198.68,-0.00531964753636485
4199.58,-0.005293748344820245
4200.48,-0.005283495508340217
4201.38,-0.005314520026159732
4202.28,-0.0053799810736302744
4203.18,-0.005447443953533483
4204.08,-0.005559143133973068
4204.98,-0.005623941521426312
4205.88,-0.005741480981770781
4206.79,-0.0058823613184677236
4207.69,-0.005983005527691526
4208.59,-0.006097194638053831
4209.49,-0.006214567775559452
4210.39,-0.006268566179275775
4211.29,-0.006328372309635365
4212.19,-0.006350619342369093
4213.09,-0.006415396149973188
4213.99,-0.006411646344741466
4214.89,-0.0063914349609889304
4215.79,-0.006379765679119209
4216.69,-0.006400073712099278
4217.59,-0.006445144585948537
4218.49,-0.006541685521203899
4219.39,-0.006680347808612751
4220.29,-0.006755389063951328
4221.19,-0.006819374281919212
4222.09,-0.006865080572601009
4222.99,-0.0067945840484201665
4223.89,-0.0066979709734947225
4224.79,-0.006535679766130495
4225.69,-0.006346779970726765
4226.59,-0.006210911032968395
4227.49,-0.006195889903002364
4228.39,-0.006273522813972642
4229.29,-0.006521202997549921
4230.19,-0.00678932932468176
4231.09,-0.0070422333241755685
4231.99,-0.007281472781610433
4232.89,-0.007458131193613837
4233.79,-0.007493859166081611
4234.69,-0.007584445429202488
4235.59,-0.007567412732861123
4236.49,-0.00759815077722791
4237.39,-0.007612047642030894
4238.29,-0.007696410841824612
4239.19,-0.007814854111982038
4240.09,-0.007949189758239496
4240.99,-0.008098943698120954
4241.89,-0.008245970184690176
4242.79,-0.008383938730215382
4243.69,-0.008509888274665502
4244.59,-0.008605805602905596
4245.5,-0.008658464770791232
4246.4,-0.008682957078557006
4247.3,-0.008653798755760882
4248.2,-0.008654054824555012
4249.1,-0.008621527034882025
4250.0,-0.008606951507558257
4250.9,-0.008700507274827454
4251.8,-0.00875429463852084
4252.7,-0.008912036927102775
4253.6,-0.00907400656570059
4254.5,-0.009150830158017459
4255.4,-0.009318184395637653
4256.3,-0.009388205146095542
4257.2,-0.009498903799541122
4258.1,-0.009548272617136248
4259.0,-0.009633956815591494
4259.9,-0.009652481801982044
4260.8,-0.009703682902869108
4261.7,-0.009791678294469126
4262.6,-0.009977648240481701
4263.5,-0.01021393436110233
4264.4,-0.010496363961690857
4265.3,-0.010667920740329455
4266.2,-0.010853136313721697
4267.1,-0.010907079779533231
4268.0,-0.010969837899995559
4268.9,-0.010872292478896409
4269.8,-0.010762825858080907
4270.7,-0.010619348916923272
4271.6,-0.010448074418883579
4272.5,-0.010363412693844748
4273.4,-0.01033392565409092
4274.3,-0.010457098763431615
4275.2,-0.01058613651684027
4276.1,-0.010893591572157286
4277.0,-0.01128079040746432
4277.9,-0.01154191660573135
4278.8,-0.011768071920085159
4279.7,-0.011952402354175287
4280.6,-0.012136726326037841
4281.5,-0.012201847086035672
4282.4,-0.012194857662314167
4283.31,-0.012278677703826128
4284.21,-0.012325301121713742
