wave,flux
3700.85,0.01832431789963459
3701.75,0.01825075691996588
3702.65,0.017702821200397446
3703.55,0.016909204443244612
3704.45,0.015863589013831187
3705.35,0.014956656891431348
3706.25,0.014304076959056255
3707.15,0.013986601542546273
3708.05,0.014048338897609657
3708.96,0.014563862349067076
3709.86,0.015413539188507797
3710.76,0.016444797069045367
3711.66,0.01781467796696793
3712.56,0.019245283181376572
3713.46,0.02049101330982213
3714.36,0.021561027841195728
3715.26,0.021955455273593244
3716.16,0.02180696230535937
3717.06,0.021246307203757614
3717.96,0.020084748194729014
3718.86,0.018491021056373926
3719.76,0.0169550477946631
3720.66,0.015551672022618555
3721.56,0.014896217522666002
3722.46,0.014970130068561441
3723.36,0.015916541573721053
3724.26,0.017270587506318148
3725.16,0.018831007991724415
3726.06,0.020058712320290464
3726.96,0.02088023028067078
3727.86,0.021358241270326428
3728.76,0.0215014421806969
3729.66,0.02142778842991863
3730.56,0.02128162337386059
3731.46,0.020526940292955684
3732.36,0.01946386303114222
3733.26,0.017995343340394807
3734.16,0.016538052946281474
3735.06,0.015423922752634496
3735.96,0.014760476792913046
3736.86,0.015057722508194099
3737.76,0.016187722726139307
3738.66,0.01802534238086233
3739.56,0.02009015188476823
3740.46,0.021985974328306086
3741.36,0.02342224198037428
3742.26,0.02392659424274956
3743.16,0.023615933803917293
3744.06,0.02258305928663851
3744.96,0.021546247105935733
3745.86,0.020254056445482505
3746.76,0.01907988399011711
3747.67,0.018319744222962325
3748.57,0.017928266389370895
3749.47,0.018207765040364643
3750.37,0.019327880790852264
3751.27,0.021265451709758475
3752.17,0.02371326471969344
3753.07,0.02678646160628823
3753.97,0.02928706821144819
3754.87,0.03132286379118976
3755.77,0.03236398186804352
3756.67,0.03204731612018917
3757.57,0.031245487043106184
3758.47,0.029944702590290046
3759.37,0.028808554680351664
3760.27,0.02862415252898402
3761.17,0.029044182680456252
3762.07,0.029809458792715817
3762.97,0.030727522913149317
3763.87,0.03141981460386871
3764.77,0.03210663049997701
3765.67,0.03249716055475691
3766.57,0.03305145609089967
3767.47,0.033582471691412
3768.37,0.03440665610938756
3769.27,0.03546978760716566
3770.17,0.03671391073843008
3771.07,0.03820259672895648
3771.97,0.039867932685547273
3772.87,0.041655136452391814
3773.77,0.043274907292332854
3774.67,0.04482104265483351
3775.57,0.045944752306858544
3776.47,0.046926569279391525
3777.37,0.04779163451221026
3778.27,0.049239803219081085
3779.17,0.050401630747690454
3780.07,0.052051644650675605
3780.97,0.053652803075984946
3781.87,0.054945782980662224
3782.77,0.05589529808009907
3783.67,0.05631808846091005
3784.57,0.05602763448101165
3785.47,0.055042797975149285
3786.38,0.05334915342874219
3787.28,0.051295056766597284
3788.18,0.04943063530169116
3789.08,0.04810250713896415
3789.98,0.04805686700032476
3790.88,0.048519225158654165
3791.78,0.04891556491619375
3792.68,0.04940415504363508
3793.58,0.049451142616940474
3794.48,0.04901159122586032
3795.38,0.04825476758120433
3796.28,0.04718189010282779
3797.18,0.0464369319707416
3798.08,0.04619441288487695
3798.98,0.046900100384221655
3799.88,0.04898502205804322
3800.78,0.05217686487355422
3801.68,0.05651811327921423
3802.58,0.06093782594748082
3803.48,0.06516528070107849
3804.38,0.06848350604084633
3805.28,0.07008300549313332
3806.18,0.0711840404669962
3807.08,0.07139807982756272
3807.98,0.07242946199015426
3808.88,0.07312869348347956
3809.78,0.07456680452939447
3810.68,0.0756475086156287
3811.58,0.07588670669262197
3812.48,0.07513326495664834
3813.38,0.07255770270254333
3814.28,0.06997237320339529
3815.18,0.0670726288239302
3816.08,0.0650283271913011
3816.98,0.06435885445593666
3817.88,0.06416995519391065
3818.78,0.06388221417084408
3819.68,0.06360702857838484
3820.58,0.0630571164576622
3821.48,0.06262241936266884
3822.38,0.062045447706625484
3823.28,0.0619056812028975
3824.18,0.0611479082664358
3825.09,0.060210553928680736
3825.99,0.058711516489256266
3826.89,0.057626013363244535
3827.79,0.05711778588181925
3828.69,0.057661691912900784
3829.59,0.05862351208879895
3830.49,0.05925121419402852
3831.39,0.05946675892923495
3832.29,0.05919703375769548
3833.19,0.058548449075003416
3834.09,0.058253680874215626
3834.99,0.058453695993510406
3835.89,0.05945716126800178
3836.79,0.060469793089414664
3837.69,0.06196802952246054
3838.59,0.06290366690943626
3839.49,0.06487631365765768
3840.39,0.06839325855660068
3841.29,0.07313871021821779
3842.19,0.08073082394310704
3843.09,0.08844830469442928
3843.99,0.09677968461088818
3844.89,0.10381585596025981
3845.79,0.10970160757367911
3846.69,0.1137045283314258
3847.59,0.11544014596895336
3848.49,0.11814535860110793
3849.39,0.11873192361488333
3850.29,0.118761306262693
3851.19,0.12045344623294517
3852.09,0.12121861529268207
3852.99,0.12318767237539086
3853.89,0.12361491038122303
3854.79,0.12399879593154788
3855.69,0.12216876329810286
3856.59,0.11967318009840229
3857.49,0.11570168117186741
3858.39,0.11347190610211651
3859.29,0.11172399099241606
3860.19,0.1123824548225008
3861.09,0.1157685125834082
3861.99,0.12252086355688556
3862.9,0.13156813306857346
3863.8,0.1402055163433744
3864.7,0.1469642859092826
3865.6,0.1519806451636488
3866.5,0.15419705303778253
3867.4,0.15490230901635646
3868.3,0.15482622608235486
3869.2,0.1531739374868438
3870.1,0.15122827126732646
3871.0,0.14847447653142404
3871.9,0.14700215472120076
3872.8,0.14754546903887833
3873.7,0.15111954142003967
3874.6,0.1568567338935786
3875.5,0.16311962116620946
3876.4,0.16792568272423644
3877.3,0.17042495424088394
3878.2,0.1702116852090977
3879.1,0.16920832513545764
3880.0,0.1699675606071334
3880.9,0.17182495983071774
3881.8,0.17387865212777792
3882.7,0.17761272008145448
3883.6,0.17933722797297624
3884.5,0.18144006847204522
3885.4,0.1814793887854708
3886.3,0.1796401353633006
3887.2,0.17852735805625863
3888.1,0.17864022111289535
3889.0,0.18281314133306875
3889.9,0.190619743243364
3890.8,0.20238721840565907
3891.7,0.2172240248931631
3892.6,0.23053666605089776
3893.5,0.2410314264667854
3894.4,0.2501234120476914
3895.3,0.25733815703975743
3896.2,0.2612961856180036
3897.1,0.2667533220560033
3898.0,0.27031935697704057
3898.9,0.27496647795941914
3899.8,0.2796079047800972
3900.7,0.2828227918022567
3901.6,0.28496379639272074
3902.51,0.2870648717940806
3903.41,0.286998276609128
3904.31,0.2868876593497951
3905.21,0.2881329508843781
3906.11,0.2910047609609886
3907.01,0.2996325652616758
3907.91,0.3116165589507876
3908.81,0.32726398850119626
3909.71,0.34384508251922896
3910.61,0.3586020567762531
3911.51,0.3724416795541566
3912.41,0.38326013843912415
3913.31,0.38897635636974165
3914.21,0.3933275490307145
3915.11,0.39300058559648937
3916.01,0.39315600119222316
3916.91,0.3891909701326857
3917.81,0.3840231646607984
3918.71,0.37632804896323396
3919.61,0.3679477571201881
3920.51,0.3588191388227793
3921.41,0.34972167084318045
3922.31,0.3459206604120498
3923.21,0.34421664483926934
3924.11,0.34288103922889424
3925.01,0.33959409509384086
3925.91,0.33191257276228636
3926.81,0.31790774401009003
3927.71,0.29746231181381355
3928.61,0.27155371626069547
3929.51,0.24327268782829092
3930.41,0.21412683270459362
3931.31,0.18737016403016613
3932.21,0.1643569171063019
3933.11,0.14762905153536973
3934.01,0.13920996502381272
3934.91,0.13926407208486918
3935.81,0.1501481699886701
3936.71,0.17116812862543876
3937.61,0.20009409900667216
3938.51,0.23330293782330347
3939.42,0.26869932232010857
3940.32,0.303265993128377
3941.22,0.33143512193142394
3942.12,0.35646152223852806
3943.02,0.37518300346274197
3943.92,0.3942435051972384
3944.82,0.414389587844984
3945.72,0.4363239062984636
3946.62,0.4607624565313023
3947.52,0.48922940635709966
3948.42,0.5133544023413348
3949.32,0.5360434694828574
3950.22,0.5540951781629297
3951.12,0.5713188903135019
3952.02,0.5839981219275779
3952.92,0.596526106471598
3953.82,0.6020656419738765
3954.72,0.6081772446271713
3955.62,0.6106763403712648
3956.52,0.6109878434369118
3957.42,0.6073942173698246
3958.32,0.6003858083598802
3959.22,0.5869005764782462
3960.12,0.5674505389250982
3961.02,0.5429388217736144
3961.92,0.5047385999740673
3962.82,0.46841744735662355
3963.72,0.428059534777296
3964.62,0.3883312493787623
3965.52,0.3513534584865475
3966.42,0.31324052170801575
3967.32,0.2765239049181215
3968.22,0.24867745866646698
3969.12,0.23397100421197445
3970.02,0.23293031767657651
3970.92,0.25049554583557126
3971.82,0.2834603385342456
3972.72,0.327287239140275
3973.62,0.37931536748784783
3974.52,0.4365713681400093
3975.42,0.4900711388883493
3976.32,0.5462963819251517
3977.22,0.5998067001924021
3978.13,0.6478777249397267
3979.03,0.6951940706567362
3979.93,0.7280605127144574
3980.83,0.7576064604672879
3981.73,0.7736884630246712
3982.63,0.789803313760204
3983.53,0.8040058957423918
3984.43,0.8123719019787788
3985.33,0.8215684667917232
3986.23,0.8332034589881014
3987.13,0.8493451435828261
3988.03,0.8648388057467922
3988.93,0.8793066027672396
3989.83,0.8970109277111548
3990.73,0.9048887510204745
3991.63,0.9135283319925948
3992.53,0.9250936209319955
3993.43,0.9273712856087779
3994.33,0.9264183433642493
3995.23,0.9226603580252508
3996.13,0.9160781143406124
3997.03,0.9124597889127495
3997.93,0.9102433862045954
3998.83,0.9208047479086562
3999.73,0.9357272082341253
4000.63,0.9527545680429453
4001.53,0.9685431238171524
4002.43,0.9816316389432401
4003.33,0.9775406833033458
4004.23,0.9669866717431151
4005.13,0.9529348552415898
4006.03,0.9402179597529587
4006.93,0.9340847209216625
4007.83,0.9402756549045239
4008.73,0.9532831196626173
4009.63,0.9691895640706432
4010.53,0.9953594236988931
4011.43,1.0110527241258986
4012.33,1.0263192724115833
4013.23,1.0331564267662305
4014.13,1.0348824374264165
4015.03,1.0397320264108916
4015.93,1.0403166467564469
4016.84,1.0471555950392706
4017.74,1.0448849668515696
4018.64,1.0474634929192426
4019.54,1.04920237585236
4020.44,1.0527572647556345
4021.34,1.0536779728504886
4022.24,1.0513372602775277
4023.14,1.0508157841415064
4024.04,1.0503181952766343
4024.94,1.0512542417428155
4025.84,1.0606681211442825
4026.74,1.0656526552570043
4027.64,1.0701982021041674
4028.54,1.0700793828106954
4029.44,1.0533231577180995
4030.34,1.0259592659133487
4031.24,0.9951148239289724
4032.14,0.9620476462933523
4033.04,0.9392018323223921
4033.94,0.9340061116917336
4034.84,0.9483281838620983
4035.74,0.9748057105068115
4036.64,1.0081132013330214
4037.54,1.0405083267043902
4038.44,1.0679293306479736
4039.34,1.0928784694766263
4040.24,1.0913244708330547
4041.14,1.0813970936922246
4042.04,1.0665396159051614
4042.94,1.033359379151184
4043.84,0.9950486719619038
4044.74,0.9541098449632526
4045.64,0.9191859730200324
4046.54,0.9022427275136949
4047.44,0.9076792465895482
4048.34,0.9366979551737891
4049.24,0.9703194514798674
4050.14,1.010627986067984
4051.04,1.0408697942648992
4051.94,1.0551787972056494
4052.84,1.0561420852398002
4053.74,1.0447165508377807
4054.65,1.03490891297933
4055.55,1.019320519608156
4056.45,0.9998861261461522
4057.35,0.9868708269924925
4058.25,0.9811856511883615
4059.15,0.9798122711368541
4060.05,0.9765104150382079
4060.95,0.9778957845881149
4061.85,0.9650638867564535
4062.75,0.9478726257934387
4063.65,0.9241094485072437
4064.55,0.9128698094054177
4065.45,0.9119040524431116
4066.35,0.9221824518845824
4067.25,0.9348880702062705
4068.15,0.9578056412365397
4069.05,0.9758010461621907
4069.95,0.9858367356344483
4070.85,0.9865612556850814
4071.75,0.9767036413805923
4072.65,0.9729481960444722
4073.55,0.9659321776904157
4074.45,0.9606762293830544
4075.35,0.9533065339408892
4076.25,0.9466338825140344
4077.15,0.9303535033117706
4078.05,0.9255334895536756
4078.95,0.9283650402361533
4079.85,0.9431390609381838
4080.75,0.970583447955912
4081.65,0.997312099933897
4082.55,1.0188026587386805
4083.45,1.0297177758397233
4084.35,1.0383645244057629
4085.25,1.0388796886364375
4086.15,1.0524094240716155
4087.05,1.0641996259111903
4087.95,1.0846159548676566
4088.85,1.1089139271564958
4089.75,1.1162430479649528
4090.65,1.1236470802279794
4091.55,1.119520762830005
4092.45,1.1151861430713559
4093.36,1.0931383390082727
4094.26,1.0770416305653694
4095.16,1.0544792989048721
4096.06,1.0326279880649776
4096.96,1.0050712291848005
4097.86,0.9776333403217556
4098.76,0.945619805493591
4099.66,0.913132957373414
4100.56,0.8879117230553779
4101.46,0.8609440373940507
4102.36,0.8479161303419687
4103.26,0.8492509027687805
4104.16,0.8681186657962693
4105.06,0.8921730120781612
4105.96,0.9313473215730383
4106.86,0.9615976202555608
4107.76,0.9850871488598795
4108.66,0.9998262808395246
4109.56,1.0071604336209
4110.46,1.0097641729533418
4111.36,1.0133403943347448
4112.26,1.0147081280900712
4113.16,1.025624104363055
4114.06,1.0380230603212306
4114.96,1.049096698038051
4115.86,1.0552286078965845
4116.76,1.0526594397761164
4117.66,1.050843797442821
4118.56,1.0409280571985695
4119.46,1.0292620993863928
4120.36,1.0279385429188697
4121.26,1.0197742240349048
4122.16,1.0196599609120294
4123.06,1.027073710128687
4123.96,1.0242592683917688
4124.86,1.035082918495895
4125.76,1.0378903918795606
4126.66,1.033569980226055
4127.56,1.0250695293512144
4128.46,1.0155551480700358
4129.36,1.0025987533123435
4130.26,0.9853923715628514
4131.17,0.9676132953209319
4132.06,0.9540456380234373
4132.97,0.9430644581689495
4133.87,0.9395986219048394
4134.77,0.9476888230190011
4135.67,0.9668180155757911
4136.57,0.9891917152885414
4137.47,1.012457640610289
4138.37,1.0347050401388174
4139.27,1.0424084752691756
4140.17,1.041229204996589
4141.07,1.0291086789137929
4141.97,1.0017823811431021
4142.87,0.9746866919473403
4143.77,0.9525994954590477
4144.67,0.9406672223764899
4145.57,0.9382291795769775
4146.47,0.9511699060148376
4147.37,0.9615491712530545
4148.27,0.986282657714906
4149.17,0.9964675697720219
4150.07,0.998940899208417
4150.97,0.9957598913035015
4151.87,0.9900126417152427
4152.77,0.9836112711822924
4153.67,0.9775855645832727
4154.57,0.9747330010141185
4155.47,0.9719624751942724
4156.37,0.9773747538132903
4157.27,0.9839766836984973
4158.17,0.9977367839267813
4159.07,1.012911814006601
4159.97,1.0276598626483169
4160.87,1.042349678863522
4161.77,1.0607422867919074
4162.67,1.068899462696788
4163.57,1.078471074974814
4164.47,1.073443252530599
4165.37,1.0669443960342038
4166.27,1.0526224679484566
4167.17,1.0464987949999034
4168.07,1.0328424595437544
4168.98,1.01881889208811
4169.88,1.0104826440212817
4170.78,0.9966010480411828
4171.68,0.979165835645678
4172.58,0.9651291914771768
4173.48,0.9450927126229426
4174.38,0.9391177343061949
4175.28,0.9366252133249079
4176.18,0.9376926550755363
4177.08,0.948772725897534
4177.98,0.9604583911303191
4178.88,0.970153848927103
4179.78,0.9848324784219726
4180.68,0.9947746917967822
4181.58,1.0007177889773133
4182.48,1.000279756426302
4183.38,1.0021487526347412
4184.28,1.0069219398308822
4185.18,1.0083546564732875
4186.08,1.003764186121109
4186.98,0.9955995421071633
4187.88,0.9950263691922131
4188.78,0.9963170684475233
4189.68,0.998654017744041
4190.58,1.0094192267970699
4191.48,1.01847899345415
4192.38,1.0329196482449703
4193.28,1.0368477900161088
4194.18,1.0367471814463318
4195.08,1.03044617453458
4195.98,1.0156948643697299
4196.88,0.9961462066103127
4197.78,0.9727666419416227
4198.68,0.9549050070921563
4199.58,0.9445890347787189
4200.48,0.9375589767564737
4201.38,0.935167338709597
4202.28,0.9424412421756186
4203.18,0.9563929557024987
4204.08,0.9705040708975412
4204.98,0.987176102093157
4205.88,1.0146695474051717
4206.79,1.0403844060428478
4207.69,1.0540913043923492
4208.59,1.070511636123484
4209.49,1.0849864833083842
4210.39,1.0887879139345895
4211.29,1.0842359377654764
4212.19,1.0837412224279095
4213.09,1.0730760010498328
4213.99,1.061418947761327
4214.89,1.0493718821037217
4215.79,1.03836665326706
4216.69,1.0389621603388512
4217.59,1.0499634928458526
4218.49,1.05606171591931
4219.39,1.073557563670885
4220.29,1.088189388277898
4221.19,1.0905115130362475
4222.09,1.0738615235529085
4222.99,1.0465361713572305
4223.89,1.0020226448650205
4224.79,0.9467348481369671
4225.69,0.8921639137760021
4226.59,0.8553394840398709
4227.49,0.8348393935027061
4228.39,0.8463523176608344
4229.29,0.878012678689744
4230.19,0.9260477208186277
4231.09,0.9750851787545778
4231.99,1.0099643811684844
4232.89,1.0303706552916911
4233.79,1.036596295538326
4234.69,1.0326515409470187
4235.59,1.0227781943105656
4236.49,1.0166856858657503
4237.39,1.007773153159398
4238.29,1.0147893708452271
4239.19,1.0210391095406888
4240.09,1.036697188553485
4240.99,1.0540968151737766
4241.89,1.0699718897834383
4242.79,1.0881194348550076
4243.69,1.1003340903850138
4244.59,1.1074487740209755
4245.5,1.1115145732256668
4246.4,1.1039393730236489
4247.3,1.0839613578677536
4248.2,1.0640442555510505
4249.1,1.0421363039210412
4250.0,1.0177053803224043
4250.9,1.0060329373869068
4251.8,0.9953363841909659
4252.7,1.0037866490866216
4253.6,1.003405895156911
4254.5,1.0134285064417425
4255.4,1.0189530860414304
4256.3,1.0298623590387634
4257.2,1.0258583826413412
4258.1,1.0288352572762958
4259.0,1.0242739108382681
4259.9,1.0134682777038173
4260.8,1.008959035615431
4261.7,1.0184948659124793
4262.6,1.0324975470679152
4263.5,1.0547631220886913
4264.4,1.083919803229621
4265.3,1.104851346005618
4266.2,1.1173329250224207
4267.1,1.1141569113695398
4268.0,1.0990513889829552
4268.9,1.0669402958701286
4269.8,1.0278497966082565
4270.7,0.9903565586509249
4271.6,0.9476368809819196
4272.5,0.916145574934787
4273.4,0.9018613408159035
4274.3,0.9043909293160445
4275.2,0.9186448596298094
4276.1,0.9493052052401569
4277.0,0.9773579833073697
4277.9,1.0147581908664975
4278.8,1.03517610125841
4279.7,1.0479281196106258
4280.6,1.0514358419579661
4281.5,1.0488070962208806
4282.4,1.0461653864966756
4283.31,1.03844904275939
4284.21,1.029899868062416
4285.11,1.0202880709175015
4286.01,1.0070531982202648
4286.91,0.9941933338769051
4287.81,0.970415815681847
4288.71,0.9507873903268663
4289.61,0.9347758714566349
4290.51,0.9250067318518903
4291.41,0.921469770689163
4292.31,0.9252056191587327
4293.21,0.9439289169195423
4294.11,0.949793576665385
4295.01,0.9568358532454342
4295.91,0.9458825096001883
4296.81,0.9277452590388229
4297.71,0.8977277632751794
4298.61,0.8622076965522326
4299.51,0.8231397586445166
4300.41,0.7883690972299932
4301.31,0.7614675712076152
4302.21,0.749796322567937
4303.11,0.7418621939947683
4304.01,0.7414590921528267
4304.91,0.7402281429781743
4305.81,0.7347245017156432
4306.71,0.7292488554187171
4307.61,0.7177348499299882
4308.51,0.710512907479311
4309.41,0.7108670660774667
4310.31,0.7198579487397309
4311.21,0.7425475219156776
4312.11,0.7776210978197394
4313.01,0.8264162458750319
4313.91,0.8903676369736425
4314.81,0.9503588012024504
4315.71,1.015888439516178
4316.61,1.0805442347112189
4317.51,1.1409481878929693
4318.41,1.1715106382143874
4319.31,1.1960609847928956
4320.21,1.1930208168485248
4321.12,1.1707243625401857
4322.02,1.1381711525136413
4322.92,1.085018494260589
4323.82,1.032765390049926
4324.72,0.9880380622097154
4325.62,0.9563425133306332
4326.52,0.9486097556230627
4327.42,0.9643259526708666
4328.32,0.9950752174245493
4329.22,1.042109653644132
4330.12,1.0841779810577161
4331.02,1.1209341468692515
4331.92,1.145395164740553
4332.82,1.1586842848409467
4333.72,1.165232168999939
4334.62,1.1622582319298087
4335.52,1.147713787638152
4336.42,1.1118127648392144
4337.32,1.0715441803908765
4338.22,1.0197692636911686
4339.12,0.9723281514701122
4340.02,0.9379863930337758
4340.92,0.9108502469661227
4341.82,0.9110437172437325
4342.72,0.9280092757940259
4343.62,0.9561425506811249
4344.52,0.9961796489065957
4345.42,1.031852070733752
4346.32,1.065085764956137
4347.22,1.0849392865404985
4348.12,1.101201427744925
4349.02,1.102260695147911
4349.92,1.098521672805913
4350.82,1.0831176746792959
4351.72,1.0556056946903265
4352.62,1.0386704915252187
4353.52,1.031009709834189
4354.42,1.0337733596947818
4355.32,1.0364505350783284
4356.22,1.053188108571509
4357.12,1.065207222563427
4358.02,1.0776700766661298
4358.92,1.0841903371234962
4359.83,1.096278782427974
4360.73,1.1017677088295892
4361.63,1.1133817842270055
4362.53,1.1211593096334698
