wave,flux
3700.85,-3.79312246892983e-05
3701.75,-3.7163824978311416e-05
3702.65,-3.546065796131657e-05
3703.55,-3.2881917360812746e-05
3704.45,-3.0066165222855315e-05
3705.35,-2.731445995088584e-05
3706.25,-2.5209760566620672e-05
3707.15,-2.390307840939146e-05
3708.05,-2.3748969483147e-05
3708.96,-2.47132324837275e-05
3709.86,-2.672508369161367e-05
3710.76,-2.9725426904822315e-05
3711.66,-3.330725467137985e-05
3712.56,-3.670516999917225e-05
3713.46,-3.942545740813483e-05
3714.36,-4.108937692208689e-05
3715.26,-4.085613188534266e-05
3716.16,-3.901814030136614e-05
3717.06,-3.6272353227330795e-05
3717.96,-3.227543035503844e-05
3718.86,-2.8378379862252735e-05
3719.76,-2.457756994121571e-05
3720.66,-2.184856461160569e-05
3721.56,-2.0397931746891886e-05
3722.46,-2.084030094876273e-05
3723.36,-2.270132521159489e-05
3724.26,-2.5096439020252516e-05
3725.16,-2.783411538220522e-05
3726.06,-2.974532464053935e-05
3726.96,-3.0654038935740125e-05
3727.86,-3.103715760611374e-05
3728.76,-3.091049754703578e-05
3729.66,-3.0284551201597952e-05
3730.56,-2.9415991780181627e-05
3731.46,-2.796738702927965e-05
3732.36,-2.5616513738395314e-05
3733.26,-2.3039197757496123e-05
3734.16,-2.0328290793027613e-05
3735.06,-1.8110147721050992e-05
3735.96,-1.708199535138668e-05
3736.86,-1.7395607418946225e-05
3737.76,-1.897710768577738e-05
3738.66,-2.1625816127583056e-05
3739.56,-2.4628929067371716e-05
3740.46,-2.7488572250287373e-05
3741.36,-2.922384943549481e-05
3742.26,-2.9472212569654924e-05
3743.16,-2.835624444976155e-05
3744.06,-2.632626895696593e-05
3744.96,-2.3969254573309184e-05
3745.86,-2.1737752090286796e-05
3746.76,-2.0212110934148727e-05
3747.67,-1.928041916931253e-05
3748.57,-1.916995610087543e-05
3749.47,-2.0114764230110186e-05
3750.37,-2.2061776230841957e-05
3751.27,-2.522686725639551e-05
3752.17,-2.9220803673249577e-05
3753.07,-3.331695480693332e-05
3753.97,-3.69691314910422e-05
3754.87,-3.925553132006004e-05
3755.77,-3.995164341209006e-05
3756.67,-3.893382799522575e-05
3757.57,-3.668600831650528e-05
3758.47,-3.4312819723177906e-05
3759.37,-3.239488510662079e-05
3760.27,-3.167744624769374e-05
3761.17,-3.1660719759475137e-05
3762.07,-3.235160913577453e-05
3762.97,-3.280834205912895e-05
3763.87,-3.313702533925823e-05
3764.77,-3.3441827946205736e-05
3765.67,-3.372235434652239e-05
3766.57,-3.444422004052792e-05
3767.47,-3.5788961715467256e-05
3768.37,-3.820301224929779e-05
3769.27,-4.087541096799998e-05
3770.17,-4.3874957803200895e-05
3771.07,-4.683116910550018e-05
3771.97,-4.953621519633208e-05
3772.87,-5.1473179157212774e-05
3773.77,-5.285356999898122e-05
3774.67,-5.3324972930943045e-05
3775.57,-5.331193559396044e-05
3776.47,-5.34695432987e-05
3777.37,-5.370876161682253e-05
3778.27,-5.428641316184276e-05
3779.17,-5.514250258553264e-05
3780.07,-5.642811923542761e-05
3780.97,-5.781975863757406e-05
3781.87,-5.850359746819523e-05
3782.77,-5.913741439701726e-05
3783.67,-5.8943075130950914e-05
3784.57,-5.753700095832798e-05
3785.47,-5.481466549092284e-05
3786.38,-5.160822057881706e-05
3787.28,-4.794680915541599e-05
3788.18,-4.476601081490406e-05
3789.08,-4.2800601258082334e-05
3789.98,-4.1992545978531544e-05
3790.88,-4.1919162944510955e-05
3791.78,-4.265781921937978e-05
3792.68,-4.3148183941297585e-05
3793.58,-4.3346488306664195e-05
3794.48,-4.272549371740543e-05
3795.38,-4.159152317066345e-05
3796.28,-4.065118544972202e-05
3797.18,-3.997533404699407e-05
3798.08,-3.977402779911533e-05
3798.98,-3.9991748558451156e-05
3799.88,-4.1473914183849634e-05
3800.78,-4.3971452055658026e-05
3801.68,-4.710464937016252e-05
3802.58,-5.076661554590097e-05
3803.48,-5.37980100651614e-05
3804.38,-5.580345831176784e-05
3805.28,-5.690628756944216e-05
3806.18,-5.6706193702541104e-05
3807.08,-5.582783844297018e-05
3807.98,-5.543101726473647e-05
3808.88,-5.571592038921172e-05
3809.78,-5.596604542499047e-05
3810.68,-5.61734737391514e-05
3811.58,-5.592083479207565e-05
3812.48,-5.4051315738447596e-05
3813.38,-5.104729249194945e-05
3814.28,-4.7518108901713095e-05
3815.18,-4.410732638411126e-05
3816.08,-4.136657048707179e-05
3816.98,-3.951474028343453e-05
3817.88,-3.8195087426048974e-05
3818.78,-3.714111962929065e-05
3819.68,-3.6155932546664796e-05
3820.58,-3.4979846060056126e-05
3821.48,-3.410117634385541e-05
3822.38,-3.3461933682395766e-05
3823.28,-3.294936412226229e-05
3824.18,-3.225116250417502e-05
3825.09,-3.138022811016063e-05
3825.99,-3.0525027465537586e-05
3826.89,-2.965349588207271e-05
3827.79,-2.981326129960475e-05
3828.69,-3.0428200661866505e-05
3829.59,-3.145648839089499e-05
3830.49,-3.223472591175189e-05
3831.39,-3.280443859125282e-05
3832.29,-3.3074251559833045e-05
3833.19,-3.3165320340494086e-05
3834.09,-3.338765036211349e-05
3834.99,-3.3949711687123516e-05
3835.89,-3.4829361505942506e-05
3836.79,-3.565339684527404e-05
3837.69,-3.583265620206909e-05
3838.59,-3.5784650857374027e-05
3839.49,-3.5785445326003135e-05
3840.39,-3.651309226146326e-05
3841.29,-3.850381512792372e-05
3842.19,-4.1609781451537486e-05
3843.09,-4.562374613493402e-05
3843.99,-4.975803719398235e-05
3844.89,-5.3024017508043795e-05
3845.79,-5.553406296645044e-05
3846.69,-5.684759192454794e-05
3847.59,-5.713736958628525e-05
3848.49,-5.653399943567735e-05
3849.39,-5.575485686259423e-05
3850.29,-5.510803939959482e-05
3851.19,-5.4706383866850396e-05
3852.09,-5.467234820163841e-05
3852.99,-5.446281854474204e-05
3853.89,-5.42326810709446e-05
3854.79,-5.279580806483998e-05
3855.69,-5.136051932746085e-05
3856.59,-4.884202056096027e-05
3857.49,-4.6540616728344593e-05
3858.39,-4.466688605645858e-05
3859.29,-4.319367615508697e-05
3860.19,-4.3439349106099e-05
3861.09,-4.4952900684427824e-05
3861.99,-4.8271925545223585e-05
3862.9,-5.2354761693544454e-05
3863.8,-5.613354655404787e-05
3864.7,-5.881726957712901e-05
3865.6,-6.0492413748925565e-05
3866.5,-6.099643129770072e-05
3867.4,-6.0358557947642224e-05
3868.3,-5.9193022013001286e-05
3869.2,-5.761989261056176e-05
3870.1,-5.603233669973162e-05
3871.0,-5.4789987354458765e-05
3871.9,-5.463327948531776e-05
3872.8,-5.577244453099712e-05
3873.7,-5.859858700602523e-05
3874.6,-6.203922144454096e-05
3875.5,-6.544109364707718e-05
3876.4,-6.70573057412241e-05
3877.3,-6.711739146203422e-05
3878.2,-6.589277387143552e-05
3879.1,-6.423391722692296e-05
3880.0,-6.326806539207609e-05
3880.9,-6.311813977767679e-05
3881.8,-6.394405885171976e-05
3882.7,-6.591505776468237e-05
3883.6,-6.745648434242218e-05
3884.5,-6.913596512164286e-05
3885.4,-6.964947374384417e-05
3886.3,-6.982598589696189e-05
3887.2,-7.051697316047942e-05
3888.1,-7.203476517666362e-05
3889.0,-7.663419627214486e-05
3889.9,-8.237142720265697e-05
3890.8,-9.005589133296602e-05
3891.7,-9.73865554218533e-05
3892.6,-0.00010361862971302941
3893.5,-0.00010728464337455837
3894.4,-0.00010900800619982463
3895.3,-0.0001093617992095694
3896.2,-0.0001084847105797045
3897.1,-0.00010768549106555996
3898.0,-0.00010692120852386118
3898.9,-0.00010665832251115946
3899.8,-0.00010583079570488468
3900.7,-0.00010629760929696527
3901.6,-0.00010597451963552661
3902.51,-0.00010590939801732657
3903.41,-0.00010483772838199792
3904.31,-0.00010399145745176711
3905.21,-0.00010331153450938731
3906.11,-0.00010448331338453835
3907.01,-0.00010779893065988295
3907.91,-0.00011357405691316073
3908.81,-0.00012086499484459531
3909.71,-0.00012752012639137789
3910.61,-0.0001342474873331151
3911.51,-0.00013942924850685861
3912.41,-0.00014304060833006158
3913.31,-0.00014565972098254482
3914.21,-0.00014695444616634606
3915.11,-0.00014586078739521095
3916.01,-0.00014437458528011995
3916.91,-0.00014115621813600115
3917.81,-0.0001367889769080613
3918.71,-0.00013010368544516773
3919.61,-0.00012378726733559833
3920.51,-0.00011736871661495831
3921.41,-0.00011170552509353428
3922.31,-0.00010820837453266908
3923.21,-0.00010665103785758383
3924.11,-0.00010627377695639892
3925.01,-0.00010524783988728165
3925.91,-0.00010326396757812552
3926.81,-9.909984500302856e-05
3927.71,-9.26233716852953e-05
3928.61,-8.461247109684033e-05
3929.51,-7.602070942371973e-05
3930.41,-6.750665200354081e-05
3931.31,-5.981223546308682e-05
3932.21,-5.3562133535778626e-05
3933.11,-4.915184448839525e-05
3934.01,-4.733266832336472e-05
3934.91,-4.788498420676138e-05
3935.81,-5.157009915356319e-05
3936.71,-5.7674141753122116e-05
3937.61,-6.603891453828444e-05
3938.51,-7.58041818574974e-05
3939.42,-8.601045661055186e-05
3940.32,-9.4194312125657e-05
3941.22,-0.00010066962725496011
3942.12,-0.00010524663806586218
3943.02,-0.00010906306004414699
3943.92,-0.00011219058707163231
3944.82,-0.00011750342182455973
3945.72,-0.00012416931032033872
3946.62,-0.00013349877356875605
3947.52,-0.0001432265313992783
3948.42,-0.00015332797323318407
3949.32,-0.0001625259556159042
3950.22,-0.00017060927157326854
3951.12,-0.00017754724502814045
3952.02,-0.00018365481277197418
3952.92,-0.00018790760018230006
3953.82,-0.00018993840677121432
3954.72,-0.0001908375299460985
3955.62,-0.00019119528371013385
3956.52,-0.00018843161612530843
3957.42,-0.00018564599928605743
3958.32,-0.00018055023125176388
3959.22,-0.00017414478905029151
3960.12,-0.00016496544669565943
3961.02,-0.00015393981040562278
3961.92,-0.000141692529840571
3962.82,-0.00012969371941423945
3963.72,-0.00011806291082224397
3964.62,-0.00010928814939821391
3965.52,-0.0001000038989091266
3966.42,-9.122302881449821e-05
3967.32,-8.384224860613881e-05
3968.22,-7.735387804290988e-05
3969.12,-7.434999532762815e-05
3970.02,-7.583659997586764e-05
3970.92,-8.176421207945847e-05
3971.82,-9.273968003886736e-05
3972.72,-0.00010638648420606155
3973.62,-0.000122717296286043
3974.52,-0.00014039700039500608
3975.42,-0.000158618811572634
3976.32,-0.00017715930645230296
3977.22,-0.00019444839584755233
3978.13,-0.00021256767891576634
3979.03,-0.00022908298106768174
3979.93,-0.00024177333323215208
3980.83,-0.0002544174170861801
3981.73,-0.00026182882046980915
3982.63,-0.000267075678680941
3983.53,-0.00027095577358178736
3984.43,-0.00027418498417573956
3985.33,-0.0002786075597450712
3986.23,-0.00028477858246529216
3987.13,-0.0002910016777307705
3988.03,-0.0002963921732195615
3988.93,-0.0003031632340781193
3989.83,-0.0003076006112381694
3990.73,-0.0003125565621553683
3991.63,-0.00031703033731256833
3992.53,-0.00032149029040867455
3993.43,-0.00032552145029495795
3994.33,-0.0003273061888263953
3995.23,-0.00032741138622383503
3996.13,-0.000328642883997776
3997.03,-0.0003262086745542398
3997.93,-0.00032860141366768694
3998.83,-0.0003354026928505882
3999.73,-0.0003433580651742936
4000.63,-0.00035537043257547607
4001.53,-0.00036407840443243605
4002.43,-0.0003705665333556513
4003.33,-0.0003723563107882539
4004.23,-0.00036660842763740583
4005.13,-0.0003603936642093092
4006.03,-0.00035501136658076137
4006.93,-0.00035305780960531025
4007.83,-0.00035612241033975415
4008.73,-0.0003648284996407656
4009.63,-0.00037912972083913054
4010.53,-0.0003903928586176035
4011.43,-0.0004023180340621545
4012.33,-0.0004147704584373617
4013.23,-0.00042144402695424844
4014.13,-0.00042727720336382437
4015.03,-0.0004358298919730616
4015.93,-0.0004428014071920049
4016.84,-0.00044378002584297897
4017.74,-0.0004482549375330578
4018.64,-0.0004516749439895247
4019.54,-0.000456316893920514
4020.44,-0.00046088493324707256
4021.34,-0.00046483965365317275
4022.24,-0.0004656884284929616
4023.14,-0.00046671238789625276
4024.04,-0.0004669097645354057
4024.94,-0.00046646325606185875
4025.84,-0.0004725146136668736
4026.74,-0.0004772462119549133
4027.64,-0.0004801615307469334
4028.54,-0.00047913672073591465
4029.44,-0.00046910556539828016
4030.34,-0.00045453920042089945
4031.24,-0.0004311610534584581
4032.14,-0.0004095609487718347
4033.04,-0.0003957470007786615
4033.94,-0.0003915768784393575
4034.84,-0.00039949321881313786
4035.74,-0.0004195510995103357
4036.64,-0.0004521138006202053
4037.54,-0.00048137058740857665
4038.44,-0.000508267956883992
4039.34,-0.0005295525841435698
4040.24,-0.0005374732417331006
4041.14,-0.0005372154822924906
4042.04,-0.0005275305664653609
4042.94,-0.0005091642599763188
4043.84,-0.0004818603028970645
4044.74,-0.00045447364912041155
4045.64,-0.00043165347883187334
4046.54,-0.0004200157550195323
4047.44,-0.0004244868662989245
4048.34,-0.0004464788500579828
4049.24,-0.00047970797983786157
4050.14,-0.0005152298308143158
4051.04,-0.0005453342781193418
4051.94,-0.0005664853025734856
4052.84,-0.0005746721961094925
4053.74,-0.0005722430644292592
4054.65,-0.0005655897994176558
4055.55,-0.0005552803282150085
4056.45,-0.0005452812586151636
4057.35,-0.000536276119522775
4058.25,-0.0005322903400060433
4059.15,-0.0005306000621057253
4060.05,-0.0005331434804688591
4060.95,-0.0005300825065231693
4061.85,-0.0005222222315018231
4062.75,-0.0005132909445612873
4063.65,-0.0005006561110468268
4064.55,-0.0004945519410747582
4065.45,-0.0004978694331691674
4066.35,-0.0005129386398825882
4067.25,-0.0005329661200546513
4068.15,-0.0005554250967566985
4069.05,-0.000576676590208529
4069.95,-0.0005889192796017051
4070.85,-0.000590894682780962
4071.75,-0.0005944495800930124
4072.65,-0.0005945673838029083
4073.55,-0.0005951723080222036
4074.45,-0.000598623136242972
4075.35,-0.0006060953026964857
4076.25,-0.0006076934358764228
4077.15,-0.0006113784607338511
4078.05,-0.0006170912558691731
4078.95,-0.0006322428398416861
4079.85,-0.0006553190870822838
4080.75,-0.0006867696264540591
4081.65,-0.0007192677418900598
4082.55,-0.0007416041619680461
4083.45,-0.0007594509310954838
4084.35,-0.0007697226015566695
4085.25,-0.0007833107297765431
4086.15,-0.0007975505858743619
4087.05,-0.0008181736640202898
4087.95,-0.000842802814639678
4088.85,-0.0008694293631168245
4089.75,-0.0008875298090424963
4090.65,-0.0008986197533848104
4091.55,-0.0008940436476004599
4092.45,-0.0008917600849932975
4093.36,-0.0008779784290643168
4094.26,-0.0008622232036173194
4095.16,-0.0008425495992845094
4096.06,-0.0008206136493843178
4096.96,-0.0008034557038457337
4097.86,-0.0007823612577262355
4098.76,-0.0007649391188494863
4099.66,-0.0007503980346829894
4100.56,-0.0007438141311976447
4101.46,-0.0007392630049451844
4102.36,-0.0007420698656741801
4103.26,-0.0007534100567897406
4104.16,-0.0007792532570987911
4105.06,-0.0008108945767152168
4105.96,-0.0008423607512440693
4106.86,-0.0008732236168401609
4107.76,-0.0008994524978402517
4108.66,-0.0009098122914926387
4109.56,-0.0009168622487438461
4110.46,-0.0009160671529200818
4111.36,-0.0009170812356126426
4112.26,-0.0009235029195232134
4113.16,-0.0009318376539051747
4114.06,-0.0009499329209590279
4114.96,-0.0009680673399020503
4115.86,-0.0009862550550194448
4116.76,-0.0009968439372382667
4117.66,-0.0010031597455750223
4118.56,-0.000996383488247951
4119.46,-0.0009938119602900114
4120.36,-0.000987270354850776
4121.26,-0.0009892254792987151
4122.16,-0.0009983744849163978
4123.06,-0.0010106421242034405
4123.96,-0.0010203780146497848
4124.86,-0.0010419046409658361
4125.76,-0.0010541762298607038
4126.66,-0.0010645017272695053
4127.56,-0.0010563402275492004
4128.46,-0.0010495793528738182
4129.36,-0.0010364377790977658
4130.26,-0.0010098298227132249
4131.17,-0.0009902710950253112
4132.06,-0.0009758372911419193
4132.97,-0.0009635124252729203
4133.87,-0.0009672097221268251
4134.77,-0.0009856465771789496
4135.67,-0.0010202445870233817
4136.57,-0.0010664781866101967
4137.47,-0.001105224890285064
4138.37,-0.001137755380328854
4139.27,-0.001157209310513437
4140.17,-0.0011657654962590927
4141.07,-0.001146324572437834
4141.97,-0.0011184173837120123
4142.87,-0.0010765345356925277
4143.77,-0.001044805634752348
4144.67,-0.001027025382136285
4145.57,-0.0010347241851260734
4146.47,-0.0010574075492568492
4147.37,-0.0010897134980206386
4148.27,-0.0011266418147187723
4149.17,-0.0011496863810044613
4150.07,-0.0011591009754334108
4150.97,-0.001159886741887725
4151.87,-0.00116332787469607
4152.77,-0.0011616770834810858
4153.67,-0.0011605195352580333
4154.57,-0.0011632388783198058
4155.47,-0.001168118617160186
4156.37,-0.0011873923288327436
4157.27,-0.0012144287723904897
4158.17,-0.0012490287140429345
4159.07,-0.0012905797643391831
4159.97,-0.0013367040527843363
4160.87,-0.0013867956685809314
4161.77,-0.001427091946637312
4162.67,-0.0014520902560460306
4163.57,-0.0014728503969134747
4164.47,-0.0014781505487544183
4165.37,-0.0014729389545827373
4166.27,-0.001456678322968357
4167.17,-0.001446424370173625
4168.07,-0.001435832372792996
4168.98,-0.0014283055118628374
4169.88,-0.0014328777438265053
4170.78,-0.001420665010171792
4171.68,-0.0014127223594699336
4172.58,-0.0013944320730462571
4173.48,-0.0013829886837261583
4174.38,-0.0013667882296427123
4175.28,-0.0013720158740257204
4176.18,-0.0013789502217987468
4177.08,-0.001404033242714571
4177.98,-0.0014295766547618646
4178.88,-0.0014551330893701976
4179.78,-0.0014783798731765139
4180.68,-0.0015036612650231053
4181.58,-0.0015362300966191586
4182.48,-0.0015567551849971393
4183.38,-0.0015802565417519484
4184.28,-0.001614945751518531
4185.18,-0.0016388164877975892
4186.08,-0.0016562791619343389
4186.98,-0.0016657641963021552
4187.88,-0.001670612235389313
4188.78,-0.0016793338449702568
4189.68,-0.0017045513089363636
4190.58,-0.001740130604596656
4191.48,-0.0017762855574109584
4192.38,-0.0018161965346687847
4193.28,-0.0018359518542082477
4194.18,-0.001844751036339426
4195.08,-0.0018235910320857625
4195.98,-0.0018026001686328365
4196.88,-0.0017594740637277134
4197.78,-0.0017135001426236568
4198.68,-0.0016781490533267357
4199.58,-0.0016708548354411525
4200.48,-0.0016746281976768836
4201.38,-0.0016888939949834146
4202.28,-0.0017368965247003256
4203.18,-0.001790567183963082
4204.08,-0.0018613030983016766
4204.98,-0.0019526416143492728
4205.88,-0.0020417042412888184
4206.79,-0.002133062661986237
4207.69,-0.0022116283530433907
4208.59,-0.002260290740107893
4209.49,-0.0022889233232242117
4210.39,-0.0023011122462760665
4211.29,-0.0023050291431283656
4212.19,-0.002287123409710604
4213.09,-0.0022771840463918203
4213.99,-0.0022481739059492267
4214.89,-0.0022357102796064566
4215.79,-0.002231634244046212
4216.69,-0.0022676959735041047
4217.59,-0.0023237189839441508
4218.49,-0.0024004760263864333
4219.39,-0.0025044212071298395
4220.29,-0.002559534450662699
4221.19,-0.0025865583516493304
4222.09,-0.00255178118508112
4222.99,-0.0024480340889863677
4223.89,-0.002309285602516524
4224.79,-0.002137471178052166
4225.69,-0.00196482306574768
4226.59,-0.0018322523659445999
4227.49,-0.0017778924033768101
4228.39,-0.0018272797960358998
4229.29,-0.0019490295687131132
4230.19,-0.002126961609170359
4231.09,-0.0023192962610793237
4231.99,-0.002480334448181847
4232.89,-0.0025914511287680113
4233.79,-0.0026600776073934973
4234.69,-0.0026815382977036844
4235.59,-0.0026978607536321396
4236.49,-0.0026989075984752333
4237.39,-0.002726697158939721
4238.29,-0.0027718037639644297
4239.19,-0.0028443807115172354
4240.09,-0.0029296825466207516
4240.99,-0.0030566025679465694
4241.89,-0.0031824854393594725
4242.79,-0.003316065922585687
4243.69,-0.003430345865540446
4244.59,-0.00353481712211803
4245.5,-0.003609067246502653
4246.4,-0.003599112575560653
4247.3,-0.0035489156048171184
4248.2,-0.0034547966270572104
4249.1,-0.003342911820400011
4250.0,-0.003228175992177435
4250.9,-0.0031334022783498804
4251.8,-0.0030965922910933114
4252.7,-0.0030750176026620745
4253.6,-0.0030861026969963437
4254.5,-0.0031423894183860842
4255.4,-0.003223055579590479
4256.3,-0.0032876560525004696
4257.2,-0.0033770926145460524
4258.1,-0.0034335324684610985
4259.0,-0.00345834304130797
4259.9,-0.0034703733511834275
4260.8,-0.003506222727031494
4261.7,-0.003575669648002577
4262.6,-0.0037152399958215883
4263.5,-0.0038945302988413607
4264.4,-0.0040911417891358924
4265.3,-0.004260963029533427
4266.2,-0.004380925418258258
4267.1,-0.004421626814726315
4268.0,-0.004345061554827298
4268.9,-0.0042132087210604635
4269.8,-0.003992482019069974
4270.7,-0.003769956651405353
4271.6,-0.003539615045699539
4272.5,-0.003345367021641235
4273.4,-0.0032815158557447737
4274.3,-0.0032850143500898358
4275.2,-0.003419575568099764
4276.1,-0.0036470471194944734
4277.0,-0.0038983286863206604
4277.9,-0.004187771411634402
4278.8,-0.004407648472751525
4279.7,-0.004580207041672852
4280.6,-0.004685550626703007
