wave,flux
3700.85,-5.448304903945816e-07
3701.75,-5.390680772437058e-07
3702.65,-5.221896451492136e-07
3703.55,-4.983588307602297e-07
3704.45,-4.7358607569859026e-07
3705.35,-4.4913577828824727e-07
3706.25,-4.339848479633432e-07
3707.15,-4.264214138898927e-07
3708.05,-4.2733482259157726e-07
3708.96,-4.352798545695331e-07
3709.86,-4.4892731271443034e-07
3710.76,-4.6611801286679956e-07
3711.66,-4.86760734647661e-07
3712.56,-5.071712475072699e-07
3713.46,-5.30810335541455e-07
3714.36,-5.493448186109564e-07
3715.26,-5.644443369051132e-07
3716.16,-5.638006690717236e-07
3717.06,-5.564777749418877e-07
3717.96,-5.362129807102466e-07
3718.86,-5.035798971523906e-07
3719.76,-4.6655993845362823e-07
3720.66,-4.3417837033298586e-07
3721.56,-4.1210499111477444e-07
3722.46,-4.0538555702807436e-07
3723.36,-4.196267507716896e-07
3724.26,-4.4517007773096357e-07
3725.16,-4.7188057524035855e-07
3726.06,-4.96154405999493e-07
3726.96,-5.106625780154211e-07
3727.86,-5.176287427478156e-07
3728.76,-5.194551131291011e-07
3729.66,-5.17459733279768e-07
3730.56,-5.063003749528194e-07
3731.46,-4.893392961107884e-07
3732.36,-4.643695916425574e-07
3733.26,-4.3160974304015477e-07
3734.16,-4.015352384330455e-07
3735.06,-3.7418766571250653e-07
3735.96,-3.62013779728855e-07
3736.86,-3.6708352579299463e-07
3737.76,-3.8820387381078747e-07
3738.66,-4.212143205096073e-07
3739.56,-4.569044759004653e-07
3740.46,-4.862035495420323e-07
3741.36,-5.077815175541853e-07
3742.26,-5.149439443468266e-07
3743.16,-5.121513346507821e-07
3744.06,-4.934880726407523e-07
3744.96,-4.7017977907411706e-07
3745.86,-4.4741939066032505e-07
3746.76,-4.2350647775120815e-07
3747.67,-4.0230086778706854e-07
3748.57,-3.862026186819647e-07
3749.47,-3.778069427518749e-07
3750.37,-3.850474650743433e-07
3751.27,-4.059077446495568e-07
3752.17,-4.4014502557473836e-07
3753.07,-4.810144896767627e-07
3753.97,-5.211873354492432e-07
3754.87,-5.495268132285886e-07
3755.77,-5.637580241606501e-07
3756.67,-5.63457080378051e-07
3757.57,-5.511829270032841e-07
3758.47,-5.305931212391135e-07
3759.37,-5.151363541095802e-07
3760.27,-5.06023431554673e-07
3761.17,-5.108471514955698e-07
3762.07,-5.182890036796837e-07
3762.97,-5.302974837113518e-07
3763.87,-5.369569451795219e-07
3764.77,-5.403393299855669e-07
3765.67,-5.407543357126725e-07
3766.57,-5.385836385988352e-07
3767.47,-5.326501470465633e-07
3768.37,-5.280187664716737e-07
3769.27,-5.232366278310181e-07
3770.17,-5.202232383786845e-07
3771.07,-5.252464853295524e-07
3771.97,-5.372951632358982e-07
3772.87,-5.534292983979769e-07
3773.77,-5.716260314680397e-07
3774.67,-5.895694852113413e-07
3775.57,-6.074019259789718e-07
3776.47,-6.191122214322126e-07
3777.37,-6.298405396632459e-07
3778.27,-6.424158072531507e-07
3779.17,-6.56663623204845e-07
3780.07,-6.679922942942948e-07
3780.97,-6.812098756759826e-07
3781.87,-6.941990759089654e-07
3782.77,-6.973098969964549e-07
3783.67,-6.984798645216998e-07
3784.57,-6.872433905927079e-07
3785.47,-6.71292834003289e-07
3786.38,-6.527901081366358e-07
3787.28,-6.308107957655259e-07
3788.18,-6.086827473433788e-07
3789.08,-5.962611582044197e-07
3789.98,-5.88676425232146e-07
3790.88,-5.826747626587187e-07
3791.78,-5.794957683560534e-07
3792.68,-5.747469618088579e-07
3793.58,-5.62855229248488e-07
3794.48,-5.487557683000451e-07
3795.38,-5.308382065395548e-07
3796.28,-5.1106302437811e-07
3797.18,-4.915439350960958e-07
3798.08,-4.814954978088858e-07
3798.98,-4.81126461462084e-07
3799.88,-4.946022337155512e-07
3800.78,-5.233169498694411e-07
3801.68,-5.596426590728689e-07
3802.58,-5.978335905444275e-07
3803.48,-6.303585311459719e-07
3804.38,-6.528601417338384e-07
3805.28,-6.717192884246973e-07
3806.18,-6.779316531099185e-07
3807.08,-6.734920342054468e-07
3807.98,-6.787562664942229e-07
3808.88,-6.816270533914276e-07
3809.78,-6.854275192181414e-07
3810.68,-6.90308310034989e-07
3811.58,-6.845974023520507e-07
3812.48,-6.744240307610956e-07
3813.38,-6.558030547425422e-07
3814.28,-6.297520698872585e-07
3815.18,-6.115393363109584e-07
3816.08,-5.958248631441877e-07
3816.98,-5.896214948936312e-07
3817.88,-5.875840379657726e-07
3818.78,-5.870358430782885e-07
3819.68,-5.799095529912135e-07
3820.58,-5.719844772560119e-07
3821.48,-5.659163877768051e-07
3822.38,-5.582256765506902e-07
3823.28,-5.545335168316325e-07
3824.18,-5.423506567451282e-07
3825.09,-5.288731348587499e-07
3825.99,-5.155156344693986e-07
3826.89,-5.010418520680601e-07
3827.79,-4.901205230213398e-07
3828.69,-4.847977226374767e-07
3829.59,-4.793894086055417e-07
3830.49,-4.73139784544289e-07
3831.39,-4.641559034998889e-07
3832.29,-4.4898616179283755e-07
3833.19,-4.3212161789580624e-07
3834.09,-4.151122464934775e-07
3834.99,-4.0543409676974774e-07
3835.89,-4.0113201273823113e-07
3836.79,-4.0005356407628675e-07
3837.69,-4.0856284603862804e-07
3838.59,-4.2021080981044896e-07
3839.49,-4.3302354421490045e-07
3840.39,-4.55895460138129e-07
3841.29,-4.855693747092612e-07
3842.19,-5.202288789411741e-07
3843.09,-5.578595695368336e-07
3843.99,-5.931075881456981e-07
3844.89,-6.219028496016819e-07
3845.79,-6.436520247073155e-07
3846.69,-6.568763262231983e-07
3847.59,-6.640893390551512e-07
3848.49,-6.722385346469929e-07
3849.39,-6.738169378837928e-07
3850.29,-6.731621408828218e-07
3851.19,-6.718112434114289e-07
3852.09,-6.784510167516147e-07
3852.99,-6.78029247081123e-07
3853.89,-6.772580733787803e-07
3854.79,-6.742391247677098e-07
3855.69,-6.629974587511809e-07
3856.59,-6.483208770644272e-07
3857.49,-6.328791714216912e-07
3858.39,-6.135610681990925e-07
3859.29,-6.04204548034796e-07
3860.19,-5.996974870070999e-07
3861.09,-6.073410427196808e-07
3861.99,-6.274027479323957e-07
3862.9,-6.53676483287048e-07
3863.8,-6.770606716219332e-07
3864.7,-6.926642261589477e-07
3865.6,-7.041850722207898e-07
3866.5,-7.049107994637168e-07
3867.4,-7.039899929492519e-07
3868.3,-6.978061941292815e-07
3869.2,-6.881132041174304e-07
3870.1,-6.760419837996325e-07
3871.0,-6.5985377758718e-07
3871.9,-6.419409247493265e-07
3872.8,-6.319222769958638e-07
3873.7,-6.330962861018155e-07
3874.6,-6.34706687544626e-07
3875.5,-6.42964032046015e-07
3876.4,-6.511965836835408e-07
3877.3,-6.484287150952569e-07
3878.2,-6.447828041132073e-07
3879.1,-6.380334533909941e-07
3880.0,-6.335757166557628e-07
3880.9,-6.336032550861151e-07
3881.8,-6.317595446899891e-07
3882.7,-6.327009942685227e-07
3883.6,-6.223180110754405e-07
3884.5,-6.165457193111806e-07
3885.4,-6.004145135076511e-07
3886.3,-5.797342429056874e-07
3887.2,-5.57334244729931e-07
3888.1,-5.401809051072729e-07
3889.0,-5.322587970833127e-07
3889.9,-5.387713386709918e-07
3890.8,-5.550179180567241e-07
3891.7,-5.823123075975217e-07
3892.6,-6.101397927487512e-07
3893.5,-6.35077439732225e-07
3894.4,-6.57076849556338e-07
3895.3,-6.73183453697093e-07
3896.2,-6.838252321675802e-07
3897.1,-6.905639779051957e-07
3898.0,-6.991765139723256e-07
3898.9,-7.088578162630244e-07
3899.8,-7.148666849530216e-07
3900.7,-7.172334811654185e-07
3901.6,-7.190354537674192e-07
3902.51,-7.176761033225807e-07
3903.41,-7.097130617376526e-07
3904.31,-7.086600547819263e-07
3905.21,-7.035271442886256e-07
3906.11,-7.040979914635284e-07
3907.01,-7.110420860429897e-07
3907.91,-7.269531295093237e-07
3908.81,-7.395781978237222e-07
3909.71,-7.650480169575495e-07
3910.61,-7.86464400805122e-07
3911.51,-8.029541595276834e-07
3912.41,-8.093687170237131e-07
3913.31,-8.137388183681076e-07
3914.21,-8.100913046240565e-07
3915.11,-8.031410164791665e-07
3916.01,-7.945280057915539e-07
3916.91,-7.821841658273955e-07
3917.81,-7.707669166994544e-07
3918.71,-7.563509545452089e-07
3919.61,-7.373139221016979e-07
3920.51,-7.202292767009694e-07
3921.41,-7.092487065040829e-07
3922.31,-6.957156708350061e-07
3923.21,-6.932894645243814e-07
3924.11,-6.827921557821507e-07
3925.01,-6.720667391979171e-07
3925.91,-6.477828760858955e-07
3926.81,-6.197842145885632e-07
3927.71,-5.741215799448571e-07
3928.61,-5.276215036319451e-07
3929.51,-4.72086801806847e-07
3930.41,-4.124556919656888e-07
3931.31,-3.567343642067403e-07
3932.21,-3.081120241021759e-07
3933.11,-2.7084733493240247e-07
3934.01,-2.502523830246288e-07
3934.91,-2.4591562847958004e-07
3935.81,-2.628023556607606e-07
3936.71,-2.9665431476815097e-07
3937.61,-3.4601377415951255e-07
3938.51,-4.028254132487441e-07
3939.42,-4.5879729197909425e-07
3940.32,-5.150807346016003e-07
3941.22,-5.589418781460504e-07
3942.12,-5.947936919336115e-07
3943.02,-6.223592121256105e-07
3943.92,-6.441191026699729e-07
3944.82,-6.650271945825234e-07
3945.72,-6.90736202420684e-07
3946.62,-7.142797684113796e-07
3947.52,-7.402525110701748e-07
3948.42,-7.582145419094144e-07
3949.32,-7.751000404189793e-07
3950.22,-7.872748005767639e-07
3951.12,-7.983600945392983e-07
3952.02,-8.080532389209502e-07
3952.92,-8.161360992531314e-07
3953.82,-8.188735937022617e-07
3954.72,-8.183537460352657e-07
3955.62,-8.177464381201318e-07
3956.52,-8.13826391965343e-07
3957.42,-8.070146935592337e-07
3958.32,-7.986818088203521e-07
3959.22,-7.830020528927852e-07
3960.12,-7.618538852773274e-07
3961.02,-7.294327869171865e-07
3961.92,-6.947016239519454e-07
3962.82,-6.428076135564386e-07
3963.72,-5.938483289722395e-07
3964.62,-5.394626740110858e-07
3965.52,-4.858859038467875e-07
3966.42,-4.274419258664524e-07
3967.32,-3.7457588496518166e-07
3968.22,-3.310079126743335e-07
3969.12,-3.0301221076706195e-07
3970.02,-2.9793756384838834e-07
3970.92,-3.149538808593798e-07
3971.82,-3.538220683807186e-07
3972.72,-4.071034807635498e-07
3973.62,-4.70798332375913e-07
3974.52,-5.348626207300073e-07
3975.42,-5.969421182175714e-07
3976.32,-6.543971623676065e-07
3977.22,-7.069948503622184e-07
3978.13,-7.564445224218837e-07
3979.03,-8.000363675907975e-07
3979.93,-8.37100160401041e-07
3980.83,-8.608690584356226e-07
3981.73,-8.76382384667905e-07
3982.63,-8.894055703498868e-07
3983.53,-8.935179845253448e-07
3984.43,-9.033487722062267e-07
3985.33,-9.09253468242654e-07
3986.23,-9.201366397762727e-07
3987.13,-9.355239948760014e-07
3988.03,-9.429849095066863e-07
3988.93,-9.55396832779661e-07
3989.83,-9.663177162129041e-07
3990.73,-9.737823713360455e-07
3991.63,-9.865689129343185e-07
3992.53,-9.94779897598124e-07
3993.43,-9.953631761674477e-07
3994.33,-9.9098121646369e-07
3995.23,-9.897694919478352e-07
3996.13,-9.76677418570327e-07
3997.03,-9.693471456390006e-07
3997.93,-9.70579182826996e-07
3998.83,-9.717229752321308e-07
3999.73,-9.815063701548523e-07
4000.63,-9.970267846116634e-07
4001.53,-1.0163622592774026e-06
4002.43,-1.0189948215192728e-06
4003.33,-1.029715472164802e-06
4004.23,-1.0163621086893702e-06
4005.13,-1.0018515263364064e-06
4006.03,-9.918416577726355e-07
4006.93,-9.88657302279797e-07
4007.83,-9.858745822261437e-07
4008.73,-1.0021616982146346e-06
4009.63,-1.01952465607599e-06
4010.53,-1.0329154433030943e-06
4011.43,-1.052434385398998e-06
4012.33,-1.0599991455000459e-06
4013.23,-1.0605497925379263e-06
4014.13,-1.0705104089207829e-06
4015.03,-1.0680986934306928e-06
4015.93,-1.0745142597826659e-06
4016.84,-1.0729361236554345e-06
4017.74,-1.0762490697078044e-06
4018.64,-1.0793380746660303e-06
4019.54,-1.0827997093566717e-06
4020.44,-1.0838300405306859e-06
4021.34,-1.0892801750009246e-06
4022.24,-1.0892574606629438e-06
4023.14,-1.0936148422620591e-06
4024.04,-1.0931792296846247e-06
4024.94,-1.091124909841143e-06
4025.84,-1.0992401916385906e-06
4026.74,-1.1078330693013688e-06
4027.64,-1.1114836978047803e-06
4028.54,-1.1028036387209e-06
4029.44,-1.0955453573757434e-06
4030.34,-1.0764696593253874e-06
4031.24,-1.0538683876772075e-06
4032.14,-1.0355995165787872e-06
4033.04,-1.0232133234202418e-06
4033.94,-1.015933722702122e-06
4034.84,-1.0292296862645211e-06
4035.74,-1.0525047332250306e-06
4036.64,-1.0827467913914713e-06
4037.54,-1.1083166782489474e-06
4038.44,-1.1347314113234178e-06
4039.34,-1.1504996209482133e-06
4040.24,-1.148781804562698e-06
4041.14,-1.14090249081195e-06
4042.04,-1.1307019358043073e-06
4042.94,-1.1097438701788881e-06
4043.84,-1.078987341233449e-06
4044.74,-1.0539274884351195e-06
4045.64,-1.0266936258555072e-06
4046.54,-1.013163426420464e-06
4047.44,-1.0249220599251097e-06
4048.34,-1.0475488302530918e-06
4049.24,-1.0804112092034713e-06
4050.14,-1.1062650366875099e-06
4051.04,-1.1279876090786401e-06
4051.94,-1.1359152084461912e-06
4052.84,-1.1384317808030311e-06
4053.74,-1.1391421534204402e-06
4054.65,-1.122794645015849e-06
4055.55,-1.1131325689736012e-06
4056.45,-1.1013968314196197e-06
4057.35,-1.0980063521322537e-06
4058.25,-1.093172575022033e-06
4059.15,-1.0974799778568246e-06
4060.05,-1.0999244837468057e-06
4060.95,-1.1009327563515245e-06
4061.85,-1.0982903290965278e-06
4062.75,-1.0822230554464186e-06
4063.65,-1.0610691028365065e-06
4064.55,-1.0560170669349588e-06
4065.45,-1.0521121976665018e-06
4066.35,-1.0576140124954277e-06
4067.25,-1.0772858314566732e-06
4068.15,-1.097720346037966e-06
4069.05,-1.1082670259908676e-06
4069.95,-1.12280757211904e-06
4070.85,-1.1206862920809988e-06
4071.75,-1.116277729376233e-06
4072.65,-1.114241651939843e-06
4073.55,-1.1102059894740604e-06
4074.45,-1.1053825109834306e-06
4075.35,-1.0986964789232173e-06
4076.25,-1.0780412106521598e-06
4077.15,-1.062229584423402e-06
4078.05,-1.056457965019825e-06
4078.95,-1.058455398466745e-06
4079.85,-1.0743673840127105e-06
4080.75,-1.0985465535215046e-06
4081.65,-1.1222808077749244e-06
4082.55,-1.1443897823008847e-06
4083.45,-1.1535588364581862e-06
4084.35,-1.1644674856864176e-06
4085.25,-1.1742631821702005e-06
4086.15,-1.1819563576974502e-06
4087.05,-1.1978578968983673e-06
4087.95,-1.2153210474695917e-06
4088.85,-1.2370210927716811e-06
4089.75,-1.2477221590163214e-06
4090.65,-1.2558661594616523e-06
4091.55,-1.2522691576275715e-06
4092.45,-1.245238377077935e-06
4093.36,-1.2355723157278104e-06
4094.26,-1.2169187104018052e-06
4095.16,-1.1983774729491864e-06
4096.06,-1.1743166378681366e-06
4096.96,-1.143971835328383e-06
4097.86,-1.113966914005021e-06
4098.76,-1.0728555377118311e-06
4099.66,-1.0354164567121494e-06
4100.56,-9.951994053629272e-07
4101.46,-9.649805776766923e-07
4102.36,-9.446385926905316e-07
4103.26,-9.503767359442849e-07
4104.16,-9.673880387784735e-07
4105.06,-1.0052677691815838e-06
4105.96,-1.0487618258738883e-06
4106.86,-1.085128556779871e-06
4107.76,-1.1221708108068059e-06
4108.66,-1.1512002642934444e-06
4109.56,-1.1632419770909877e-06
4110.46,-1.1760149414292201e-06
4111.36,-1.1800963011395885e-06
4112.26,-1.1948868617102226e-06
4113.16,-1.2120407275638523e-06
4114.06,-1.2231286863884896e-06
4114.96,-1.2365264120445358e-06
4115.86,-1.2480652948536642e-06
4116.76,-1.251776613475203e-06
4117.66,-1.2502904180077591e-06
4118.56,-1.241497768547803e-06
4119.46,-1.2367764334505386e-06
4120.36,-1.233017148323875e-06
4121.26,-1.2323226148443408e-06
4122.16,-1.230087812629797e-06
4123.06,-1.231234618338587e-06
4123.96,-1.2391631033035538e-06
4124.86,-1.2401648964456672e-06
4125.76,-1.2490420989716932e-06
4126.66,-1.2510839536361172e-06
4127.56,-1.2460126123939851e-06
4128.46,-1.2387108996773555e-06
4129.36,-1.2238505375421558e-06
4130.26,-1.2212174184232411e-06
4131.17,-1.2066845694942129e-06
4132.06,-1.195568125650239e-06
4132.97,-1.187670966966621e-06
4133.87,-1.1833270368454628e-06
4134.77,-1.1976315010402002e-06
4135.67,-1.2152404243994835e-06
4136.57,-1.2335077323870418e-06
4137.47,-1.258846567090271e-06
4138.37,-1.2794860868517326e-06
4139.27,-1.2950990964937548e-06
4140.17,-1.296208664196324e-06
4141.07,-1.2852839513170473e-06
4141.97,-1.2633372252521607e-06
4142.87,-1.2408222754041237e-06
4143.77,-1.2199417234905509e-06
4144.67,-1.2108918749586089e-06
4145.57,-1.2172307013763175e-06
4146.47,-1.2248442951471114e-06
4147.37,-1.2476986422470116e-06
4148.27,-1.2613147122132229e-06
4149.17,-1.269360670061233e-06
4150.07,-1.2784254560680685e-06
4150.97,-1.270633679472473e-06
4151.87,-1.2699204776485263e-06
4152.77,-1.265230035251367e-06
4153.67,-1.2575586076079684e-06
4154.57,-1.2558717376387827e-06
4155.47,-1.2545526831501034e-06
4156.37,-1.2583911325073781e-06
4157.27,-1.2650056274425272e-06
4158.17,-1.2753106274919455e-06
4159.07,-1.2941197117903743e-06
4159.97,-1.3040443085629577e-06
4160.87,-1.3243603026603585e-06
4161.77,-1.339630736644796e-06
4162.67,-1.3479120366834839e-06
4163.57,-1.3508459697862287e-06
4164.47,-1.3497587184090957e-06
4165.37,-1.3487220288437735e-06
4166.27,-1.3430567877896348e-06
4167.17,-1.3351181893541442e-06
4168.07,-1.3284563125457268e-06
4168.98,-1.31645427457134e-06
4169.88,-1.305600978640309e-06
4170.78,-1.2862934240443993e-06
4171.68,-1.2670550432313935e-06
4172.58,-1.246640474074113e-06
4173.48,-1.2271604894847438e-06
4174.38,-1.2233776572748873e-06
4175.28,-1.218608714195843e-06
4176.18,-1.2264978382722313e-06
4177.08,-1.2371772350853268e-06
4177.98,-1.255013396628913e-06
4178.88,-1.266612631565363e-06
4179.78,-1.2840744654728667e-06
4180.68,-1.2915161089316556e-06
4181.58,-1.2956351513177228e-06
4182.48,-1.302279720493732e-06
4183.38,-1.3070731614852587e-06
4184.28,-1.3118750690163818e-06
4185.18,-1.3062525689958325e-06
4186.08,-1.3076533627083398e-06
4186.98,-1.305369676107279e-06
4187.88,-1.3013732040086138e-06
4188.78,-1.302880558373888e-06
4189.68,-1.3038932518273669e-06
4190.58,-1.3132476524916694e-06
4191.48,-1.3270981393659687e-06
4192.38,-1.3392039570262636e-06
4193.28,-1.3462912544242927e-06
4194.18,-1.3533915487172047e-06
4195.08,-1.3435741847797068e-06
4195.98,-1.332013796727725e-06
4196.88,-1.3150898984069105e-06
4197.78,-1.2965168360163586e-06
4198.68,-1.2720542095978662e-06
4199.58,-1.265616737273367e-06
4200.48,-1.253134650723669e-06
4201.38,-1.2571722407591993e-06
4202.28,-1.2598180634653768e-06
4203.18,-1.2712053499141176e-06
4204.08,-1.287547819214596e-06
4204.98,-1.2989271615866551e-06
4205.88,-1.3243155637096107e-06
4206.79,-1.3446512404443376e-06
4207.69,-1.362253592907044e-06
4208.59,-1.3797771827668402e-06
4209.49,-1.3938378118107091e-06
4210.39,-1.3999651890635476e-06
4211.29,-1.403221604375219e-06
4212.19,-1.407275340007539e-06
4213.09,-1.3980295629315297e-06
4213.99,-1.3883675361969022e-06
4214.89,-1.3820893529058615e-06
4215.79,-1.361372301794378e-06
4216.69,-1.3569854416469408e-06
4217.59,-1.3602141294884685e-06
4218.49,-1.375068480348245e-06
4219.39,-1.3898943316389516e-06
4220.29,-1.4049198668856006e-06
4221.19,-1.4094047151923164e-06
4222.09,-1.4042323638395496e-06
4222.99,-1.3756920001371277e-06
4223.89,-1.3345441354987629e-06
4224.79,-1.2857415111789763e-06
4225.69,-1.2320748027690095e-06
4226.59,-1.1935309554826538e-06
4227.49,-1.1773469360814165e-06
4228.39,-1.1884849278151023e-06
4229.29,-1.223971466797973e-06
4230.19,-1.2681259766425958e-06
4231.09,-1.3220140684564396e-06
4231.99,-1.3545574523227487e-06
4232.89,-1.381029733116326e-06
4233.79,-1.3769636658998886e-06
4234.69,-1.376136036181893e-06
4235.59,-1.3685136008821872e-06
4236.49,-1.3611072750684991e-06
4237.39,-1.353277878081462e-06
4238.29,-1.3524771063118288e-06
4239.19,-1.365895056139583e-06
4240.09,-1.3786386755883347e-06
4240.99,-1.394969190504301e-06
4241.89,-1.4143712071409255e-06
4242.79,-1.4228680829376896e-06
4243.69,-1.4390544067438399e-06
4244.59,-1.4486462285614776e-06
4245.5,-1.4505833364032648e-06
4246.4,-1.4443402730496823e-06
4247.3,-1.4222041633966296e-06
4248.2,-1.4043790096986e-06
4249.1,-1.3874598644447668e-06
4250.0,-1.368912943567756e-06
4250.9,-1.3682194896587932e-06
4251.8,-1.3714246842750793e-06
4252.7,-1.376173573323707e-06
4253.6,-1.3840106939376718e-06
4254.5,-1.394589619942205e-06
4255.4,-1.4039424280285772e-06
4256.3,-1.4059466467806433e-06
4257.2,-1.413840810394575e-06
4258.1,-1.4141305419459065e-06
4259.0,-1.402860309348883e-06
4259.9,-1.3972921604086336e-06
4260.8,-1.3878308997994416e-06
4261.7,-1.3937089762061609e-06
4262.6,-1.411084100355076e-06
4263.5,-1.4410688880978449e-06
4264.4,-1.4621211278376296e-06
4265.3,-1.49035523991146e-06
4266.2,-1.5037486963581907e-06
4267.1,-1.5000319233412875e-06
4268.0,-1.489445149804313e-06
4268.9,-1.4615448006952004e-06
4269.8,-1.4310540842429234e-06
4270.7,-1.3871591832879142e-06
4271.6,-1.3520578278058601e-06
4272.5,-1.3245669063220193e-06
4273.4,-1.311188570378714e-06
4274.3,-1.3114806882272533e-06
4275.2,-1.3287003909289258e-06
4276.1,-1.3568861328012669e-06
