wave,flux
3700.85,-4.4432041004620226e-07
3701.75,-4.3856870977723237e-07
3702.65,-4.271914870574061e-07
3703.55,-4.083209236448204e-07
3704.45,-3.853930920088135e-07
3705.35,-3.6965655444029687e-07
3706.25,-3.573774133772132e-07
3707.15,-3.5230586741885123e-07
3708.05,-3.5335564506217594e-07
3708.96,-3.598268129271802e-07
3709.86,-3.6696123407825433e-07
3710.76,-3.8343936745795776e-07
3711.66,-3.9646154094383036e-07
3712.56,-4.134466586363839e-07
3713.46,-4.312477328369788e-07
3714.36,-4.478717477870872e-07
3715.26,-4.5909938067476434e-07
3716.16,-4.6120447673633443e-07
3717.06,-4.549619154864697e-07
3717.96,-4.3987881504203563e-07
3718.86,-4.1455448989291153e-07
3719.76,-3.879716532867497e-07
3720.66,-3.6130362907838323e-07
3721.56,-3.426794203933749e-07
3722.46,-3.372652264241299e-07
3723.36,-3.4867524946918954e-07
3724.26,-3.687605652080695e-07
3725.16,-3.902233336537818e-07
3726.06,-4.103018801040126e-07
3726.96,-4.216721884314092e-07
3727.86,-4.2851293086436044e-07
3728.76,-4.3115561102601277e-07
3729.66,-4.275513644390953e-07
3730.56,-4.2041125772469444e-07
3731.46,-4.058687278980178e-07
3732.36,-3.849690934364427e-07
3733.26,-3.5918618679038774e-07
3734.16,-3.327703415691695e-07
3735.06,-3.1361352529335005e-07
3735.96,-3.05141894847085e-07
3736.86,-3.081431239281689e-07
3737.76,-3.2581479343339547e-07
3738.66,-3.531628865963645e-07
3739.56,-3.8177885933782036e-07
3740.46,-4.079695781650336e-07
3741.36,-4.2392058534807644e-07
3742.26,-4.321429672624374e-07
3743.16,-4.2541732502746964e-07
3744.06,-4.1246019674181155e-07
3744.96,-3.967664190261948e-07
3745.86,-3.788078390052272e-07
3746.76,-3.5753725446411604e-07
3747.67,-3.4071477263871603e-07
3748.57,-3.2522122278307294e-07
3749.47,-3.1816376222327203e-07
3750.37,-3.226277312633589e-07
3751.27,-3.3964709226820815e-07
3752.17,-3.661759552176546e-07
3753.07,-4.0081565666478584e-07
3753.97,-4.314147308491776e-07
3754.87,-4.5890699662241287e-07
3755.77,-4.699718999474231e-07
3756.67,-4.7171615063164666e-07
3757.57,-4.596609675890908e-07
3758.47,-4.468314420393831e-07
3759.37,-4.33894782079544e-07
3760.27,-4.278403350905332e-07
3761.17,-4.3184203223210264e-07
3762.07,-4.3642118040809876e-07
3762.97,-4.4471133994108595e-07
3763.87,-4.513099502601219e-07
3764.77,-4.5561454320568046e-07
3765.67,-4.55072148902493e-07
3766.57,-4.529940495695132e-07
3767.47,-4.469542099724363e-07
3768.37,-4.412648711025682e-07
3769.27,-4.3282262403094807e-07
3770.17,-4.324836423435097e-07
3771.07,-4.3467991313869103e-07
3771.97,-4.442895292718267e-07
3772.87,-4.5764250496874887e-07
3773.77,-4.734922165312089e-07
3774.67,-4.908489827706929e-07
3775.57,-5.063252671524359e-07
3776.47,-5.135953002846346e-07
3777.37,-5.255473164945889e-07
3778.27,-5.345969224178458e-07
3779.17,-5.477620722537767e-07
3780.07,-5.634434063514549e-07
3780.97,-5.742611091279448e-07
3781.87,-5.808611416671212e-07
3782.77,-5.862547969000924e-07
3783.67,-5.838210691419035e-07
3784.57,-5.788537190679044e-07
3785.47,-5.660170258142265e-07
3786.38,-5.504372872418501e-07
3787.28,-5.334789275524849e-07
3788.18,-5.179776041711205e-07
3789.08,-5.05597426443033e-07
3789.98,-4.977422842569876e-07
3790.88,-4.926845818363356e-07
3791.78,-4.910247560583831e-07
3792.68,-4.850056864778517e-07
3793.58,-4.737241412378035e-07
3794.48,-4.612843594324934e-07
3795.38,-4.474395839172677e-07
3796.28,-4.269997348958661e-07
3797.18,-4.110815229584311e-07
3798.08,-4.054393263282008e-07
3798.98,-4.0411968903450545e-07
3799.88,-4.1446318015230353e-07
3800.78,-4.390364608811837e-07
3801.68,-4.6872436820364985e-07
3802.58,-5.027005842724807e-07
3803.48,-5.296407872632907e-07
3804.38,-5.533681794579425e-07
3805.28,-5.647190696758515e-07
3806.18,-5.718560631797949e-07
3807.08,-5.697257986330534e-07
3807.98,-5.749374277220059e-07
3808.88,-5.782117564234036e-07
3809.78,-5.837189057469724e-07
3810.68,-5.869822871261494e-07
3811.58,-5.853223720776173e-07
3812.48,-5.750820697153782e-07
3813.38,-5.594615475269547e-07
3814.28,-5.4112310859187e-07
3815.18,-5.23654620122502e-07
3816.08,-5.14843888514797e-07
3816.98,-5.104498442177761e-07
3817.88,-5.089051410101203e-07
3818.78,-5.059106800196865e-07
3819.68,-5.036045241916542e-07
3820.58,-4.975864061382331e-07
3821.48,-4.91386355849454e-07
3822.38,-4.858416565868411e-07
3823.28,-4.792489065405547e-07
3824.18,-4.733121599730872e-07
3825.09,-4.6142517459928464e-07
3825.99,-4.4700644530355067e-07
3826.89,-4.357281631253266e-07
3827.79,-4.28726401790622e-07
3828.69,-4.227778819336195e-07
3829.59,-4.1884483097284255e-07
3830.49,-4.117974379035384e-07
3831.39,-4.032072382601147e-07
3832.29,-3.894759540933047e-07
3833.19,-3.7262490637624305e-07
3834.09,-3.572653445531122e-07
3834.99,-3.4604279715301235e-07
3835.89,-3.4468482091627323e-07
3836.79,-3.4568515572805787e-07
3837.69,-3.5033409793753204e-07
3838.59,-3.5984239407711677e-07
3839.49,-3.748267528295883e-07
3840.39,-3.935909908242684e-07
3841.29,-4.2124320158146323e-07
3842.19,-4.5216921619794897e-07
3843.09,-4.828802683992819e-07
3843.99,-5.136627378087995e-07
3844.89,-5.366085571049114e-07
3845.79,-5.541085195011743e-07
3846.69,-5.677287609954846e-07
3847.59,-5.757818009106647e-07
3848.49,-5.824373838894459e-07
3849.39,-5.815003938977188e-07
3850.29,-5.831090481311654e-07
3851.19,-5.853007201037535e-07
3852.09,-5.900803863920925e-07
3852.99,-5.887966677330524e-07
3853.89,-5.912626921689377e-07
3854.79,-5.87820411417542e-07
3855.69,-5.807238335327441e-07
3856.59,-5.696389055794838e-07
3857.49,-5.541423293587696e-07
3858.39,-5.385794356898172e-07
3859.29,-5.325610475345794e-07
3860.19,-5.306643332002901e-07
3861.09,-5.380437463206099e-07
3861.99,-5.547908418713685e-07
3862.9,-5.746754638796742e-07
3863.8,-5.933021182724475e-07
3864.7,-6.071914273250802e-07
3865.6,-6.129289837063931e-07
3866.5,-6.160172554690747e-07
3867.4,-6.168022295743606e-07
3868.3,-6.10769107715284e-07
3869.2,-6.025838397449692e-07
3870.1,-5.93992250924835e-07
3871.0,-5.791313979748006e-07
3871.9,-5.685244568051694e-07
3872.8,-5.584585065511487e-07
3873.7,-5.546386465498666e-07
3874.6,-5.580137640862477e-07
3875.5,-5.656163617231822e-07
3876.4,-5.687115371859111e-07
3877.3,-5.683333167113825e-07
3878.2,-5.660913304698467e-07
3879.1,-5.627608349483006e-07
3880.0,-5.572541186309982e-07
3880.9,-5.582747417110704e-07
3881.8,-5.54770392719333e-07
3882.7,-5.536742636460672e-07
3883.6,-5.496709330257235e-07
3884.5,-5.382980839557284e-07
3885.4,-5.228042849501805e-07
3886.3,-5.029624327588069e-07
3887.2,-4.844710923251219e-07
3888.1,-4.676698540605653e-07
3889.0,-4.6072953874967915e-07
3889.9,-4.6463081695767694e-07
3890.8,-4.775800077648644e-07
3891.7,-5.027889807223757e-07
3892.6,-5.278123418362688e-07
3893.5,-5.498911561601156e-07
3894.4,-5.668977349242592e-07
3895.3,-5.810871733434969e-07
3896.2,-5.936181013241894e-07
3897.1,-5.999272952431758e-07
3898.0,-6.109676383489272e-07
3898.9,-6.194717031972779e-07
3899.8,-6.21845750430603e-07
3900.7,-6.28030240091508e-07
3901.6,-6.303877437998191e-07
3902.51,-6.297812577830704e-07
3903.41,-6.269597317071823e-07
3904.31,-6.21706007287908e-07
3905.21,-6.174661578748374e-07
3906.11,-6.167055345408488e-07
3907.01,-6.241474815156709e-07
3907.91,-6.345113322461734e-07
3908.81,-6.552816059183162e-07
3909.71,-6.723435075194576e-07
3910.61,-6.89476690248531e-07
3911.51,-7.045786004352938e-07
3912.41,-7.114832454671303e-07
3913.31,-7.130554921395533e-07
3914.21,-7.105046056746403e-07
3915.11,-7.020183597480584e-07
3916.01,-6.970786870608271e-07
3916.91,-6.871636965619549e-07
3917.81,-6.764963407274226e-07
3918.71,-6.641550845291044e-07
3919.61,-6.515297825254084e-07
3920.51,-6.369678841792483e-07
3921.41,-6.279670564985423e-07
3922.31,-6.20472157031684e-07
3923.21,-6.127354887176751e-07
3924.11,-6.063518727478577e-07
3925.01,-5.94169069697747e-07
3925.91,-5.77125968928011e-07
3926.81,-5.521945252746425e-07
3927.71,-5.159474262300529e-07
3928.61,-4.726461322895276e-07
3929.51,-4.231332799994037e-07
3930.41,-3.720852198434272e-07
3931.31,-3.2426520727377e-07
3932.21,-2.7934308405177857e-07
3933.11,-2.445318120577458e-07
3934.01,-2.2507732134685742e-07
3934.91,-2.219609396209301e-07
3935.81,-2.3715398627436277e-07
3936.71,-2.6779515572364587e-07
3937.61,-3.1141867160275586e-07
3938.51,-3.6099572817637304e-07
3939.42,-4.155988753751509e-07
3940.32,-4.6295824088745313e-07
3941.22,-5.035747302488453e-07
3942.12,-5.329456013690792e-07
3943.02,-5.59081069871997e-07
3943.92,-5.778735224897198e-07
3944.82,-5.976947332799571e-07
3945.72,-6.198621757550973e-07
3946.62,-6.397474499628966e-07
3947.52,-6.56519118276945e-07
3948.42,-6.779454572036855e-07
3949.32,-6.869801158346049e-07
3950.22,-6.976549113019205e-07
3951.12,-7.070312953610936e-07
3952.02,-7.166613432491391e-07
3952.92,-7.192499707204945e-07
3953.82,-7.252971760915087e-07
3954.72,-7.279008090262098e-07
3955.62,-7.273812201135689e-07
3956.52,-7.243269212091731e-07
3957.42,-7.169938031388581e-07
3958.32,-7.079051075580307e-07
3959.22,-6.969876098112265e-07
3960.12,-6.771023856348224e-07
3961.02,-6.50329074018375e-07
3961.92,-6.186567331399094e-07
3962.82,-5.782029196510488e-07
3963.72,-5.348578141414962e-07
3964.62,-4.853433282528888e-07
3965.52,-4.3715873888421675e-07
3966.42,-3.873035536411837e-07
3967.32,-3.371547233486377e-07
3968.22,-2.9845102814385944e-07
3969.12,-2.743286058815193e-07
3970.02,-2.676231293540657e-07
3970.92,-2.839494447877201e-07
3971.82,-3.1645210348795367e-07
3972.72,-3.6458026022382924e-07
3973.62,-4.182157097751233e-07
3974.52,-4.768969535095261e-07
3975.42,-5.303194812382158e-07
3976.32,-5.85000451403494e-07
3977.22,-6.309391415590842e-07
3978.13,-6.72675245504246e-07
3979.03,-7.10587799705172e-07
3979.93,-7.422639919752449e-07
3980.83,-7.660626848303083e-07
3981.73,-7.787835140693627e-07
3982.63,-7.897050692415823e-07
3983.53,-7.958488365539029e-07
3984.43,-7.999306727797677e-07
3985.33,-8.123007408898607e-07
3986.23,-8.210929041610215e-07
3987.13,-8.315028852560213e-07
3988.03,-8.388429082432632e-07
3988.93,-8.521871698664772e-07
3989.83,-8.59847129517299e-07
3990.73,-8.68501805883587e-07
3991.63,-8.776656835947593e-07
3992.53,-8.858014695543154e-07
3993.43,-8.868114105463501e-07
3994.33,-8.881032887403185e-07
3995.23,-8.842012462043352e-07
3996.13,-8.737856772266353e-07
3997.03,-8.659127966158652e-07
3997.93,-8.634461467172648e-07
3998.83,-8.683459583294317e-07
3999.73,-8.767183719281271e-07
4000.63,-8.918651553070236e-07
4001.53,-9.067292272515989e-07
4002.43,-9.112054762531832e-07
4003.33,-9.129228979147668e-07
4004.23,-9.066115166622562e-07
4005.13,-8.967964803312779e-07
4006.03,-8.869919721364891e-07
4006.93,-8.826199154624315e-07
4007.83,-8.878430866907506e-07
4008.73,-8.974404016912156e-07
4009.63,-9.138265960145611e-07
4010.53,-9.282445366366295e-07
4011.43,-9.40974042621362e-07
4012.33,-9.492779471416238e-07
4013.23,-9.553705063800024e-07
4014.13,-9.61116657142904e-07
4015.03,-9.602036688341543e-07
4015.93,-9.59792821158049e-07
4016.84,-9.665514556900961e-07
4017.74,-9.675930144818545e-07
4018.64,-9.680560775926235e-07
4019.54,-9.734179558445752e-07
4020.44,-9.766482364907486e-07
4021.34,-9.777390441597237e-07
4022.24,-9.798511621630113e-07
4023.14,-9.775183932758059e-07
4024.04,-9.833937353624626e-07
4024.94,-9.820076772135329e-07
4025.84,-9.86546402224014e-07
4026.74,-9.925609567088851e-07
4027.64,-9.976718428681117e-07
4028.54,-9.961815568621109e-07
4029.44,-9.904932847757205e-07
4030.34,-9.711638187368284e-07
4031.24,-9.527442064028707e-07
4032.14,-9.32136789788983e-07
4033.04,-9.171697610517867e-07
4033.94,-9.210392083510149e-07
4034.84,-9.282519905012529e-07
4035.74,-9.496537238156275e-07
4036.64,-9.771619355179094e-07
4037.54,-1.004774083120819e-06
4038.44,-1.0241492012004103e-06
4039.34,-1.0326841018296098e-06
4040.24,-1.037916490069856e-06
4041.14,-1.0386754441119574e-06
4042.04,-1.0206117152871046e-06
4042.94,-1.0022397888038502e-06
4043.84,-9.820204887305853e-07
4044.74,-9.549889749314512e-07
4045.64,-9.347339522193564e-07
4046.54,-9.299410950531916e-07
4047.44,-9.338063726574064e-07
4048.34,-9.505141560219097e-07
4049.24,-9.792806664111602e-07
4050.14,-1.0029709141359756e-06
4051.04,-1.017852935205003e-06
4051.94,-1.032694737849505e-06
4052.84,-1.0344684103114265e-06
4053.74,-1.0294760972659227e-06
4054.65,-1.0162216577612893e-06
4055.55,-1.0110773268081392e-06
4056.45,-9.980557675144836e-07
4057.35,-9.955489022931217e-07
4058.25,-9.950244053307936e-07
4059.15,-9.973708755289677e-07
4060.05,-1.005821322712065e-06
4060.95,-1.00084856193864e-06
4061.85,-9.952084484059972e-07
4062.75,-9.867037846080464e-07
4063.65,-9.764804656742044e-07
4064.55,-9.668481016582692e-07
4065.45,-9.61209944508147e-07
4066.35,-9.682101235786682e-07
4067.25,-9.799145659185174e-07
4068.15,-9.962244353961447e-07
4069.05,-1.0134670361759054e-06
4069.95,-1.0216513356068687e-06
4070.85,-1.0249486582136328e-06
4071.75,-1.025134059169012e-06
4072.65,-1.0188389274013201e-06
4073.55,-1.0151453991883542e-06
4074.45,-1.0041237358950816e-06
4075.35,-9.969913868142666e-07
4076.25,-9.88427730794322e-07
4077.15,-9.72771333389573e-07
4078.05,-9.640355959578984e-07
4078.95,-9.663416662392505e-07
4079.85,-9.805983101288722e-07
4080.75,-9.980473671686186e-07
4081.65,-1.0243132088992747e-06
4082.55,-1.0454592920348644e-06
4083.45,-1.0498567180080985e-06
4084.35,-1.0605718028169314e-06
4085.25,-1.0679756974508003e-06
4086.15,-1.0726525173651942e-06
4087.05,-1.0942639814860548e-06
4087.95,-1.1029699077080345e-06
4088.85,-1.125109912304182e-06
4089.75,-1.137510947326756e-06
4090.65,-1.1402564010551914e-06
4091.55,-1.1431675943208892e-06
4092.45,-1.1393842805646963e-06
4093.36,-1.1273302498200695e-06
4094.26,-1.107385139764654e-06
4095.16,-1.0851735362046507e-06
4096.06,-1.067138853448312e-06
4096.96,-1.0442933260638015e-06
4097.86,-1.0138295546376273e-06
4098.76,-9.751117930166877e-07
4099.66,-9.390108303758379e-07
4100.56,-9.048468495545876e-07
4101.46,-8.714490505580086e-07
4102.36,-8.570043871123735e-07
4103.26,-8.593442457317168e-07
4104.16,-8.783280774457656e-07
4105.06,-9.103844789047397e-07
4105.96,-9.531096139708609e-07
4106.86,-9.923387091686393e-07
4107.76,-1.0247793719102588e-06
4108.66,-1.0476561714526958e-06
4109.56,-1.068863453679347e-06
4110.46,-1.0760108052552335e-06
4111.36,-1.0850285726754623e-06
4112.26,-1.0973674336238863e-06
4113.16,-1.1102316044836535e-06
4114.06,-1.1250703011426795e-06
4114.96,-1.1377092564220639e-06
4115.86,-1.1481815456972048e-06
4116.76,-1.1538224477252028e-06
4117.66,-1.152286284391164e-06
4118.56,-1.1465419366489679e-06
4119.46,-1.1394900054737946e-06
4120.36,-1.1284139286629966e-06
4121.26,-1.1326798098373138e-06
4122.16,-1.131978107990301e-06
4123.06,-1.1350420020051278e-06
4123.96,-1.1480912228027058e-06
4124.86,-1.1501308065712877e-06
4125.76,-1.1522581504567273e-06
4126.66,-1.1552732526295322e-06
4127.56,-1.1468742302503619e-06
4128.46,-1.1457943235024842e-06
4129.36,-1.1371900630385323e-06
4130.26,-1.1287740456738023e-06
4131.17,-1.1229347056443688e-06
4132.06,-1.1114919301389482e-06
4132.97,-1.101238994903175e-06
4133.87,-1.1053136889199385e-06
4134.77,-1.1069281890061465e-06
4135.67,-1.1244444438710382e-06
4136.57,-1.1529295351252536e-06
4137.47,-1.1696056670584081e-06
4138.37,-1.1924840308485814e-06
4139.27,-1.1980680956640258e-06
4140.17,-1.2080402083613772e-06
4141.07,-1.1956158961247437e-06
4141.97,-1.1786429050328163e-06
4142.87,-1.1602903683285104e-06
4143.77,-1.1423207892611347e-06
4144.67,-1.1300455380817753e-06
4145.57,-1.1360214661672697e-06
4146.47,-1.1483731950253063e-06
4147.37,-1.163138280585668e-06
4148.27,-1.1725591627876668e-06
4149.17,-1.1862166712758655e-06
4150.07,-1.1923384236488981e-06
4150.97,-1.187846680606259e-06
4151.87,-1.1884880437180799e-06
4152.77,-1.1776015085757646e-06
4153.67,-1.1789716337591255e-06
4154.57,-1.172244781689404e-06
4155.47,-1.1753618584172854e-06
4156.37,-1.1719457794136908e-06
4157.27,-1.1814834670442173e-06
4158.17,-1.1952681599352815e-06
4159.07,-1.2108488361053315e-06
4159.97,-1.2233797430549903e-06
4160.87,-1.2343951083291458e-06
4161.77,-1.2508327395461853e-06
4162.67,-1.256328418552715e-06
4163.57,-1.265605438854193e-06
4164.47,-1.2611858645288241e-06
4165.37,-1.2650217326154008e-06
4166.27,-1.260987373916586e-06
4167.17,-1.252439699166988e-06
4168.07,-1.243779237221866e-06
4168.98,-1.2334592648628023e-06
4169.88,-1.2251515233758568e-06
4170.78,-1.2109972656871702e-06
4171.68,-1.1885070588443685e-06
4172.58,-1.1752094565506847e-06
4173.48,-1.157379246804096e-06
4174.38,-1.1505784354030613e-06
4175.28,-1.1486278206931641e-06
4176.18,-1.1553380893735891e-06
4177.08,-1.1669005379508302e-06
4177.98,-1.1829264985899196e-06
4178.88,-1.1925570864776546e-06
4179.78,-1.2097884755658096e-06
4180.68,-1.220883632270973e-06
4181.58,-1.2237717088514453e-06
4182.48,-1.2342269191911714e-06
4183.38,-1.2333508229247226e-06
4184.28,-1.2398232840541453e-06
4185.18,-1.2347420564954993e-06
4186.08,-1.2386657424144417e-06
4186.98,-1.2306784849913365e-06
4187.88,-1.2346496701226143e-06
4188.78,-1.2317351499871404e-06
4189.68,-1.2405008607840598e-06
4190.58,-1.2491031971239756e-06
4191.48,-1.2562034381542878e-06
4192.38,-1.2698806229139948e-06
4193.28,-1.2828512594945524e-06
4194.18,-1.2824676009064017e-06
4195.08,-1.277582548714765e-06
4195.98,-1.270175521177673e-06
4196.88,-1.2509371637519456e-06
4197.78,-1.2319267883825438e-06
4198.68,-1.2127724110284667e-06
4199.58,-1.202809232947755e-06
4200.48,-1.1994088481661074e-06
4201.38,-1.1967468512045486e-06
4202.28,-1.1975908366856228e-06
4203.18,-1.2120891754601594e-06
4204.08,-1.2238515373373456e-06
4204.98,-1.2406291179691358e-06
4205.88,-1.261310878642714e-06
4206.79,-1.2820157701535482e-06
4207.69,-1.2916564815037892e-06
4208.59,-1.3118652939301378e-06
4209.49,-1.3236494990819174e-06
4210.39,-1.3361261986148804e-06
4211.29,-1.3307845908594179e-06
4212.19,-1.3383084833734324e-06
4213.09,-1.3286212316922624e-06
4213.99,-1.3221476066186605e-06
4214.89,-1.3097384753337471e-06
4215.79,-1.3010698970013382e-06
4216.69,-1.2968741029273186e-06
4217.59,-1.3077072357697449e-06
4218.49,-1.3136742871335009e-06
4219.39,-1.3252262752008152e-06
4220.29,-1.3411346047852922e-06
4221.19,-1.3451888148968841e-06
4222.09,-1.3349318591207155e-06
4222.99,-1.3113217327452858e-06
4223.89,-1.2754182124792734e-06
4224.79,-1.2360312551172527e-06
4225.69,-1.1859259068178718e-06
4226.59,-1.1474811276802874e-06
4227.49,-1.1373613790227978e-06
4228.39,-1.1530013966801283e-06
4229.29,-1.1840272176129316e-06
4230.19,-1.2266938549513916e-06
4231.09,-1.2695677826932165e-06
4231.99,-1.3014492221747871e-06
4232.89,-1.325233432602915e-06
4233.79,-1.3305416341235589e-06
4234.69,-1.320738541300188e-06
4235.59,-1.3151363061808662e-06
4236.49,-1.3056284722894415e-06
4237.39,-1.3034388580894967e-06
4238.29,-1.3015872490413862e-06
4239.19,-1.3101572950865119e-06
4240.09,-1.3236967228938483e-06
4240.99,-1.3400446786431855e-06
4241.89,-1.3644715402658118e-06
4242.79,-1.3743042478287162e-06
4243.69,-1.3848075153239856e-06
4244.59,-1.3888608061166306e-06
4245.5,-1.3886535375207585e-06
4246.4,-1.3824303896593776e-06
4247.3,-1.3707880973201352e-06
4248.2,-1.347896791037094e-06
4249.1,-1.3368267492880117e-06
4250.0,-1.327081387355787e-06
4250.9,-1.3243968871135573e-06
4251.8,-1.3313682575071127e-06
4252.7,-1.333416570767212e-06
4253.6,-1.3446033643800215e-06
4254.5,-1.3489953744800344e-06
4255.4,-1.3632138125830878e-06
4256.3,-1.3619125540964062e-06
4257.2,-1.3648169807903976e-06
4258.1,-1.3634090288493696e-06
4259.0,-1.360672914285307e-06
4259.9,-1.3506440107933993e-06
4260.8,-1.3530313375135509e-06
4261.7,-1.3598660731040145e-06
4262.6,-1.3732112028842567e-06
4263.5,-1.3912490674499148e-06
4264.4,-1.424098489289038e-06
4265.3,-1.4406041862014477e-06
4266.2,-1.4510854648846609e-06
4267.1,-1.4544889874639678e-06
4268.0,-1.4413546720751096e-06
4268.9,-1.4146104795797307e-06
4269.8,-1.387225338824277e-06
4270.7,-1.3483820368290747e-06
4271.6,-1.3157038187500418e-06
4272.5,-1.2934176814430442e-06
4273.4,-1.2827078000905632e-06
4274.3,-1.2854407594142823e-06
4275.2,-1.3047430046277333e-06
4276.1,-1.3333260992840128e-06
