wave,flux
3700.85,0.013027438217718425
3701.75,0.012944678963644924
3702.65,0.012579848275082768
3703.55,0.01194595684463903
3704.45,0.011244692699257723
3705.35,0.010549967768354871
3706.25,0.0100301735897463
3707.15,0.009749152690405254
3708.05,0.009823636185318297
3708.96,0.010202055730958762
3709.86,0.010746544247170434
3710.76,0.01170080164544086
3711.66,0.012637473559219082
3712.56,0.013739773456883542
3713.46,0.014753483642831312
3714.36,0.015460498113899945
3715.26,0.015690732838468464
3716.16,0.015644901170052846
3717.06,0.015149192354670205
3717.96,0.014191042706958513
3718.86,0.013047093014246587
3719.76,0.011825930746395931
3720.66,0.010850241660693719
3721.56,0.010327666381696427
3722.46,0.010451421975588602
3723.36,0.01115111440135911
3724.26,0.012205859171083234
3725.16,0.013346869075019122
3726.06,0.014190972819487079
3726.96,0.014850222505412068
3727.86,0.015225985514151323
3728.76,0.015275188750038051
3729.66,0.015290365447111608
3730.56,0.015063768199052724
3731.46,0.014583597759139364
3732.36,0.01375838751770714
3733.26,0.012676580925305764
3734.16,0.011613893502163693
3735.06,0.01075497590319571
3735.96,0.010305115200434848
3736.86,0.010466688234602018
3737.76,0.011334125645422523
3738.66,0.01266741908589677
3739.56,0.01420860948190136
3740.46,0.01563072937969415
3741.36,0.016688654839097504
3742.26,0.017089595859557084
3743.16,0.016745867824053174
3744.06,0.01608647286068849
3744.96,0.015170457823096577
3745.86,0.014213442583561145
3746.76,0.013434900155084837
3747.67,0.01283033817314341
3748.57,0.012639276854809181
3749.47,0.01294522501046706
3750.37,0.013744562622904546
3751.27,0.015342793267145003
3752.17,0.017267695827606504
3753.07,0.019385167360692727
3753.97,0.02147104217071876
3754.87,0.022913119895358658
3755.77,0.023580109513406396
3756.67,0.023385271492405307
3757.57,0.02266108828072727
3758.47,0.021664795744433807
3759.37,0.020881917285455902
3760.27,0.020771216529510785
3761.17,0.021032156640988175
3762.07,0.021611682619688457
3762.97,0.022306670781182647
3763.87,0.022833661477678596
3764.77,0.02335105548684603
3765.67,0.023605121121101292
3766.57,0.024111174454155768
3767.47,0.024606541695573712
3768.37,0.025327410502414684
3769.27,0.02633173645533849
3770.17,0.027450432735010723
3771.07,0.028781139703271064
3771.97,0.03025541459564981
3772.87,0.03134487463459456
3773.77,0.0327072397875962
3774.67,0.03388745579109164
3775.57,0.034566209048352774
3776.47,0.035342076011358935
3777.37,0.03618958582732612
3778.27,0.036966765454563996
3779.17,0.038011088637682
3780.07,0.03912587270024554
3780.97,0.04043768763779222
3781.87,0.041361641974042906
3782.77,0.042401958982122186
3783.67,0.042689848606044835
3784.57,0.04238173233962026
3785.47,0.04160029229396627
3786.38,0.03999897723643796
3787.28,0.03828331326556594
3788.18,0.03705178785228729
3789.08,0.03601242778457783
3789.98,0.0358344983362786
3790.88,0.03619559950826098
3791.78,0.03660410849660765
3792.68,0.03708697770275096
3793.58,0.03720459348259984
3794.48,0.03702433187641022
3795.38,0.03644098080138741
3796.28,0.035674809108285827
3797.18,0.03523787325885997
3798.08,0.03518822675134607
3798.98,0.035595605635352044
3799.88,0.037204070677453474
3800.78,0.039546195344334435
3801.68,0.04305548065609327
3802.58,0.046354444654341555
3803.48,0.049735038127256756
3804.38,0.052308106449095323
3805.28,0.053858997924521125
3806.18,0.05436876985399859
3807.08,0.05472451811763844
3807.98,0.05512009659701103
3808.88,0.05608753404812603
3809.78,0.056931725817226206
3810.68,0.057910992296728026
3811.58,0.058278466443939886
3812.48,0.05724144980071003
3813.38,0.05542076831515617
3814.28,0.053240853097687404
3815.18,0.05099850801496851
3816.08,0.04922975060556521
3816.98,0.048344262437272294
3817.88,0.04823273205008781
3818.78,0.04811414065186654
3819.68,0.04773801247314354
3820.58,0.04718794584494135
3821.48,0.046729295173652506
3822.38,0.04675441676644756
3823.28,0.04644411032730703
3824.18,0.04600752829862396
3825.09,0.04528431125287174
3825.99,0.04387596628452032
3826.89,0.04303786593654084
3827.79,0.04277353712864408
3828.69,0.043438445580069505
3829.59,0.04438483325807609
3830.49,0.04516961643096158
3831.39,0.04543193620917242
3832.29,0.04527335564770248
3833.19,0.045051162522044
3834.09,0.04485450050404603
3834.99,0.04521225069521382
3835.89,0.04619308309309754
3836.79,0.04724710742295277
3837.69,0.048338162443040664
3838.59,0.04928752348825378
3839.49,0.05060354574205429
3840.39,0.05295235085458807
3841.29,0.05707794425204849
3842.19,0.06282298250967495
3843.09,0.06939684358349246
3843.99,0.07563079763736535
3844.89,0.08163221573939394
3845.79,0.08615504279040599
3846.69,0.08938760770270997
3847.59,0.09125696369495163
3848.49,0.09232687945443367
3849.39,0.09297537114112762
3850.29,0.09350976607094637
3851.19,0.09428999433922844
3852.09,0.09514092357069906
3852.99,0.09640699756693377
3853.89,0.09729484569205775
3854.79,0.09684283885113526
3855.69,0.09547667049361223
3856.59,0.09338261213221753
3857.49,0.0905499020141035
3858.39,0.08857891971508793
3859.29,0.08710378439810335
3860.19,0.08751401929319877
3861.09,0.09109641381006822
3861.99,0.09702563763061293
3862.9,0.10377867638582655
3863.8,0.11154774270483338
3864.7,0.11716932474325942
3865.6,0.12149629114441611
3866.5,0.12322256515521213
3867.4,0.12407068878650057
3868.3,0.12297422318917982
3869.2,0.12241260085406408
3870.1,0.12038010320617192
3871.0,0.11825641371932845
3871.9,0.11763963470437322
3872.8,0.11874066966515355
3873.7,0.12243524780666314
3874.6,0.127794547269845
3875.5,0.13349302998149504
3876.4,0.13786475437315454
3877.3,0.13985409798480025
3878.2,0.1393970808586971
3879.1,0.13915267136077453
3880.0,0.13918773751616087
3880.9,0.14062371706002236
3881.8,0.14319475165259568
3882.7,0.14574811864986087
3883.6,0.14973374216219362
3884.5,0.1514138054687837
3885.4,0.15107470386850194
3886.3,0.15060690647247202
3887.2,0.15036058530197002
3888.1,0.15171406740980956
3889.0,0.1563369589758922
3889.9,0.16343214517906907
3890.8,0.1757165278260194
3891.7,0.18847304369130388
3892.6,0.20055504427123128
3893.5,0.21098931252551323
3894.4,0.21782015548080386
3895.3,0.22366720690762665
3896.2,0.2277561226852214
3897.1,0.23131621032366426
3898.0,0.23519556318599188
3898.9,0.23810776952164903
3899.8,0.24231228533338478
3900.7,0.24647255399006782
3901.6,0.24878892304810174
3902.51,0.24999141120013077
3903.41,0.25150435775790425
3904.31,0.25160834264304754
3905.21,0.252120718288651
3906.11,0.25473184371239727
3907.01,0.2632166386832348
3907.91,0.2746535805291458
3908.81,0.28883942066595425
3909.71,0.3047850908156537
3910.61,0.3190499242991249
3911.51,0.3333274953711002
3912.41,0.34426972539321954
3913.31,0.34849254720617795
3914.21,0.3536292473701192
3915.11,0.3545265522189463
3916.01,0.35535862730044615
3916.91,0.3510674404835926
3917.81,0.3460221147071545
3918.71,0.3389077893422791
3919.61,0.3299856811673407
3920.51,0.32070857004031506
3921.41,0.31416713078095415
3922.31,0.3084901032738006
3923.21,0.3076349729962755
3924.11,0.30693266011230674
3925.01,0.30598048777991654
3925.91,0.2988504573026924
3926.81,0.28663115651307963
3927.71,0.26803327895062184
3928.61,0.2445679864457725
3929.51,0.21903740082464437
3930.41,0.19434056831770108
3931.31,0.17047491928280448
3932.21,0.15033333769589738
3933.11,0.13566441109793503
3934.01,0.12857305275490943
3934.91,0.12999363480356643
3935.81,0.1392953712127326
3936.71,0.1585882330726201
3937.61,0.1846057592262162
3938.51,0.21584131749658678
3939.42,0.2497275695645646
3940.32,0.2796313892158326
3941.22,0.3068288212089681
3942.12,0.32916433160057934
3943.02,0.3462456905806311
3943.92,0.36352138880410173
3944.82,0.38238197509971167
3945.72,0.40437910951514877
3946.62,0.4319571894187997
3947.52,0.45588884997422535
3948.42,0.4804891004438796
3949.32,0.5029064291736453
3950.22,0.5225421550251087
3951.12,0.539303022308797
3952.02,0.5525415949556922
3952.92,0.5691283686378291
3953.82,0.5761000470284237
3954.72,0.5804891072837904
3955.62,0.5839812219429958
3956.52,0.5843734708732173
3957.42,0.579810725895785
3958.32,0.5726272469387348
3959.22,0.558412422531883
3960.12,0.5389859382515231
3961.02,0.5129828682244223
3961.92,0.4779717767511449
3962.82,0.4412265416785773
3963.72,0.405157871906878
3964.62,0.3677953524501747
3965.52,0.333132496647676
3966.42,0.2977782839143708
3967.32,0.26458536304173264
3968.22,0.23995028315961311
3969.12,0.22536619889467144
3970.02,0.22544085157434063
3970.92,0.24179266699520177
3971.82,0.27443308791571847
3972.72,0.31973336812211406
3973.62,0.36789185180025125
3974.52,0.4224018173804772
3975.42,0.4781029226084849
3976.32,0.531717025166711
3977.22,0.5836980701606385
3978.13,0.6350376895993602
3979.03,0.6798594385006798
3979.93,0.7144182688473016
3980.83,0.7423564039865009
3981.73,0.7656317773306083
3982.63,0.7791594446070834
3983.53,0.7883380709295087
3984.43,0.7963459973115098
3985.33,0.8096906765383282
3986.23,0.82366747668208
3987.13,0.8393983973899967
3988.03,0.8551373755444597
3988.93,0.8726503878862936
3989.83,0.8820201116244956
3990.73,0.8976615109251279
3991.63,0.9069516781386259
3992.53,0.914882248148747
3993.43,0.922994417675896
3994.33,0.9235703381198175
3995.23,0.9179418479692539
3996.13,0.9127481113130854
3997.03,0.9058435274010086
3997.93,0.907683260303563
3998.83,0.9160078494102667
3999.73,0.9318685478665193
4000.63,0.950465528758294
4001.53,0.9696342271951043
4002.43,0.9766852408661221
4003.33,0.9816452779244359
4004.23,0.966867585295817
4005.13,0.951347086285652
4006.03,0.9385582915297892
4006.93,0.931405735529239
4007.83,0.9327260166729099
4008.73,0.9498794046360044
4009.63,0.9682789098116982
4010.53,0.9952652961868006
4011.43,1.0083136442675587
4012.33,1.0219966568920942
4013.23,1.0356305264323515
4014.13,1.0434707112365962
4015.03,1.046186027929277
4015.93,1.0538108944214226
4016.84,1.0534757929339027
4017.74,1.049960956645274
4018.64,1.053772643056903
4019.54,1.0599317708241973
4020.44,1.0581891323136963
4021.34,1.0603451361131015
4022.24,1.0586444705378804
4023.14,1.0571396324438058
4024.04,1.0627378096558266
4024.94,1.0583526989094063
4025.84,1.0621126746101321
4026.74,1.0722966115416634
4027.64,1.0786294023473582
4028.54,1.0692767449233307
4029.44,1.0539133907025529
4030.34,1.0226959796987365
4031.24,0.9885873249938134
4032.14,0.95263025858904
4033.04,0.9321004523191456
4033.94,0.926131087877229
4034.84,0.9321262067741266
4035.74,0.966213259306833
4036.64,1.000764304513501
4037.54,1.0393122036349398
4038.44,1.0740926991661874
4039.34,1.09442398604011
4040.24,1.098600691921446
4041.14,1.0846647814250034
4042.04,1.0687337467830782
4042.94,1.0335274166935755
4043.84,0.9885340720225296
4044.74,0.9492365176096523
4045.64,0.9104778724071798
4046.54,0.8961993274345786
4047.44,0.8976979628256199
4048.34,0.930884038765447
4049.24,0.9658084018828895
4050.14,1.0098265552011252
4051.04,1.0374342052230372
4051.94,1.058150840481484
4052.84,1.0583277874621064
4053.74,1.0460317076272294
4054.65,1.0313448857289589
4055.55,1.018721983970468
4056.45,0.9960610420189262
4057.35,0.9843150687339836
4058.25,0.9775943061338945
4059.15,0.9726601808922735
4060.05,0.9775722847760642
4060.95,0.968562309149723
4061.85,0.9549009216154641
4062.75,0.9359228678601119
4063.65,0.9146877074516274
4064.55,0.8990630705106515
4065.45,0.8990868084553216
4066.35,0.9058600558510014
4067.25,0.9274616296713618
4068.15,0.9542507640667225
4069.05,0.971314652439019
4069.95,0.9783413422524172
4070.85,0.9841808728962369
4071.75,0.974476541047465
4072.65,0.9646223259074126
4073.55,0.961158632164326
4074.45,0.9573684601728258
4075.35,0.9514115590366556
4076.25,0.9421225526366316
4077.15,0.9316826110956261
4078.05,0.9262743971246069
4078.95,0.9308929179452718
4079.85,0.9521856090407926
4080.75,0.975284518990039
4081.65,1.0038494784051348
4082.55,1.0241427233472886
4083.45,1.0400907887985524
4084.35,1.0407392787295051
4085.25,1.0434704725024289
4086.15,1.0585657061270854
4087.05,1.0779590434689068
4087.95,1.0932763422208254
4088.85,1.116363415407755
4089.75,1.127601278882284
4090.65,1.1325530706004305
4091.55,1.1306533778374501
4092.45,1.1203474912398408
4093.36,1.0988388318349653
4094.26,1.0830662277517158
4095.16,1.0568604071521093
4096.06,1.0322629142992663
4096.96,1.004085291611898
4097.86,0.9763634278755952
4098.76,0.9458896715530872
4099.66,0.9133250114584631
4100.56,0.889511552737705
4101.46,0.8632721438931362
4102.36,0.8538055959574579
4103.26,0.8586260210501057
4104.16,0.8769748077324051
4105.06,0.9071128035781569
4105.96,0.9411643676171945
4106.86,0.9733966699786399
4107.76,0.9948969673877224
4108.66,1.0093598039959617
4109.56,1.0122991250443043
4110.46,1.0127167234583954
4111.36,1.0121673659222843
4112.26,1.017673396035152
4113.16,1.0265352248640478
4114.06,1.0371995099584654
4114.96,1.04844141962433
4115.86,1.0575703013552187
4116.76,1.055703969951855
4117.66,1.0626534052532723
4118.56,1.0485955066400656
4119.46,1.0352921117284744
4120.36,1.0258360926915542
4121.26,1.0243757297730884
4122.16,1.0273243818204045
4123.06,1.0272747687412938
4123.96,1.0319570101203863
4124.86,1.033641585626007
4125.76,1.0391612411137388
4126.66,1.0399765539561905
4127.56,1.0314554512848457
4128.46,1.0196169888638782
4129.36,1.0032427535709216
4130.26,0.9823335051331404
4131.17,0.9673720287737155
4132.06,0.9490140901287297
4132.97,0.938387971851564
4133.87,0.9386626573989197
4134.77,0.9457732694181813
4135.67,0.9607752823591622
4136.57,0.9909800870927367
4137.47,1.0155901714748996
4138.37,1.0324942045344827
4139.27,1.0467294607774158
4140.17,1.0428595800341598
4141.07,1.026570165237299
4141.97,0.9989966357089952
4142.87,0.976631278203473
4143.77,0.944846930432706
4144.67,0.9388301905106846
4145.57,0.9299774707732774
4146.47,0.9445430049168793
4147.37,0.9620477836548359
4148.27,0.9826559584644116
4149.17,0.9876663405629327
4150.07,0.9904103835105689
4150.97,0.9875520982317535
4151.87,0.9815292461731012
4152.77,0.9718517446890675
4153.67,0.9715383644177691
4154.57,0.9631749920314882
4155.47,0.9652375138219715
4156.37,0.966494503673438
4157.27,0.9808729587778265
4158.17,0.9898886617719984
4159.07,1.0047014802257488
4159.97,1.0268640653299403
4160.87,1.0463545633019593
4161.77,1.0563214291055791
4162.67,1.0729075270613273
4163.57,1.0789847065535696
4164.47,1.0745446068336137
4165.37,1.069863865443141
4166.27,1.0586546077083905
4167.17,1.0437695274776375
4168.07,1.0305156705404472
4168.98,1.0225752035322255
4169.88,1.0062112263445238
4170.78,0.9942581621844194
4171.68,0.9808297895152753
4172.58,0.9619146180584178
4173.48,0.9479846817575487
4174.38,0.9329030768031371
4175.28,0.9337058472414885
4176.18,0.9363151563397584
4177.08,0.9458146471075869
4177.98,0.9585214860468256
4178.88,0.9671386486154446
4179.78,0.978800486571505
4180.68,0.9863688004100059
4181.58,0.9964080841226028
4182.48,0.9956140600686649
4183.38,1.0019700150294648
4184.28,1.0050441659697613
4185.18,1.0068062078186697
4186.08,1.0012496966787912
4186.98,0.9993106925009778
4187.88,0.9970416994544429
4188.78,0.997241857104762
4189.68,1.0002432659013978
4190.58,1.0088506498506822
4191.48,1.0196074999583675
4192.38,1.0315263642582126
4193.28,1.0366882185109139
4194.18,1.0386341732929707
4195.08,1.031663973144937
4195.98,1.0139506093169095
4196.88,0.9916787355902965
4197.78,0.9637689033422584
4198.68,0.9484868659216813
4199.58,0.9350941001069096
4200.48,0.9275637755395789
4201.38,0.9280539378965424
4202.28,0.937069576351343
4203.18,0.9493185976624303
4204.08,0.9648039388266364
4204.98,0.9898274433748219
4205.88,1.019175154712074
4206.79,1.045141706155199
4207.69,1.0624061059872867
4208.59,1.0773532686724012
4209.49,1.0862448340985047
4210.39,1.09339289781756
4211.29,1.0958049411032398
4212.19,1.0845027720116427
4213.09,1.0785903523568363
4213.99,1.0621095338732685
4214.89,1.0520996819649304
4215.79,1.042909672354557
4216.69,1.0397822857518086
4217.59,1.048132285102045
4218.49,1.0631400078527018
4219.39,1.0882241361431342
4220.29,1.0986532491761334
4221.19,1.1017477579536266
4222.09,1.0837521353906652
4222.99,1.0494863694249834
4223.89,1.0022749551430097
4224.79,0.9441117933503373
4225.69,0.8864176086464284
4226.59,0.8390375981019564
4227.49,0.8212020645836993
4228.39,0.8346633318405287
4229.29,0.8672682853356907
4230.19,0.9192422883404867
4231.09,0.9677169935818799
4231.99,1.0076793847426737
4232.89,1.0283516962570445
4233.79,1.039414227443584
4234.69,1.0354335838185846
4235.59,1.0216678640725918
4236.49,1.0142385849762612
4237.39,1.0126461299527258
4238.29,1.0151371634322237
4239.19,1.0225478851632366
4240.09,1.0378034848653857
4240.99,1.0567259662071367
4241.89,1.0763063941261297
4242.79,1.0962932992243608
4243.69,1.113176017564815
4244.59,1.128541383392911
4245.5,1.1238362962416395
4246.4,1.118951378964822
4247.3,1.0968397004616148
4248.2,1.0670299092415694
4249.1,1.0486575771531557
4250.0,1.022422059681109
4250.9,1.008792620767352
4251.8,0.997909823720635
4252.7,1.0000458177079035
4253.6,0.9992458962986029
4254.5,1.0092878054994372
4255.4,1.013803895266834
4256.3,1.0241482066487537
4257.2,1.0260467401955091
4258.1,1.0270133666193912
4259.0,1.0221267107725087
4259.9,1.0129752438928106
4260.8,1.0095676569885343
4261.7,1.0110662961179167
4262.6,1.030384824018271
4263.5,1.0610095634384453
4264.4,1.085439079226437
4265.3,1.1161673014974178
4266.2,1.128964761133459
4267.1,1.1218508395437214
4268.0,1.1102342686456608
4268.9,1.0716690532384974
4269.8,1.0275477586800466
4270.7,0.9831132141237806
4271.6,0.9370386056665535
4272.5,0.9070114787625805
4273.4,0.8877849405796111
4274.3,0.8914565077932546
4275.2,0.9063880702005762
4276.1,0.936209810096088
4277.0,0.9751840559257358
4277.9,1.0107115680694847
4278.8,1.0397341874399177
4279.7,1.052418822071757
4280.6,1.0574699544466741
4281.5,1.0506039228172466
4282.4,1.0462899564030228
4283.31,1.0366778392599918
4284.21,1.0279759314344965
4285.11,1.0224016157359446
4286.01,1.0087474638349296
4286.91,0.9908157025627398
4287.81,0.9732217728972062
4288.71,0.9514446065692324
4289.61,0.9333798578463132
4290.51,0.9195131676016766
4291.41,0.9202547999006038
4292.31,0.9272121429439821
4293.21,0.9402075880278786
4294.11,0.9533339858543095
4295.01,0.9539129559764332
4295.91,0.9497373350931472
4296.81,0.9257109992087154
4297.71,0.894366337321548
4298.61,0.8593912201225627
4299.51,0.8180262764237141
4300.41,0.7841340655585259
4301.31,0.7577295593526127
4302.21,0.7421827070410968
4303.11,0.7358910245413915
4304.01,0.7331608311864982
4304.91,0.7294206379153638
4305.81,0.7263086688482859
4306.71,0.7180323791089752
4307.61,0.7076610176065482
4308.51,0.6994713622500011
4309.41,0.6983608163960594
4310.31,0.7080954764118774
4311.21,0.735846251624979
4312.11,0.7720542215884413
4313.01,0.826595995048792
4313.91,0.8880833863703531
4314.81,0.957446182518433
4315.71,1.023607503777637
4316.61,1.0888944087697756
4317.51,1.1441991483373986
4318.41,1.1845240705799314
4319.31,1.2063296676453208
4320.21,1.2001209593856683
4321.12,1.178703942572205
4322.02,1.1395394288755136
4322.92,1.0902135476643344
4323.82,1.037501011626931
4324.72,0.9883034827416843
4325.62,0.9506765857698516
4326.52,0.9410090360413079
4327.42,0.9577811337360563
4328.32,0.9930963637816046
4329.22,1.0390163976293245
4330.12,1.083396681253408
4331.02,1.1241219803018605
4331.92,1.1561868952416867
4332.82,1.170070371007297
4333.72,1.1706112073911168
4334.62,1.1737933734870203
4335.52,1.151994370287524
4336.42,1.1238519781792462
4337.32,1.0826235184417743
4338.22,1.0286726267217636
4339.12,0.9829234985731428
4340.02,0.9406182175082746
4340.92,0.9200840964595488
4341.82,0.9175248359823007
4342.72,0.9354915261514147
4343.62,0.9689677768070668
4344.52,1.0051904446594542
4345.42,1.0438399481099174
4346.32,1.076232662153528
4347.22,1.0987151613076025
4348.12,1.1137011884521615
4349.02,1.1141908693046476
4349.92,1.1070378572967567
4350.82,1.085035309385524
4351.72,1.0636951856832944
4352.62,1.048030661490902
4353.52,1.03240268952321
4354.42,1.0306772485975397
4355.32,1.0381789664324408
4356.22,1.048521541728959
4357.12,1.071046536672882
4358.02,1.0793361735106215
4358.92,1.0890976762768103
4359.83,1.0985790915992475
4360.73,1.1005435232997611
