wave,flux
3700.85,0.0038695546728559744
3701.75,0.0038202318687311078
3702.65,0.003673077504704766
3703.55,0.003432126241567839
3704.45,0.0031623930553949533
3705.35,0.0028951496849025826
3706.25,0.002692753916393897
3707.15,0.002573003106100344
3708.05,0.0025763140221555484
3708.96,0.002702077309043637
3709.86,0.002944917385967017
3710.76,0.0033012401079971646
3711.66,0.0037281382371836037
3712.56,0.004140890946090823
3713.46,0.004482971153982682
3714.36,0.004709238845280369
3715.26,0.004719757831860691
3716.16,0.004543387003044175
3717.06,0.004257444797463479
3717.96,0.0038186946938931782
3718.86,0.003384617634463836
3719.76,0.002954946553078961
3720.66,0.0026480847306469438
3721.56,0.002492315496609961
3722.46,0.002567074509909968
3723.36,0.002819116545834603
3724.26,0.0031420350761975865
3725.16,0.003513364977508469
3726.06,0.0037854833309345394
3726.96,0.003933299437224244
3727.86,0.004015391308484485
3728.76,0.0040321673491744755
3729.66,0.003983367284900825
3730.56,0.003901390687528661
3731.46,0.0037402850689651204
3732.36,0.003454616713401856
3733.26,0.0031331735339416196
3734.16,0.00278782477210492
3735.06,0.002504634879517312
3735.96,0.0023824796863555677
3736.86,0.0024468580872926836
3737.76,0.0026920816526980343
3738.66,0.003094070674065074
3739.56,0.0035539663256016836
3740.46,0.00400074257629938
3741.36,0.004289998390793685
3742.26,0.004363896171777059
3743.16,0.004235094214840612
3744.06,0.003966131870601735
3744.96,0.003642559599173949
3745.86,0.003332360226604683
3746.76,0.003125684114100878
3747.67,0.0030081488180666986
3748.57,0.003017325600143605
3749.47,0.0031940763343403507
3750.37,0.003534363623600976
3751.27,0.0040774219090332214
3752.17,0.00476515775625293
3753.07,0.005481816503527663
3753.97,0.006137391554359137
3754.87,0.006575703199086726
3755.77,0.006752804363010288
3756.67,0.006640431149163905
3757.57,0.00631394513807364
3758.47,0.005959358326680126
3759.37,0.005677719109541864
3760.27,0.0056029103034959836
3761.17,0.005651478317629562
3762.07,0.0058280963439449945
3762.97,0.005965083169106838
3763.87,0.006080775976906851
3764.77,0.006193850175290886
3765.67,0.006304138721363709
3766.57,0.0064994028822670065
3767.47,0.006816595400054791
3768.37,0.007344960973280141
3769.27,0.007933040592843906
3770.17,0.008595916058988903
3771.07,0.009262338890541445
3771.97,0.00989079167129442
3772.87,0.010375862453631049
3773.77,0.010756351324497194
3774.67,0.010956737315257752
3775.57,0.011059807786848355
3776.47,0.01119991550729184
3777.37,0.011359291117751708
3778.27,0.011593318995509
3779.17,0.01189122068539618
3780.07,0.012287731330514928
3780.97,0.012714563656490601
3781.87,0.012991812765661737
3782.77,0.013262472813569442
3783.67,0.0133500534346487
3784.57,0.01316129368414537
3785.47,0.012663752717366155
3786.38,0.012043707623395433
3787.28,0.011301652443348926
3788.18,0.010658224430472672
3789.08,0.010293283523172762
3789.98,0.010201341749567841
3790.88,0.010287081761734016
3791.78,0.010575143271374595
3792.68,0.010806168627664058
3793.58,0.010967265969741328
3794.48,0.010921454185948124
3795.38,0.010741399172505032
3796.28,0.0106073205181321
3797.18,0.010539375054655095
3798.08,0.010595623123115764
3798.98,0.010765034757195011
3799.88,0.01128111880508297
3800.78,0.012086320229849757
3801.68,0.013084203745067576
3802.58,0.01425069711630357
3803.48,0.015262042972240797
3804.38,0.015999646088545802
3805.28,0.016490226142741204
3806.18,0.016608418087242234
3807.08,0.016527013592220283
3807.98,0.016586572376559677
3808.88,0.016852246957878198
3809.78,0.01711166789267628
3810.68,0.017362121488914625
3811.58,0.01747284170113866
3812.48,0.017073761239138816
3813.38,0.016302093619730063
3814.28,0.015342363912582714
3815.18,0.014398627835002585
3816.08,0.013653749790073146
3816.98,0.013187681722680691
3817.88,0.012889576304287203
3818.78,0.012674266932809045
3819.68,0.012476682291532041
3820.58,0.012206864931775247
3821.48,0.012034757343576702
3822.38,0.011943065214388017
3823.28,0.011893884294874691
3824.18,0.01177467842923143
3825.09,0.011589293325818577
3825.99,0.011402877161374668
3826.89,0.011204875460027124
3827.79,0.01139537442061507
3828.69,0.011765181112869099
3829.59,0.01230413534431332
3830.49,0.012755534058305616
3831.39,0.013132771592727235
3832.29,0.013396096397918493
3833.19,0.013591025541125313
3834.09,0.013843600016296923
3834.99,0.014243272927069917
3835.89,0.01478580982904802
3836.79,0.015315873900289724
3837.69,0.015576737984111765
3838.59,0.015742232601061876
3839.49,0.01593174615309651
3840.39,0.016451607713976493
3841.29,0.017558266454727512
3842.19,0.019204668850966132
3843.09,0.021313322917737455
3843.99,0.023528141212304114
3844.89,0.025379115752577345
3845.79,0.02690655181221507
3846.69,0.0278817916580521
3847.59,0.028369655536305237
3848.49,0.028417373775749172
3849.39,0.028373473039690515
3850.29,0.028393272230025423
3851.19,0.02853804563838657
3852.09,0.028877174456054387
3852.99,0.029127472709217016
3853.89,0.029369353522699856
3854.79,0.028951975099139916
3855.69,0.02852124008312842
3856.59,0.027466766224677242
3857.49,0.02650547456942507
3858.39,0.025762808075974104
3859.29,0.025231680735520044
3860.19,0.025700536294777213
3861.09,0.02693789812631538
3861.99,0.029299612003929474
3862.9,0.03219294611220079
3863.8,0.03496361699647594
3864.7,0.037110927522812164
3865.6,0.038664697202394106
3866.5,0.03949557193743393
3867.4,0.039593730063208064
3868.3,0.039338234601163695
3869.2,0.038795970590837024
3870.1,0.03822395135989344
3871.0,0.03786983440640547
3871.9,0.03826108829068459
3872.8,0.03957672470553872
3873.7,0.042134663231495395
3874.6,0.045202533704992456
3875.5,0.048317305545406176
3876.4,0.050172455778532965
3877.3,0.05089000935867591
3878.2,0.050631922086841266
3879.1,0.05002081848858516
3880.0,0.04993223729943091
3880.9,0.050485981588400064
3881.8,0.051837812315004735
3882.7,0.05415897108712128
3883.6,0.05617691047402173
3884.5,0.058357311977812715
3885.4,0.05959017000006017
3886.3,0.06055464167312222
3887.2,0.061987650587440435
3888.1,0.06418625371235298
3889.0,0.06921779053429822
3889.9,0.07541770482325369
3890.8,0.08358270368762417
3891.7,0.09162549407413709
3892.6,0.09882644967480606
3893.5,0.10372786520624225
3894.4,0.10684220006215499
3895.3,0.1086625745076369
3896.2,0.1092737401942203
3897.1,0.10996126594209119
3898.0,0.11068362339614816
3898.9,0.1119315305413654
3899.8,0.11259222502895151
3900.7,0.11464586711319492
3901.6,0.11587082015641006
3902.51,0.11741116712941578
3903.41,0.11782204798121222
3904.31,0.11847800272206149
3905.21,0.1193208349143009
3906.11,0.12233124997943136
3907.01,0.12794479336127193
3907.91,0.13664662812647663
3908.81,0.14740936057767315
3909.71,0.1576522198489231
3910.61,0.16823475051610662
3911.51,0.17710952563486249
3912.41,0.1841685172950839
3913.31,0.1900867829518272
3914.21,0.19437436241131414
3915.11,0.1955352692773732
3916.01,0.19615215297555347
3916.91,0.19435793798906215
3917.81,0.19086952212546834
3918.71,0.1839671822990459
3919.61,0.17736703773493304
3920.51,0.17040221333067632
3921.41,0.16432438152847847
3922.31,0.16127608230832827
3923.21,0.16103935631839575
3924.11,0.16256444297694692
3925.01,0.1630867323213486
3925.91,0.16208110508465323
3926.81,0.15754528001225487
3927.71,0.14913214542124678
3928.61,0.1379657077221404
3929.51,0.12552244803693285
3930.41,0.11286354166003976
3931.31,0.1012461299834163
3932.21,0.0917888094629185
3933.11,0.08526590774180598
3934.01,0.08311118534803445
3934.91,0.08509777800578573
3935.81,0.09274551269069342
3936.71,0.10495581175878471
3937.61,0.12159290859346154
3938.51,0.14120024772870082
3939.42,0.1620809638990719
3940.32,0.17952960525324946
3941.22,0.19403784860762135
3942.12,0.2051242609750086
3943.02,0.21490676191831795
3943.92,0.22347726060466463
3944.82,0.236576322165029
3945.72,0.25264847640360427
3946.62,0.27447136252814003
3947.52,0.2975054630279159
3948.42,0.321719347744808
3949.32,0.34442420794849665
3950.22,0.36510518003614467
3951.12,0.38362011419304226
3952.02,0.4005786153359471
3952.92,0.41366820728409054
3953.82,0.42195464050178183
3954.72,0.4277432568147986
3955.62,0.4322975022468401
3956.52,0.4296981267593216
3957.42,0.42689024451671864
3958.32,0.418566599790562
3959.22,0.40693692752789806
3960.12,0.3884829483071713
3961.02,0.3652611167733624
3961.92,0.3386745267745321
3962.82,0.31220983645318323
3963.72,0.2861807196442899
3964.62,0.26668916405124593
3965.52,0.24561786691665718
3966.42,0.22545622584943578
3967.32,0.2084677292373086
3968.22,0.19345425963884483
3969.12,0.1869815998079341
3970.02,0.191742817549664
3970.92,0.20779060003092586
3971.82,0.2368371846976534
3972.72,0.272955111177868
3973.62,0.3162487765354729
3974.52,0.36332685303802
3975.42,0.4121053277205474
3976.32,0.46198570478247136
3977.22,0.5088349164115592
3978.13,0.5580710121833817
3979.03,0.603233845489263
3979.93,0.6384081050739112
3980.83,0.673489637560367
3981.73,0.6946927584847747
3982.63,0.7100650239249392
3983.53,0.7216859184863621
3984.43,0.7314376155623395
3985.33,0.7442333414544219
3986.23,0.7615621121468119
3987.13,0.7788871192369795
3988.03,0.79382904150159
3988.93,0.812305686065042
3989.83,0.824355538030894
3990.73,0.8376117326817348
3991.63,0.8493869466511919
3992.53,0.8609301175442465
3993.43,0.8711250923471197
3994.33,0.875110028729799
3995.23,0.8744154499246977
3996.13,0.8765421687401228
3997.03,0.8687182553405169
3997.93,0.8735739470410149
3998.83,0.889931202568062
3999.73,0.9090988148313959
4000.63,0.9387172523858885
4001.53,0.9593013110317059
4002.43,0.9737596878911391
4003.33,0.9756411633185426
4004.23,0.9576371493745589
4005.13,0.9383532213876085
4006.03,0.9211843821973739
4006.93,0.9128343113886003
4007.83,0.9173069600860939
4008.73,0.9360595790559993
4009.63,0.9687974067807629
4010.53,0.9933685060749965
4011.43,1.0192378655041687
4012.33,1.04603836959732
4013.23,1.057916382102877
4014.13,1.0674119475331634
4015.03,1.0834055320891376
4015.93,1.0951601178646646
4016.84,1.091816952881975
4017.74,1.0969614794430091
4018.64,1.0993188740385147
4019.54,1.1044471118510593
4020.44,1.1091803420562403
4021.34,1.1122352483546907
4022.24,1.1077096808558144
4023.14,1.1034995542851842
4024.04,1.0972494388682565
4024.94,1.0894259914965316
4025.84,1.0966365983441972
4026.74,1.1005721103426915
4027.64,1.100157137027764
4028.54,1.0906413699234838
4029.44,1.0607524376921456
4030.34,1.0209446125970378
4031.24,0.9618902398873467
4032.14,0.9074644186825145
4033.04,0.870811726891101
4033.94,0.8556399082753986
4034.84,0.8668095492669051
4035.74,0.9038870419770384
4036.64,0.9670920076338086
4037.54,1.0222723740844442
4038.44,1.0715802834729078
4039.34,1.1083188267391233
4040.24,1.1166471196846657
4041.14,1.1078786437127837
4042.04,1.079835808776705
4042.94,1.0344688345573838
4043.84,0.9716599912476539
4044.74,0.909536249766185
4045.64,0.8573352187927478
4046.54,0.8278872070522776
4047.44,0.8303244375109852
4048.34,0.866664118847955
4049.24,0.9240219106655461
4050.14,0.9848078366837176
4051.04,1.0343063441246305
4051.94,1.0661103424435927
4052.84,1.0731317552214268
4053.74,1.060290580741159
4054.65,1.0397133788295867
4055.55,1.0127999922343436
4056.45,0.9867919865324236
4057.35,0.9629035449312106
4058.25,0.9482606379191234
4059.15,0.9378374399667359
4060.05,0.9349367186364788
4060.95,0.9222671930259156
4061.85,0.9014507224685474
4062.75,0.8790654471662546
4063.65,0.8506822788377716
4064.55,0.8336994780970644
4065.45,0.8326871632391627
4066.35,0.8511397984728236
4067.25,0.8774137458227121
4068.15,0.907194397737078
4069.05,0.9344969792979093
4069.95,0.9468333194399524
4070.85,0.9425451569982917
4071.75,0.9407700870153458
4072.65,0.9335711172029848
4073.55,0.9271930170184784
4074.45,0.9252618718144857
4075.35,0.9294763938364348
4076.25,0.9246383096668888
4077.15,0.9229768655013194
4078.05,0.9243298670500181
4078.95,0.9396414521794637
4079.85,0.9663525078239454
4080.75,1.004853168950008
4081.65,1.0442280564926507
4082.55,1.0683020341627838
4083.45,1.0855350951182472
4084.35,1.0917039681392582
4085.25,1.1023925836202484
4086.15,1.1137731936821416
4087.05,1.1337701405331342
4087.95,1.158914956692202
4088.85,1.1863456457520107
4089.75,1.2017554465707623
4090.65,1.2074546695157555
4091.55,1.1921216100044971
4092.45,1.1799987770734195
4093.36,1.152810204795015
4094.26,1.1235079564856796
4095.16,1.0895316998292666
4096.06,1.0531158339422928
4096.96,1.0232873931782405
4097.86,0.9888872365601804
4098.76,0.9595665435384798
4099.66,0.9342298884470657
4100.56,0.9190638944257258
4101.46,0.9065770775285019
4102.36,0.9031913497452003
4103.26,0.910124516258561
4104.16,0.9343021551046183
4105.06,0.9649782428208737
4105.96,0.9949476880473621
4106.86,1.023720888970098
4107.76,1.0466284515602053
4108.66,1.0508225900326993
4109.56,1.0511123235444348
4110.46,1.0424235525607093
4111.36,1.0358589344667861
4112.26,1.0354089631694632
4113.16,1.0370458640161226
4114.06,1.0493954025423777
4114.96,1.0615582537724504
4115.86,1.073552657109689
4116.76,1.0771122750249111
4117.66,1.0759869989354416
4118.56,1.0608889171648797
4119.46,1.0504063135601005
4120.36,1.0358625478442798
4121.26,1.0303315581200354
4122.16,1.0322709410748874
4123.06,1.0373344313952324
4123.96,1.0396958951859394
4124.86,1.0538991480811606
4125.76,1.0585533452303055
4126.66,1.0611485329846388
4127.56,1.0453603011753378
4128.46,1.0311250282556008
4129.36,1.0108218791551224
4130.26,0.9777246300765723
4131.17,0.951756758370439
4132.06,0.9311587012065324
4132.97,0.9126588775190981
4133.87,0.9095210015249255
4134.77,0.9201426676732258
4135.67,0.945541049108128
4136.57,0.981228694187527
4137.47,1.0095110361526567
4138.37,1.0316951941983914
4139.27,1.0417331639258796
4140.17,1.041830180529481
4141.07,1.0170316952923075
4141.97,0.9850777520840951
4142.87,0.9413112746081668
4143.77,0.9069398584503578
4144.67,0.885035351120956
4145.57,0.8851943917327019
4146.47,0.8980273828256017
4147.37,0.9187358832676855
4148.27,0.9429594649226403
4149.17,0.9552414841123467
4150.07,0.9560467744709993
4150.97,0.9497195868376287
4151.87,0.9455839081045044
4152.77,0.9373441681423724
4153.67,0.9295620681561174
4154.57,0.9249197704068726
4155.47,0.9219924853934426
4156.37,0.9303286643270394
4157.27,0.9445206487740457
4158.17,0.9642849554773425
4159.07,0.9890249297797908
4159.97,1.0168153916439573
4160.87,1.047126759028652
4161.77,1.0695810928555136
4162.67,1.0802533236669765
4163.57,1.0875657103427403
4164.47,1.0833635507645587
4165.37,1.0715058271522235
4166.27,1.0517718774198834
4167.17,1.0365616666547117
4168.07,1.0212668662354285
4168.98,1.008207262190805
4169.88,1.0038319297485163
4170.78,0.987778870805629
4171.68,0.9748430423084454
4172.58,0.9549436098269919
4173.48,0.9399275310994505
4174.38,0.9218605597937454
4175.28,0.9183399600031242
4176.18,0.9159373982733704
4177.08,0.9254651964968049
4177.98,0.9350768784205058
4178.88,0.9444782223464167
4179.78,0.952172245567898
4180.68,0.9609744470206573
4181.58,0.9741863310672412
4182.48,0.9795372178979973
4183.38,0.9865851518872422
4184.28,1.0003726956721741
4185.18,1.007214587283693
4186.08,1.0099595670665518
4186.98,1.0077499847084674
4187.88,1.0027081378917342
4188.78,0.9999667471496838
4189.68,1.006927475011681
4190.58,1.0197645731628475
4191.48,1.032643631639241
4192.38,1.0473926477297284
4193.28,1.0502855625842442
4194.18,1.0468204572943156
4195.08,1.0264544168836085
4195.98,1.006418522502478
4196.88,0.9743567394606544
4197.78,0.9411629964346165
4198.68,0.9142083011765293
4199.58,0.9027678195217914
4200.48,0.8973614166363935
4201.38,0.8975349560717173
4202.28,0.9154007147583515
4203.18,0.9358475917235534
4204.08,0.9647090669307675
4204.98,1.0035882911762395
4205.88,1.0405595365564768
4206.79,1.0778702484007403
4207.69,1.1081344547959584
4208.59,1.1229224049133504
4209.49,1.1274819922275163
4210.39,1.1238196146011927
4211.29,1.1161011370189315
4212.19,1.0979236742788059
4213.09,1.0837363530003217
4213.99,1.0606846746015208
4214.89,1.0456583585333568
4215.79,1.034670987129623
4216.69,1.0422124978908378
4217.59,1.0586066327859014
4218.49,1.0839650827772411
4219.39,1.1209309423201876
4220.29,1.1354638759717943
4221.19,1.137265588706072
4222.09,1.1119819072748502
4222.99,1.0572398093818098
4223.89,0.9883755655481182
4224.79,0.9066088971106998
4225.69,0.8258566976450781
4226.59,0.7631599037602658
4227.49,0.7337889452349657
4228.39,0.7472959680219612
4229.29,0.7897959461963335
4230.19,0.8539880158383094
4231.09,0.9226358507207956
4231.99,0.9775820629495607
4232.89,1.01190873915085
4233.79,1.0290455048385871
4234.69,1.027668854944457
4235.59,1.0242452139891771
4236.49,1.0150196049928166
4237.39,1.0158083351409068
4238.29,1.022851825156807
4239.19,1.0396801440399313
4240.09,1.0606714052362465
4240.99,1.0960597577939226
4241.89,1.1302734035600233
4242.79,1.1664022502555216
4243.69,1.1949745035721049
4244.59,1.2194648675278448
4245.5,1.232873616165968
4246.4,1.217514322770284
4247.3,1.1888214688316736
4248.2,1.1459663271509017
4249.1,1.0979692648135715
4250.0,1.0498441704203172
4250.9,1.0089582133820003
4251.8,0.9872279305953289
4252.7,0.9706090552187877
4253.6,0.9644004758549432
4254.5,0.9721756869029571
4255.4,0.9871353039230207
4256.3,0.9967976039106414
4257.2,1.0135893684518273
4258.1,1.020108599123541
4259.0,1.0170603458971355
4259.9,1.010218525404298
4260.8,1.0102458696538739
4261.7,1.0197190174223352
4262.6,1.048655775865884
4263.5,1.0879565553223072
4264.4,1.1310956098597686
4265.3,1.1658645897752427
4266.2,1.1862604164909398
4267.1,1.1848338110806593
4268.0,1.1521798319607541
4268.9,1.1055397857292513
4269.8,1.036643677348592
4270.7,0.9685808036047594
4271.6,0.899822060749285
4272.5,0.8414603375030203
4273.4,0.8166607969744422
4274.3,0.8088543053003276
4275.2,0.8330279100707567
4276.1,0.8789638844125569
4277.0,0.9294783796280054
4277.9,0.9877870160131689
4278.8,1.0284790577029672
4279.7,1.0572325586841491
4280.6,1.0698716637649257
4281.5,1.0769885482429018
4282.4,1.0678477502637584
4283.31,1.0544766190672255
4284.21,1.049218640882413
4285.11,1.0357965282563983
4286.01,1.021039280137871
4286.91,1.0022312427460545
4287.81,0.9748621904932522
4288.71,0.9418699386197968
4289.61,0.9173134312812891
4290.51,0.9008330681914599
4291.41,0.8905159536377891
4292.31,0.8994975724867013
4293.21,0.9111152844963512
4294.11,0.9222228636848058
4295.01,0.9357758157287938
4295.91,0.9344284318940648
4296.81,0.9170313009827794
4297.71,0.8864790905646103
4298.61,0.844973837120083
4299.51,0.7993327067014536
4300.41,0.7619347515901465
4301.31,0.7300877757672367
4302.21,0.7117765428446311
4303.11,0.7044909847052253
4304.01,0.6998925640155793
4304.91,0.6924705689542167
4305.81,0.6828128487381921
4306.71,0.6673533629119303
4307.61,0.6505890722263672
4308.51,0.6405953192805833
4309.41,0.6442081326190071
4310.31,0.6581218046344406
4311.21,0.6985548451234974
4312.11,0.7494516774778441
4313.01,0.8114973182699197
4313.91,0.8903745226150045
4314.81,0.9755507066526923
4315.71,1.0559956580544996
4316.61,1.1315232796457497
4317.51,1.19597384462045
4318.41,1.2367463789560467
4319.31,1.2564690232920925
4320.21,1.2496028528232748
4321.12,1.2171263643050656
4322.02,1.1695627994656772
4322.92,1.0987860928308903
4323.82,1.0276897018093958
4324.72,0.9654733046798423
4325.62,0.9201877986246366
4326.52,0.9054720444100407
4327.42,0.9220238733892723
4328.32,0.967777959997728
4329.22,1.0321925030444612
4330.12,1.0963122358868893
4331.02,1.152644730035466
4331.92,1.1989830637112528
4332.82,1.2244719289884731
4333.72,1.2344642198096858
4334.62,1.2349260693252546
4335.52,1.2195524963363182
4336.42,1.1933627016140882
4337.32,1.141574606038504
4338.22,1.0868193487818698
4339.12,1.0347196910454017
4340.02,0.9911144693366817
4340.92,0.9699252784811094
4341.82,0.974805278227567
4342.72,0.9902045900423455
4343.62,1.0241260377523271
4344.52,1.0631862947144934
4345.42,1.0961955536819088
4346.32,1.1248458783752688
4347.22,1.1564577324551706
4348.12,1.1693272658739942
4349.02,1.1692473373393582
4349.92,1.1536157648920313
4350.82,1.137113850280513
4351.72,1.1007492865329518
4352.62,1.069673200561572
4353.52,1.0461494879789577
4354.42,1.0332045883243408
4355.32,1.041306933072972
4356.22,1.0562025049928736
