wave,flux
3700.85,-5.2039607011567856e-05
3701.75,-5.1478238456133614e-05
3702.65,-4.984030954086859e-05
3703.55,-4.702244587788933e-05
3704.45,-4.3928696107522024e-05
3705.35,-4.084051132992581e-05
3706.25,-3.852962583766999e-05
3707.15,-3.734309684798996e-05
3708.05,-3.710765673674276e-05
3708.96,-3.839717748142923e-05
3709.86,-4.051669969326025e-05
3710.76,-4.3491369667625714e-05
3711.66,-4.71921693285264e-05
3712.56,-5.090684882890579e-05
3713.46,-5.41029784961473e-05
3714.36,-5.64807608297934e-05
3715.26,-5.73434497814651e-05
3716.16,-5.629316676738944e-05
3717.06,-5.40418602180695e-05
3717.96,-5.0756596407557e-05
3718.86,-4.6286082770313414e-05
3719.76,-4.195032015818349e-05
3720.66,-3.822638265660275e-05
3721.56,-3.6143326250115366e-05
3722.46,-3.623556271853864e-05
3723.36,-3.8350427724592815e-05
3724.26,-4.153653729208821e-05
3725.16,-4.4746215758578004e-05
3726.06,-4.750410223145127e-05
3726.96,-4.888485814583085e-05
3727.86,-4.956372185300523e-05
3728.76,-4.992271291715635e-05
3729.66,-4.935536831460544e-05
3730.56,-4.8174193701264335e-05
3731.46,-4.641906362930662e-05
3732.36,-4.3411541902026915e-05
3733.26,-3.978983200297437e-05
3734.16,-3.64326862998428e-05
3735.06,-3.359235573399388e-05
3735.96,-3.243594253740605e-05
3736.86,-3.300920676429483e-05
3737.76,-3.525386973380948e-05
3738.66,-3.919021173347021e-05
3739.56,-4.367738522876577e-05
3740.46,-4.749699807989104e-05
3741.36,-5.0113442413579485e-05
3742.26,-5.08842640815407e-05
3743.16,-4.941521550024852e-05
3744.06,-4.711361170880766e-05
3744.96,-4.4243195435216706e-05
3745.86,-4.1145922376801585e-05
3746.76,-3.8665559634108155e-05
3747.67,-3.6722782328719146e-05
3748.57,-3.6066158913190044e-05
3749.47,-3.6388538562676766e-05
3750.37,-3.817913164486867e-05
3751.27,-4.193919596731656e-05
3752.17,-4.694781662515876e-05
3753.07,-5.257884827541364e-05
3753.97,-5.763691622732877e-05
3754.87,-6.104403208311799e-05
3755.77,-6.272315173174173e-05
3756.67,-6.170043006748669e-05
3757.57,-5.934218172413639e-05
3758.47,-5.628288623372235e-05
3759.37,-5.407675318491097e-05
3760.27,-5.292249913510968e-05
3761.17,-5.3131480880427834e-05
3762.07,-5.406377415265101e-05
3762.97,-5.527342497753165e-05
3763.87,-5.605818677623725e-05
3764.77,-5.677526360363844e-05
3765.67,-5.7081987527966164e-05
3766.57,-5.7295115152674234e-05
3767.47,-5.805631819096833e-05
3768.37,-5.915003235119115e-05
3769.27,-6.054464882282798e-05
3770.17,-6.267521140607432e-05
3771.07,-6.510644284270433e-05
3771.97,-6.816097207921863e-05
3772.87,-7.07415893591545e-05
3773.77,-7.329806111150396e-05
3774.67,-7.490409655401228e-05
3775.57,-7.664384405866648e-05
3776.47,-7.772826023235833e-05
3777.37,-7.862658149375812e-05
3778.27,-7.965935443068468e-05
3779.17,-8.110922166497195e-05
3780.07,-8.339293504306684e-05
3780.97,-8.570512029672264e-05
3781.87,-8.748898163969154e-05
3782.77,-8.82737086165217e-05
3783.67,-8.820708990969066e-05
3784.57,-8.705850117807454e-05
3785.47,-8.474473200235097e-05
3786.38,-8.091970309768872e-05
3787.28,-7.684681145802957e-05
3788.18,-7.291050517499116e-05
3789.08,-7.0275265612564e-05
3789.98,-6.872428336050085e-05
3790.88,-6.918299773025681e-05
3791.78,-6.916446733702885e-05
3792.68,-6.93510806684129e-05
3793.58,-6.88374283438153e-05
3794.48,-6.804122225337514e-05
3795.38,-6.5825861068194e-05
3796.28,-6.407020356502261e-05
3797.18,-6.288093037958397e-05
3798.08,-6.201079713471416e-05
3798.98,-6.251757058822024e-05
3799.88,-6.471701334485923e-05
3800.78,-6.873963928970111e-05
3801.68,-7.37806892646278e-05
3802.58,-7.874586747451428e-05
3803.48,-8.402700111474011e-05
3804.38,-8.738142570712528e-05
3805.28,-8.905283576079662e-05
3806.18,-8.93950371451185e-05
3807.08,-8.909268371208271e-05
3807.98,-8.929844663769024e-05
3808.88,-9.038499096341208e-05
3809.78,-9.131306184175302e-05
3810.68,-9.250213627529925e-05
3811.58,-9.2652379791597e-05
3812.48,-8.990843258898631e-05
3813.38,-8.63137115416379e-05
3814.28,-8.201933829586916e-05
3815.18,-7.775295450048344e-05
3816.08,-7.47938224504455e-05
3816.98,-7.255782043888453e-05
3817.88,-7.163377272008801e-05
3818.78,-7.107811994755574e-05
3819.68,-6.987564139219953e-05
3820.58,-6.850199914030099e-05
3821.48,-6.764876751218328e-05
3822.38,-6.679030814737334e-05
3823.28,-6.612689136332797e-05
3824.18,-6.506680413324765e-05
3825.09,-6.332215093827338e-05
3825.99,-6.117768349613405e-05
3826.89,-5.9267907208979306e-05
3827.79,-5.861057014715433e-05
3828.69,-5.8670521331650374e-05
3829.59,-5.931255152708821e-05
3830.49,-5.994886324691166e-05
3831.39,-5.961625262896517e-05
3832.29,-5.8805653931395914e-05
3833.19,-5.818675103438155e-05
3834.09,-5.7242349081216677e-05
3834.99,-5.7280212067396935e-05
3835.89,-5.7828868459163114e-05
3836.79,-5.8745846913651555e-05
3837.69,-5.954588071104733e-05
3838.59,-6.001265814047489e-05
3839.49,-6.138793175183095e-05
3840.39,-6.379779687714812e-05
3841.29,-6.802093679276671e-05
3842.19,-7.316446564702301e-05
3843.09,-7.966617380959488e-05
3843.99,-8.548607117880111e-05
3844.89,-9.066046405615172e-05
3845.79,-9.440850188265694e-05
3846.69,-9.717652787137547e-05
3847.59,-9.875218140560211e-05
3848.49,-9.910766646544784e-05
3849.39,-9.841657966862819e-05
3850.29,-9.833962103799132e-05
3851.19,-9.837693062830157e-05
3852.09,-9.877708171073848e-05
3852.99,-9.909177513901981e-05
3853.89,-9.90741428202661e-05
3854.79,-9.750473324502348e-05
3855.69,-9.557617222003845e-05
3856.59,-9.30492456970563e-05
3857.49,-9.026907337787806e-05
3858.39,-8.736292007842489e-05
3859.29,-8.517996794292168e-05
3860.19,-8.55760736578396e-05
3861.09,-8.75694035724037e-05
3861.99,-9.246150007083055e-05
3862.9,-9.853807965908423e-05
3863.8,-0.00010392039396799678
3864.7,-0.00010839295535209282
3865.6,-0.00011086052289301431
3866.5,-0.00011088199432738468
3867.4,-0.00011019534569387115
3868.3,-0.00010820365729185397
3869.2,-0.00010577048220274037
3870.1,-0.00010327588029609191
3871.0,-0.00010066907361900761
3871.9,-9.936037371970527e-05
3872.8,-9.947763342130098e-05
3873.7,-0.0001026404426865315
3874.6,-0.00010738734400614381
3875.5,-0.00011213404704081453
3876.4,-0.00011502565327937674
3877.3,-0.00011541221275363461
3878.2,-0.00011402995031942359
3879.1,-0.00011231681270682421
3880.0,-0.00011118003228594498
3880.9,-0.00011062965387030918
3881.8,-0.00011134838882309098
3882.7,-0.0001120710585518476
3883.6,-0.00011323035978406124
3884.5,-0.00011380871758399538
3885.4,-0.00011360638682623456
3886.3,-0.00011167327964979697
3887.2,-0.00011112031013889747
3888.1,-0.00011120219090163639
3889.0,-0.00011322738718097644
3889.9,-0.00011804775146917846
3890.8,-0.00012568760860338785
3891.7,-0.00013393884289408326
3892.6,-0.00014240153565757722
3893.5,-0.00014910190450798536
3894.4,-0.000152656541679858
3895.3,-0.0001554839521698794
3896.2,-0.00015689380375846234
3897.1,-0.00015893135329217792
3898.0,-0.00016079037310960667
3898.9,-0.0001619771528249698
3899.8,-0.00016275979044180606
3900.7,-0.00016424416008046694
3901.6,-0.0001641090528992213
3902.51,-0.0001637204075845939
3903.41,-0.00016277948528910387
3904.31,-0.00016076583697467132
3905.21,-0.00015978700124679864
3906.11,-0.00016040296858538475
3907.01,-0.00016361971107268535
3907.91,-0.00017019954574935275
3908.81,-0.00017834993904779654
3909.71,-0.00018671900748688653
3910.61,-0.00019383700247009139
3911.51,-0.00019979619329873216
3912.41,-0.00020380864763786918
3913.31,-0.0002071493119129511
3914.21,-0.00020821020376904717
3915.11,-0.00020755445601606967
3916.01,-0.00020535895789405598
3916.91,-0.00020246073824208924
3917.81,-0.0001973336269559648
3918.71,-0.00019200399281576046
3919.61,-0.0001860288651337667
3920.51,-0.0001797024081784738
3921.41,-0.00017417003318344795
3922.31,-0.00017197854605202877
3923.21,-0.00016914999676296029
3924.11,-0.00016790740914660659
3925.01,-0.00016612622160474036
3925.91,-0.00016166251186970106
3926.81,-0.00015429028564018955
3927.71,-0.0001436842377776761
3928.61,-0.00013039385261695124
3929.51,-0.00011603321882074254
3930.41,-0.00010232237606817438
3931.31,-8.884830111452826e-05
3932.21,-7.759308530509362e-05
3933.11,-6.968256188769844e-05
3934.01,-6.512638581299989e-05
3934.91,-6.523290320508391e-05
3935.81,-7.019653571809225e-05
3936.71,-7.935088816882109e-05
3937.61,-9.24295595976244e-05
3938.51,-0.00010731933168728894
3939.42,-0.0001235879075489079
3940.32,-0.00013807620367154366
3941.22,-0.00015034275751390404
3942.12,-0.0001595338488331622
3943.02,-0.00016706673106023427
3943.92,-0.00017345946558395805
3944.82,-0.0001818922155843999
3945.72,-0.000191966715740623
3946.62,-0.00020297506133024038
3947.52,-0.00021447673873631684
3948.42,-0.00022611220543176653
3949.32,-0.00023618182857536058
3950.22,-0.00024406056735248432
3951.12,-0.0002528702975420606
3952.02,-0.0002574301968884563
3952.92,-0.000262075728995368
3953.82,-0.00026497813150025374
3954.72,-0.00026581723324745234
3955.62,-0.00026661951052538944
3956.52,-0.0002659475259345355
3957.42,-0.00026412565714241273
3958.32,-0.0002606020931140167
3959.22,-0.00025510828365532485
3960.12,-0.00024776734039204677
3961.02,-0.00023454150928720697
3961.92,-0.00021878729331990392
3962.82,-0.00020236236740436636
3963.72,-0.00018452982107558934
3964.62,-0.00016812982536219712
3965.52,-0.00015184250629515797
3966.42,-0.0001350815681618569
3967.32,-0.00012010384018218242
3968.22,-0.00010822109094871081
3969.12,-0.00010170656059644713
3970.02,-0.00010153709028899332
3970.92,-0.00010942643965082052
3971.82,-0.0001233755347242285
3972.72,-0.00014205632611671403
3973.62,-0.00016432906228764198
3974.52,-0.00018807976699897235
3975.42,-0.00021251375427991753
3976.32,-0.00023735673987962475
3977.22,-0.0002597775652029432
3978.13,-0.0002834153164372101
3979.03,-0.0003029250405934379
3979.93,-0.00032098246736576315
3980.83,-0.0003351247930475639
3981.73,-0.00034541481269636213
3982.63,-0.00035073210251785226
3983.53,-0.0003541162788093642
3984.43,-0.00036089776019278697
3985.33,-0.00036656838959317137
3986.23,-0.0003721315816801366
3987.13,-0.0003796000870654074
3988.03,-0.00038799559278297595
3988.93,-0.0003981854495471638
3989.83,-0.0004043835314960478
3990.73,-0.0004105482721882228
3991.63,-0.00041667845354883035
3992.53,-0.00042170120113641126
3993.43,-0.00042669830223767785
3994.33,-0.0004303058017956608
3995.23,-0.00043115029249181255
3996.13,-0.00042966417531907654
3997.03,-0.00042855559292868836
3997.93,-0.0004318454616839757
3998.83,-0.0004405567305886486
3999.73,-0.00045041371024333966
4000.63,-0.00046032904445474424
4001.53,-0.00047362348342694214
4002.43,-0.00048081662873884914
4003.33,-0.00048108958377648974
4004.23,-0.000476880511350913
4005.13,-0.0004698198115131403
4006.03,-0.00046322694180309467
4006.93,-0.000461198100809174
4007.83,-0.0004657123562993326
4008.73,-0.00047530298034640647
4009.63,-0.0004895616393381125
4010.53,-0.0005006450421404108
4011.43,-0.0005115696763826736
4012.33,-0.0005227044591352777
4013.23,-0.000531510111794029
4014.13,-0.0005402371203373033
4015.03,-0.0005475075005404755
4015.93,-0.0005537337354023027
4016.84,-0.0005567407790965115
4017.74,-0.0005604426834365051
4018.64,-0.0005675074366449269
4019.54,-0.0005722553165007494
4020.44,-0.0005774403400294316
4021.34,-0.0005829175027552611
4022.24,-0.0005846212981144397
4023.14,-0.000585239496547218
4024.04,-0.0005868753357029621
4024.94,-0.0005914361345680548
4025.84,-0.0005949905268019332
4026.74,-0.0006030634279325302
4027.64,-0.0006083015958729087
4028.54,-0.0006084520733859929
4029.44,-0.0005998375881488622
4030.34,-0.0005870285390575023
4031.24,-0.000568493175237015
4032.14,-0.0005478325945946418
4033.04,-0.0005386583103019195
4033.94,-0.0005336420368611039
4034.84,-0.0005431506130941879
4035.74,-0.0005675774633280822
4036.64,-0.0005977598643946152
4037.54,-0.0006267367236685598
4038.44,-0.0006517362710337421
4039.34,-0.0006731649775954628
4040.24,-0.0006792253690159443
4041.14,-0.0006808403283382335
4042.04,-0.0006720328393068685
4042.94,-0.00065643589322068
4043.84,-0.0006356854141035872
4044.74,-0.0006096792135935978
4045.64,-0.0005882819297607658
4046.54,-0.0005781574706580949
4047.44,-0.0005861486983448547
4048.34,-0.000607239316152979
4049.24,-0.0006409414822214597
4050.14,-0.0006747732873519263
4051.04,-0.0007025513706292576
4051.94,-0.0007181165725504541
4052.84,-0.0007211394188941063
4053.74,-0.0007197743090411045
4054.65,-0.0007121422524280042
4055.55,-0.0007010458309957234
4056.45,-0.0006929099347304196
4057.35,-0.0006833943938430313
4058.25,-0.0006820620732829603
4059.15,-0.0006836458451596658
4060.05,-0.0006903708636980506
4060.95,-0.0006931712784981355
4061.85,-0.0006908889392852428
4062.75,-0.0006833771905042543
4063.65,-0.0006730474458085507
4064.55,-0.000667366704292957
4065.45,-0.0006721783053331651
4066.35,-0.0006898001130395898
4067.25,-0.0007082420674251946
4068.15,-0.0007309516695547104
4069.05,-0.0007521966095090061
4069.95,-0.0007649393558739053
4070.85,-0.0007746341496201255
4071.75,-0.0007747841465739304
4072.65,-0.0007750392868347027
4073.55,-0.0007757642191554906
4074.45,-0.0007762392041031211
4075.35,-0.000777239768756902
4076.25,-0.0007741989626514762
4077.15,-0.000774389561493764
4078.05,-0.0007723466922920965
4078.95,-0.0007839837670610496
4079.85,-0.0008072111472587205
4080.75,-0.0008424149744036768
4081.65,-0.0008723409437940953
4082.55,-0.0009027491021858452
4083.45,-0.0009265555287013508
4084.35,-0.0009324386861683608
4085.25,-0.0009447132293304992
4086.15,-0.0009561225952294116
4087.05,-0.000977812312948701
4087.95,-0.001005845913581726
4088.85,-0.0010311741046205775
4089.75,-0.0010498319432354097
4090.65,-0.0010626056779228855
4091.55,-0.0010627510160259141
4092.45,-0.0010603865598104124
4093.36,-0.0010489360805967579
4094.26,-0.0010347436766256287
4095.16,-0.001019928269192784
4096.06,-0.0009981621405054481
4096.96,-0.0009748444759580626
4097.86,-0.0009537235902579201
4098.76,-0.0009256944770560133
4099.66,-0.0009079427778266509
4100.56,-0.0008829023881435127
4101.46,-0.0008637735236601687
4102.36,-0.0008637406399414499
4103.26,-0.0008748730390476354
4104.16,-0.0009017303293459987
4105.06,-0.0009434916758822704
4105.96,-0.0009929418490390008
4106.86,-0.0010364170309004146
4107.76,-0.0010690998894600896
4108.66,-0.0010913471651625409
4109.56,-0.001104370538350778
4110.46,-0.0011162623707400123
4111.36,-0.001128155387599856
4112.26,-0.001142935861735931
4113.16,-0.0011568286117203937
4114.06,-0.001181344788819707
4114.96,-0.0012072965962031952
4115.86,-0.0012257308619546667
4116.76,-0.001238008490938257
4117.66,-0.001242194989442343
4118.56,-0.0012439941966732129
4119.46,-0.0012392504506689537
4120.36,-0.0012335270500033477
4121.26,-0.001237178692963682
4122.16,-0.0012428909241845609
4123.06,-0.0012538610111282756
4123.96,-0.0012685834625401275
4124.86,-0.0012823082273913885
4125.76,-0.0012935031272324625
4126.66,-0.0013056327664953981
4127.56,-0.0013027832484620143
4128.46,-0.0012955545639972642
4129.36,-0.0012889341494733417
4130.26,-0.001278383959113272
4131.17,-0.0012622731623729135
4132.06,-0.001248323783244383
4132.97,-0.0012420254185593247
4133.87,-0.0012530590859631484
4134.77,-0.0012756437298989363
4135.67,-0.0013055739270282274
4136.57,-0.0013561279463378477
4137.47,-0.0014031492363186847
4138.37,-0.0014404650161170904
4139.27,-0.0014679266221564067
4140.17,-0.0014812907365268876
4141.07,-0.0014739325969016191
4141.97,-0.0014435002419560007
4142.87,-0.0014171970945676248
4143.77,-0.001387879402044698
4144.67,-0.001367511006766262
4145.57,-0.0013773873958239703
4146.47,-0.0014008603619258915
4147.37,-0.0014349575320396475
4148.27,-0.001467107477095192
4149.17,-0.0014903489687233466
4150.07,-0.0015055648569778511
4150.97,-0.0015095245116719203
4151.87,-0.0015064837096400209
4152.77,-0.0015017761025173293
4153.67,-0.0015104165362165042
4154.57,-0.0015064747670530917
4155.47,-0.001514957925851778
4156.37,-0.0015359762862399992
4157.27,-0.0015517117219668592
4158.17,-0.0015890037209718758
4159.07,-0.0016354872940190337
4159.97,-0.001676675111204273
4160.87,-0.0017290857457769604
4161.77,-0.0017723041395967464
4162.67,-0.0018013454932493005
4163.57,-0.0018285816129353658
4164.47,-0.0018478953913025444
4165.37,-0.0018469575052986614
4166.27,-0.0018402258762055944
4167.17,-0.0018289250979894426
4168.07,-0.0018200928515267568
4168.98,-0.001815425354401183
4169.88,-0.00180983449738234
4170.78,-0.0017950464601297446
4171.68,-0.0017796295521515554
4172.58,-0.0017529901834522376
4173.48,-0.0017376320162747075
4174.38,-0.0017286582401116633
4175.28,-0.0017326807699174687
4176.18,-0.0017570428148772073
4177.08,-0.0017752430455089696
4177.98,-0.0018097418664905186
4178.88,-0.0018483468556161793
4179.78,-0.0018656896423368367
4180.68,-0.0019059230597217142
4181.58,-0.0019346977387495632
4182.48,-0.001963161903989238
4183.38,-0.001999355625908334
4184.28,-0.0020176472295462904
4185.18,-0.002044984768418521
4186.08,-0.0020700156577073804
4186.98,-0.002081598594283673
4187.88,-0.0020883671957587745
4188.78,-0.0021083852661159226
4189.68,-0.0021452818420487465
4190.58,-0.0021722865604117
4191.48,-0.002216908763942464
4192.38,-0.002253410026564289
4193.28,-0.0022872033104983465
4194.18,-0.0023071410502432375
4195.08,-0.002301716279032885
4195.98,-0.0022719367074355706
4196.88,-0.00223499012376924
4197.78,-0.002198334333979757
4198.68,-0.0021653149953049958
4199.58,-0.0021507544596789147
4200.48,-0.002161621503004621
4201.38,-0.0021776650903024314
4202.28,-0.002216218509427702
4203.18,-0.002273828070667143
4204.08,-0.002333465401755965
4204.98,-0.0024148393583819593
4205.88,-0.002509312739477457
4206.79,-0.0025893034394635934
4207.69,-0.0026762121614208917
4208.59,-0.0027272584705726375
4209.49,-0.0027734806140569802
4210.39,-0.002796084996041453
4211.29,-0.0028137304904949905
4212.19,-0.0028149922256841815
4213.09,-0.002808808497438451
4213.99,-0.002816054059402625
4214.89,-0.0027758873288222657
4215.79,-0.0027985210645427145
4216.69,-0.002813518193816851
4217.59,-0.002870007469846877
4218.49,-0.002949992048532851
4219.39,-0.003037644842263777
4220.29,-0.0031198783575100064
4221.19,-0.003151843693516379
4222.09,-0.0031416257600692665
4222.99,-0.0030657510473288963
4223.89,-0.0029571026217503206
4224.79,-0.002790292418524828
4225.69,-0.0026375592061257977
4226.59,-0.0025174963752301973
4227.49,-0.002479029752900886
4228.39,-0.002529808934630098
4229.29,-0.0026641334301238033
4230.19,-0.0028414971754065514
4231.09,-0.003026201567562221
4231.99,-0.003189674427770734
4232.89,-0.003302016093868581
4233.79,-0.003354096715892378
4234.69,-0.0033486386647417557
4235.59,-0.003355308771491384
4236.49,-0.003358796957990437
4237.39,-0.0033540740767648122
4238.29,-0.003387685179058884
4239.19,-0.003449251265784107
4240.09,-0.003537233449884521
4240.99,-0.003657993387685865
4241.89,-0.0037417902187519897
4242.79,-0.003860950466722234
4243.69,-0.003990109399018113
4244.59,-0.004069643650839176
4245.5,-0.004113481037540028
4246.4,-0.0041156834074747295
4247.3,-0.004093486791822705
4248.2,-0.004027559415801459
4249.1,-0.0039520188506859755
4250.0,-0.0038672477567383012
4250.9,-0.0038437289860680183
4251.8,-0.003823334718179131
4252.7,-0.0038507268460919422
4253.6,-0.003900191397437024
4254.5,-0.003969499096518456
4255.4,-0.004037593487070404
4256.3,-0.004103990717429037
4257.2,-0.00413825130156995
4258.1,-0.004191640669678972
4259.0,-0.004193561788275626
4259.9,-0.004224614300722957
4260.8,-0.004224005487383042
4261.7,-0.004272705677053033
4262.6,-0.004411087179262687
4263.5,-0.004574300508600665
4264.4,-0.004777029447619327
4265.3,-0.00495497660128251
4266.2,-0.005052914202669943
4267.1,-0.005087236720060273
4268.0,-0.005061392552697449
4268.9,-0.0049294469121336166
4269.8,-0.004756100420795926
4270.7,-0.004569405250460384
4271.6,-0.0043892385160895645
4272.5,-0.004235685738607373
4273.4,-0.0042016767089283905
4274.3,-0.004256607691597959
4275.2,-0.004377726370156922
4276.1,-0.004603212272546425
4277.0,-0.004826561865208258
4277.9,-0.0050651061059093965
4278.8,-0.00527055754413859
4279.7,-0.005407004043872814
4280.6,-0.005499664180455963
4281.5,-0.005532049004668379
4282.4,-0.005566919344271042
