wave,flux
3700.85,-0.04290875939701985
3701.75,-0.04301672367469934
3702.65,-0.042383315852726734
3703.55,-0.04120502942386838
3704.45,-0.039351905517492715
3705.35,-0.03768384599565339
3706.25,-0.03682889967847797
3707.15,-0.03662228876284052
3708.05,-0.03734152615574132
3708.96,-0.03879595157705858
3709.86,-0.04088593551543118
3710.76,-0.04370810049830123
3711.66,-0.046780736038950436
3712.56,-0.05038376907872985
3713.46,-0.05398989417371325
3714.36,-0.056924808642459086
3715.26,-0.05905921653567807
3716.16,-0.06041583393764508
3717.06,-0.05999889157770231
3717.96,-0.05815379058087097
3718.86,-0.0553593191213159
3719.76,-0.05201137665363458
3720.66,-0.048940218728727225
3721.56,-0.047408471828354455
3722.46,-0.048001405965712764
3723.36,-0.05073569562421343
3724.26,-0.05491605569257724
3725.16,-0.06015483129222949
3726.06,-0.06473414321971067
3726.96,-0.0682267361519302
3727.86,-0.07015789941925853
3728.76,-0.07191235784714657
3729.66,-0.07282704181730773
3730.56,-0.07304709629726154
3731.46,-0.07186279160355019
3732.36,-0.06940884063016461
3733.26,-0.06553614238157895
3734.16,-0.061765127567335106
3735.06,-0.058925615602227664
3735.96,-0.05765031527670738
3736.86,-0.05978487461279022
3737.76,-0.06452558642900877
3738.66,-0.0719818789835448
3739.56,-0.08074427750315802
3740.46,-0.088289291597989
3741.36,-0.09518037929438428
3742.26,-0.09891889624760579
3743.16,-0.09911887004546321
3744.06,-0.09763765511162004
3744.96,-0.09530266025468552
3745.86,-0.091839148135488
3746.76,-0.08939925464461529
3747.67,-0.0863384694552113
3748.57,-0.08581711242268818
3749.47,-0.08687539677798864
3750.37,-0.0912935173264091
3751.27,-0.10034845789732627
3752.17,-0.112712684626304
3753.07,-0.12685068776303282
3753.97,-0.1418530888191554
3754.87,-0.1535727651265005
3755.77,-0.16207897745163674
3756.67,-0.16554457844148218
3757.57,-0.16478587999780903
3758.47,-0.1629610611986345
3759.37,-0.16156204870573834
3760.27,-0.16397588070062286
3761.17,-0.16872204014455658
3762.07,-0.17757378051184358
3762.97,-0.1872342549043673
3763.87,-0.19525440490455911
3764.77,-0.202970939861927
3765.67,-0.21052326041557115
3766.57,-0.21788148466845442
3767.47,-0.2229935599885658
3768.37,-0.23132430275242813
3769.27,-0.23922725396920508
3770.17,-0.24832994331250458
3771.07,-0.2619091832919595
3771.97,-0.2787486528441827
3772.87,-0.29902470901443834
3773.77,-0.32137736454347743
3774.67,-0.34327063665744306
3775.57,-0.36592663084919413
3776.47,-0.386672888669739
3777.37,-0.4085363157173936
3778.27,-0.43426823508431245
3779.17,-0.4620805447797173
3780.07,-0.4917326514743344
3780.97,-0.5242029244509527
3781.87,-0.5609990012086546
3782.77,-0.5908489445729662
3783.67,-0.6244422223134783
3784.57,-0.6485477553629568
3785.47,-0.6674220249479962
3786.38,-0.6796085201542132
3787.28,-0.6931252412659208
3788.18,-0.7089431611176282
3789.08,-0.7339135008689115
3789.98,-0.771809106643274
3790.88,-0.8202872456559566
3791.78,-0.8798339642914016
3792.68,-0.9494683728378004
3793.58,-1.0108231707654023
3794.48,-1.0803781176082812
3795.38,-1.1515276646368346
3796.28,-1.2269649648711505
3797.18,-1.33021150053222
3798.08,-1.4740294549451933
3798.98,-1.699611986394316
3799.88,-2.048012846754273
3800.78,-2.592306303270715
3801.68,-3.452094999377594
3802.58,-4.863353731618123
3803.48,-7.409855903933971
3804.38,-13.63283871419201
3805.28,-57.97502077740426
3806.18,27.905310864522768
3807.08,11.41175560125801
3807.98,7.215003072201288
3808.88,5.3477675701998715
3809.78,4.260508026779199
3810.68,3.5692938466962922
3811.58,3.0504903462191466
3812.48,2.6368749718517224
3813.38,2.27432749462443
3814.28,1.9696515854553807
3815.18,1.7309505822201587
3816.08,1.556454080696611
3816.98,1.426045468788632
3817.88,1.324216687444228
3818.78,1.2373399596561752
3819.68,1.1589419995351784
3820.58,1.0770864703025922
3821.48,1.0163153109273633
3822.38,0.9594871021546433
3823.28,0.9145099860228895
3824.18,0.8594091291561102
3825.09,0.8029213077826199
3825.99,0.7538510662542716
3826.89,0.7075632320923029
3827.79,0.6710763392453317
3828.69,0.6445503117078278
3829.59,0.6273622569132509
3830.49,0.604374600866623
3831.39,0.5784586580827062
3832.29,0.5473031412869406
3833.19,0.5192111860144513
3834.09,0.4915306473610088
3834.99,0.4755098277803885
3835.89,0.4616885611349554
3836.79,0.4556630550859536
3837.69,0.4539730501441203
3838.59,0.4549157711467819
3839.49,0.46112379344904136
3840.39,0.4749878424336398
3841.29,0.4977385893867349
3842.19,0.5305586527268805
3843.09,0.5623996709616348
3843.99,0.5937587101956008
3844.89,0.6206248547682407
3845.79,0.6355553089100772
3846.69,0.6422813872816424
3847.59,0.6456275847496752
3848.49,0.6402656704015206
3849.39,0.6324708129660664
3850.29,0.6276266201490883
3851.19,0.6184813006311403
3852.09,0.6143628496892874
3852.99,0.6120908799126327
3853.89,0.6074727356802284
3854.79,0.593414141047023
3855.69,0.5809734377952414
3856.59,0.5588228650079001
3857.49,0.5400848883567061
3858.39,0.5208256411831941
3859.29,0.5056572624047918
3860.19,0.49959545638739916
3861.09,0.5049129975445342
3861.99,0.5199492621726207
3862.9,0.5421302974282947
3863.8,0.5625452832859753
3864.7,0.5747227889933779
3865.6,0.5818445265341002
3866.5,0.5800453965012451
3867.4,0.5756631045697782
3868.3,0.5681189738302008
3869.2,0.5558460721025045
3870.1,0.5441708298044917
3871.0,0.5265290170536459
3871.9,0.5150391291816323
3872.8,0.5052528698795793
3873.7,0.5033550558362967
3874.6,0.5086761677011388
3875.5,0.516409864753471
3876.4,0.5211919963337953
3877.3,0.5214323820201728
3878.2,0.5151533139294993
3879.1,0.510515456992845
3880.0,0.5039658937234107
3880.9,0.5025130758293579
3881.8,0.4991790731031434
3882.7,0.49995616625551714
3883.6,0.4986527184734831
3884.5,0.49013023287221535
3885.4,0.4793270184587491
3886.3,0.46456287260244483
3887.2,0.4494895643682218
3888.1,0.44006064722918975
3889.0,0.435733688863746
3889.9,0.44431436402543706
3890.8,0.4612615696524958
3891.7,0.48522920447346135
3892.6,0.5076382668296532
3893.5,0.5278231766385952
3894.4,0.5429211963506846
3895.3,0.5541337309243922
3896.2,0.5640011667016552
3897.1,0.5687835168571299
3898.0,0.5758239027616869
3898.9,0.5810302180288694
3899.8,0.5854607156423441
3900.7,0.5856302250676864
3901.6,0.5863900350621143
3902.51,0.5866818218419757
3903.41,0.5807546461159401
3904.31,0.5774257641363238
3905.21,0.5713607936758538
3906.11,0.5735362624971696
3907.01,0.5784305890154822
3907.91,0.5923609656644293
3908.81,0.6107573200154967
3909.71,0.6355022950130159
3910.61,0.6520961772671784
3911.51,0.6698786746799302
3912.41,0.6744552260227116
3913.31,0.6786264706117863
3914.21,0.6827964927304883
3915.11,0.6741368091034697
3916.01,0.6637343293200353
3916.91,0.6550225475787033
3917.81,0.6441437332094451
3918.71,0.6318232658560908
3919.61,0.6134582276521491
3920.51,0.6013135240197045
3921.41,0.5857926250769538
3922.31,0.5750760517959392
3923.21,0.5688648856737679
3924.11,0.5633400638539501
3925.01,0.5543910982491553
3925.91,0.5360547566355663
3926.81,0.5126030954469681
3927.71,0.4751077732366213
3928.61,0.4307543285730842
3929.51,0.385353458220851
3930.41,0.33650728828453375
3931.31,0.2926562881770218
3932.21,0.2533643168352043
3933.11,0.2228520166402926
3934.01,0.20600208324149932
3934.91,0.2039625413178402
3935.81,0.21855248633403268
3936.71,0.24666327233277138
3937.61,0.287710756105252
3938.51,0.33514703946212426
3939.42,0.38467807148507926
3940.32,0.4323474282996733
3941.22,0.4705352869058117
3942.12,0.503903444360661
3943.02,0.5279642729656037
3943.92,0.5491699929637901
3944.82,0.5695882895296257
3945.72,0.594434728292499
3946.62,0.6230264256186668
3947.52,0.6418833084601999
3948.42,0.6687892131116301
3949.32,0.6854461223111964
3950.22,0.7027167027503709
3951.12,0.71643281395547
3952.02,0.7236116409719032
3952.92,0.7314021972864808
3953.82,0.7374779901587282
3954.72,0.742466377703722
3955.62,0.7403908384073096
3956.52,0.7374570602961337
3957.42,0.7291842137168167
3958.32,0.7227472916792058
3959.22,0.7112997531965024
3960.12,0.6867226017828938
3961.02,0.6554907905184308
3961.92,0.618026893438046
3962.82,0.5716711450100073
3963.72,0.5252284144547498
3964.62,0.4747077323813789
3965.52,0.4284646355803175
3966.42,0.3784750295628023
3967.32,0.33304843148085533
3968.22,0.2956360067729708
3969.12,0.2740202568172057
3970.02,0.27050630422297167
3970.92,0.28618898841919344
3971.82,0.3218483751452081
3972.72,0.37180717936306634
3973.62,0.42899680966757825
3974.52,0.48927635398537894
3975.42,0.547312065908611
3976.32,0.6057866398312894
3977.22,0.6568663240553728
3978.13,0.7042478223519716
3979.03,0.748945692020843
3979.93,0.7823054743343609
3980.83,0.8082562941818171
3981.73,0.8247583499946004
3982.63,0.8368417154859067
3983.53,0.8482985895121548
3984.43,0.8536867927853591
3985.33,0.8610731202919509
3986.23,0.8751823956579105
3987.13,0.8841850156398561
3988.03,0.8994403965095176
3988.93,0.9084397238219362
3989.83,0.9242508907944958
3990.73,0.9307206517452576
3991.63,0.9398496473145009
3992.53,0.9494650310861967
3993.43,0.9530122690073248
3994.33,0.9478327936949514
3995.23,0.9465908960966178
3996.13,0.9341994308571788
3997.03,0.9334233965418037
3997.93,0.9287176162303779
3998.83,0.9325699950903024
3999.73,0.9441053188912812
4000.63,0.9565832040484586
4001.53,0.9711082745101803
4002.43,0.9848246261399691
4003.33,0.9862269155346494
4004.23,0.9718143261014291
4005.13,0.958151637957808
4006.03,0.9508308569546943
4006.93,0.9352056286961316
4007.83,0.9406543762344496
4008.73,0.9590483048186621
4009.63,0.9753160099854841
4010.53,0.9945038436597209
4011.43,1.0064058426091627
4012.33,1.0122723957709914
4013.23,1.0248955664577895
4014.13,1.0315781625677414
4015.03,1.0275999910878741
4015.93,1.0289604866506976
4016.84,1.0284720414014676
4017.74,1.036165489434204
4018.64,1.0356675692870396
4019.54,1.038744011548865
4020.44,1.038799539520505
4021.34,1.0390812539795256
4022.24,1.043652591974379
4023.14,1.042002071093174
4024.04,1.0425596814522657
4024.94,1.0402453938115923
4025.84,1.046799335634285
4026.74,1.0575992584162761
4027.64,1.0572940337861665
4028.54,1.0564556472735205
4029.44,1.0424250233061705
4030.34,1.025674350348858
4031.24,0.9952232169718206
4032.14,0.9648532191321006
4033.04,0.9577489403337444
4033.94,0.948591820903436
4034.84,0.9601572905636675
4035.74,0.9826288312662866
4036.64,1.0119889682823573
4037.54,1.0427952032273213
4038.44,1.0675774937597613
4039.34,1.0823243625767782
4040.24,1.085669664603108
4041.14,1.0791942303121294
4042.04,1.0565087553890566
4042.94,1.0320397832945194
4043.84,0.9990929478514488
4044.74,0.9702567096942599
4045.64,0.9413204601991972
4046.54,0.9291682176114466
4047.44,0.9324168275399993
4048.34,0.9579927513276605
4049.24,0.9884001837446537
4050.14,1.0158869364036218
4051.04,1.0419739124227374
4051.94,1.0534584984562976
4052.84,1.0472732887094645
4053.74,1.040170784549749
4054.65,1.0288645151899005
4055.55,1.016550992433687
4056.45,1.0047423602846295
4057.35,0.9968703442124288
4058.25,0.9869788898595816
4059.15,0.9943787168685855
4060.05,0.991584565757216
4060.95,0.9876266245000674
4061.85,0.9812477490027961
4062.75,0.9673215959848321
4063.65,0.9523965737366562
4064.55,0.9411492584662596
4065.45,0.935434062398768
4066.35,0.9419196295833122
4067.25,0.9580277309384272
4068.15,0.9726089684447035
4069.05,0.9904784711839617
4069.95,0.9971512678838049
4070.85,0.9999569206215314
4071.75,0.9966503977649375
4072.65,0.9890924003735078
4073.55,0.9844890669696119
4074.45,0.9753417791964824
4075.35,0.9651537977930583
4076.25,0.9529289923002896
4077.15,0.9364769995480885
4078.05,0.9310590183664309
4078.95,0.9289338416851336
4079.85,0.9445858182642279
4080.75,0.9705203220476651
4081.65,0.9909544320884931
4082.55,1.0068421347340786
4083.45,1.0187869798761107
4084.35,1.0256058616389825
4085.25,1.028894508126571
4086.15,1.0370410546443085
4087.05,1.0494428673232614
4087.95,1.0681728996586677
4088.85,1.0869340766634425
4089.75,1.0935037863318513
4090.65,1.1028390706956335
4091.55,1.1012435529185456
4092.45,1.0882421154284077
4093.36,1.074659535647569
4094.26,1.0580422942847265
4095.16,1.038784071757358
4096.06,1.0188109749868663
4096.96,0.9919169934426683
4097.86,0.9629871882350667
4098.76,0.9324679404098758
4099.66,0.895146873678758
4100.56,0.8653421599577334
4101.46,0.8373408192769392
4102.36,0.8182135467120731
4103.26,0.8222331679148301
4104.16,0.8377854904478804
4105.06,0.8702005196870599
4105.96,0.9040615877488875
4106.86,0.9381905482501729
4107.76,0.965780830072134
4108.66,0.9816026732063914
4109.56,0.9913984484869609
4110.46,0.998894135178516
4111.36,1.0035544253968056
4112.26,1.0107113611756142
4113.16,1.020703281206401
4114.06,1.0329418702804958
4114.96,1.041517347560124
4115.86,1.0494117879792142
4116.76,1.0519918211503916
4117.66,1.0469726372520776
4118.56,1.0413805422408897
4119.46,1.0304416410632102
4120.36,1.0235133066678823
4121.26,1.019714947925126
4122.16,1.017242654122685
4123.06,1.0203767755642372
4123.96,1.0218642390588364
4124.86,1.0292931290857634
4125.76,1.0322061144363248
4126.66,1.02895395187759
4127.56,1.0242555342433834
4128.46,1.0107761487764158
4129.36,1.005326800082458
4130.26,0.989790498428145
4131.17,0.9774239840384492
4132.06,0.9625047187940737
4132.97,0.9584175794240912
4133.87,0.9557501956485559
4134.77,0.9605628946449709
4135.67,0.978379629487279
4136.57,0.9960541574328773
4137.47,1.0210043070426502
4138.37,1.0351965656162168
4139.27,1.0478920306347628
4140.17,1.0466382213413534
4141.07,1.0341545580674065
4141.97,1.0131573496049993
4142.87,0.9949360849147028
4143.77,0.9757108949068576
4144.67,0.96076053135621
4145.57,0.9600603877313152
4146.47,0.9709436209193466
4147.37,0.982755009474077
4148.27,1.0018865280209048
4149.17,1.0063064418125216
4150.07,1.0111717698867024
4150.97,1.0086871256942742
4151.87,1.003016748362676
4152.77,0.9989536791059813
4153.67,0.9932057507869109
4154.57,0.9879505138871069
4155.47,0.9861910135615256
4156.37,0.9864262452285499
4157.27,0.9879289970478587
4158.17,1.003485861550604
4159.07,1.0140168193643486
4159.97,1.030661370240003
4160.87,1.0408757460477598
4161.77,1.0543464420071667
4162.67,1.0611438153221284
4163.57,1.0713432748980207
4164.47,1.0676950605740665
4165.37,1.061243577388343
4166.27,1.0552841147037864
4167.17,1.041187014679731
4168.07,1.0374222223458573
4168.98,1.0249374399033973
4169.88,1.0183724736339614
4170.78,1.0004123597071954
4171.68,0.9841034103381753
4172.58,0.9641555176580906
4173.48,0.9495466210207176
4174.38,0.9395513779967596
4175.28,0.938883192760599
4176.18,0.943322043154865
4177.08,0.9556887377472484
4177.98,0.964714793717396
4178.88,0.9758908488238728
4179.78,0.9827515016721086
4180.68,0.9966745131937742
4181.58,0.9991300348888219
4182.48,1.0019826045250817
4183.38,1.005524561193474
4184.28,1.0094637601791654
4185.18,1.004060110757009
4186.08,1.0070870796891118
4186.98,1.0010575053612898
4187.88,0.9978569978186108
4188.78,1.0012425406473173
4189.68,1.0018551307343433
4190.58,1.0079867377152303
4191.48,1.0193495395256176
4192.38,1.0273551730522603
4193.28,1.0320500310058547
4194.18,1.0364591384714816
4195.08,1.0312958003267305
4195.98,1.01430042582198
4196.88,1.0031660455368239
4197.78,0.9797951238778031
4198.68,0.962088865903284
4199.58,0.9545571718333588
4200.48,0.9472675267809325
4201.38,0.9455614078331455
4202.28,0.955130873194527
4203.18,0.9634838473547149
4204.08,0.9709130471649556
4204.98,0.9884104881084345
4205.88,1.0076417431643838
4206.79,1.0278265226269796
4207.69,1.042472865626314
4208.59,1.054968708907648
4209.49,1.0671808840371835
4210.39,1.0749274956389456
4211.29,1.0689024838897132
4212.19,1.070798742124418
4213.09,1.0622564336266582
4213.99,1.0538072009886326
4214.89,1.0400277154388766
4215.79,1.0342739270012222
4216.69,1.0283670290696414
4217.59,1.033656194650051
4218.49,1.0425028334182027
4219.39,1.0559480888291044
4220.29,1.06574619323563
4221.19,1.0797030182114649
4222.09,1.0674648282355343
4222.99,1.0407733797344845
4223.89,1.0040151767128016
4224.79,0.9540599680585605
4225.69,0.9090165896408695
4226.59,0.8798372626443687
4227.49,0.8658462559579656
4228.39,0.8733565366468059
4229.29,0.9032343309766793
4230.19,0.9457325918495795
4231.09,0.9835927041194588
4231.99,1.0134340111980302
4232.89,1.0325659618989707
4233.79,1.033922264352983
4234.69,1.0311997217222642
4235.59,1.0226543458988158
4236.49,1.0106670310142312
4237.39,1.0068745116329323
4238.29,1.0099420504303873
4239.19,1.0130556912681454
4240.09,1.0216925111736748
4240.99,1.040292376976744
4241.89,1.050974428385519
4242.79,1.0703791309700321
4243.69,1.0793683994654444
4244.59,1.0844169954577179
4245.5,1.0808838382884673
4246.4,1.0763407895725594
4247.3,1.0649498313760937
4248.2,1.0446080820173638
4249.1,1.0272450315499164
4250.0,1.0115637212680042
4250.9,1.006808746848739
4251.8,1.0032924725516212
4252.7,1.0075143288564423
4253.6,1.0140796827203968
4254.5,1.0210387813649917
4255.4,1.0220908271531344
4256.3,1.0279860115524833
4257.2,1.0321734041886366
4258.1,1.0255944792529335
4259.0,1.023107311248769
4259.9,1.0195090674396987
4260.8,1.0118946167573357
4261.7,1.0132810742458096
4262.6,1.0291808568372438
4263.5,1.0468761464075655
4264.4,1.0737307245584475
4265.3,1.090361178510924
4266.2,1.1000200085104361
4267.1,1.102253665919133
4268.0,1.0848350996175018
4268.9,1.0586846812462398
4269.8,1.0256050882662553
4270.7,0.9961704332372306
4271.6,0.9647685121097849
4272.5,0.941773297578259
4273.4,0.927135996653599
4274.3,0.9265182452076292
4275.2,0.9437787367304438
4276.1,0.9668388673195868
4277.0,0.9939934754467986
4277.9,1.0165742872474217
4278.8,1.0389887620385714
4279.7,1.0491644957510409
4280.6,1.0493077880966246
4281.5,1.0470846552618682
4282.4,1.039140004147552
4283.31,1.0358390178826304
4284.21,1.0235667205230088
4285.11,1.0138871556781255
4286.01,1.002597430279678
4286.91,0.9889462521693503
4287.81,0.9706856334691855
4288.71,0.9564709890157348
4289.61,0.941149898324359
4290.51,0.933771652719486
4291.41,0.9319316863324638
4292.31,0.9380239172219632
4293.21,0.9529406198598175
4294.11,0.9630917495263533
4295.01,0.9623424335985643
4295.91,0.9538448577230882
4296.81,0.9376087547619225
4297.71,0.9110975773256758
4298.61,0.8758701586920173
4299.51,0.8384644452949401
4300.41,0.8093937316314714
4301.31,0.7885998217763135
4302.21,0.7737347407616193
4303.11,0.7661342013775305
4304.01,0.7694682511909234
4304.91,0.7695587346090738
4305.81,0.7664087257920913
4306.71,0.7630523773601043
4307.61,0.7541299000986306
4308.51,0.7470419931238763
4309.41,0.7463454998531057
4310.31,0.7572824893343185
4311.21,0.7778035236089506
4312.11,0.8066049980876379
4313.01,0.8462426085514488
4313.91,0.8962513685891046
4314.81,0.953596385992708
4315.71,1.0114488018837826
4316.61,1.0685714341992774
4317.51,1.11465850342853
4318.41,1.1533271208301428
4319.31,1.1663223631076904
4320.21,1.165210787143158
4321.12,1.1508486648793315
4322.02,1.1169945820949914
4322.92,1.0748767265012156
4323.82,1.0342295928715368
4324.72,0.9951497953768752
4325.62,0.9691953053964946
4326.52,0.9622100367246982
4327.42,0.97067687178173
4328.32,1.0049177098666238
4329.22,1.0367933128693032
4330.12,1.0706502804590388
4331.02,1.0957100700325755
4331.92,1.1235857270371918
4332.82,1.1296962668911317
4333.72,1.1313090631967366
4334.62,1.1227528489568699
4335.52,1.1081326281628814
4336.42,1.07253306701695
4337.32,1.0327733462455013
4338.22,0.9885281076273412
4339.12,0.93386495125472
4340.02,0.8959095211231909
4340.92,0.8794861207019522
4341.82,0.8782655915034395
4342.72,0.89066237222237
4343.62,0.9213960790548756
4344.52,0.9590221698458354
4345.42,0.9989096132872811
4346.32,1.0320369633877646
4347.22,1.057705223468478
4348.12,1.0708677857578894
4349.02,1.0769153742267064
4349.92,1.0763500789338134
4350.82,1.062183248413502
4351.72,1.0481792257184752
4352.62,1.0297226211683268
4353.52,1.0248883621817144
4354.42,1.023898864011534
4355.32,1.030913878817028
4356.22,1.0468046754786717
4357.12,1.0634511812695637
4358.02,1.0743791755865726
4358.92,1.0760670499711564
4359.83,1.0875289231412721
4360.73,1.0960486621080971
4361.63,1.1031267857380003
4362.53,1.1128062689050093
4363.43,1.1171985396277866
4364.33,1.1298610479084084
4365.23,1.1336391213976365
4366.13,1.1296408609701445
