wave,flux
3700.85,-9.874970759898003e-07
3701.75,-9.770507123237287e-07
3702.65,-9.445607211809711e-07
3703.55,-9.068128544592734e-07
3704.45,-8.570925524911035e-07
3705.35,-8.114505490360033e-07
3706.25,-7.791121923910002e-07
3707.15,-7.64114892332807e-07
3708.05,-7.641654049752671e-07
3708.96,-7.831829657527018e-07
3709.86,-8.073299854701838e-07
3710.76,-8.4406008261859e-07
3711.66,-8.960086982774497e-07
3712.56,-9.419887463787693e-07
3713.46,-9.863303643104215e-07
3714.36,-1.0263543871454252e-06
3715.26,-1.049181016034983e-06
3716.16,-1.0511234231273384e-06
3717.06,-1.0229944081276295e-06
3717.96,-9.808843556902877e-07
3718.86,-9.153528106082977e-07
3719.76,-8.419895809740368e-07
3720.66,-7.815352920803423e-07
3721.56,-7.414712368921586e-07
3722.46,-7.383579029512441e-07
3723.36,-7.668210294053791e-07
3724.26,-8.164190944509533e-07
3725.16,-8.726397543752658e-07
3726.06,-9.208357784353586e-07
3726.96,-9.521566855100392e-07
3727.86,-9.680559617956736e-07
3728.76,-9.71459320936115e-07
3729.66,-9.644246432433165e-07
3730.56,-9.464132574525238e-07
3731.46,-9.164279622464307e-07
3732.36,-8.66420533352544e-07
3733.26,-8.109731045693974e-07
3734.16,-7.415366928136487e-07
3735.06,-6.937118214120642e-07
3735.96,-6.682681543686583e-07
3736.86,-6.7822499294949e-07
3737.76,-7.1659978675445e-07
3738.66,-7.79183705341839e-07
3739.56,-8.502484797561703e-07
3740.46,-9.179505943505304e-07
3741.36,-9.602917672245936e-07
3742.26,-9.747729469330806e-07
3743.16,-9.60305271716692e-07
3744.06,-9.285608413190459e-07
3744.96,-8.861673726440919e-07
3745.86,-8.336139972830247e-07
3746.76,-7.916646358999886e-07
3747.67,-7.528320351751732e-07
3748.57,-7.285857408972634e-07
3749.47,-7.21334293666183e-07
3750.37,-7.399424473511343e-07
3751.27,-7.93200235788499e-07
3752.17,-8.673640252742277e-07
3753.07,-9.509464944537448e-07
3753.97,-1.031164995836516e-06
3754.87,-1.089385051882193e-06
3755.77,-1.1158863030003229e-06
3756.67,-1.111771690340373e-06
3757.57,-1.077175549541368e-06
3758.47,-1.037846205997616e-06
3759.37,-1.009055618754489e-06
3760.27,-9.959455802112896e-07
3761.17,-1.003417318832496e-06
3762.07,-1.0242732133257496e-06
3762.97,-1.0373477999708985e-06
3763.87,-1.0577020953368975e-06
3764.77,-1.069022012859305e-06
3765.67,-1.0699210240848333e-06
3766.57,-1.0750611064693264e-06
3767.47,-1.0721177080864405e-06
3768.37,-1.0724016114532845e-06
3769.27,-1.07634779267003e-06
3770.17,-1.0838851313102117e-06
3771.07,-1.1025239666564746e-06
3771.97,-1.1310225367208846e-06
3772.87,-1.1698763458251175e-06
3773.77,-1.2104924275694997e-06
3774.67,-1.246667178432632e-06
3775.57,-1.2719187824333831e-06
3776.47,-1.2929278092776929e-06
3777.37,-1.3192729053337372e-06
3778.27,-1.3409373137051885e-06
3779.17,-1.3673403172589262e-06
3780.07,-1.3965191343630034e-06
3780.97,-1.4263827875743588e-06
3781.87,-1.452060286599481e-06
3782.77,-1.46607387895823e-06
3783.67,-1.4604345028274803e-06
3784.57,-1.4416027245524798e-06
3785.47,-1.4122536792247265e-06
3786.38,-1.3657822859104686e-06
3787.28,-1.3227656326761139e-06
3788.18,-1.272249096439089e-06
3789.08,-1.2469203654506124e-06
3789.98,-1.22937752574147e-06
3790.88,-1.2221962830922466e-06
3791.78,-1.2238250758592394e-06
3792.68,-1.2181054422626595e-06
3793.58,-1.2054144072849321e-06
3794.48,-1.1752121818929335e-06
3795.38,-1.1419524037056609e-06
3796.28,-1.1021700615442506e-06
3797.18,-1.0727112972812957e-06
3798.08,-1.0530184178928351e-06
3798.98,-1.0615283305522811e-06
3799.88,-1.0934112631095826e-06
3800.78,-1.1563073629794654e-06
3801.68,-1.233439416575297e-06
3802.58,-1.3190425583109005e-06
3803.48,-1.3903709430384252e-06
3804.38,-1.4442260527527685e-06
3805.28,-1.474633128932763e-06
3806.18,-1.490205371666104e-06
3807.08,-1.4804797004809812e-06
3807.98,-1.4855430006382083e-06
3808.88,-1.495244553150798e-06
3809.78,-1.5119407584451858e-06
3810.68,-1.517455434707268e-06
3811.58,-1.5077309654086838e-06
3812.48,-1.4889441069861464e-06
3813.38,-1.4327805447218068e-06
3814.28,-1.3799249661747396e-06
3815.18,-1.330525063072159e-06
3816.08,-1.2907572457734383e-06
3816.98,-1.2774174680009388e-06
3817.88,-1.2630405096619456e-06
3818.78,-1.2597767694857354e-06
3819.68,-1.2444104462913341e-06
3820.58,-1.2291860198845614e-06
3821.48,-1.2125418964462133e-06
3822.38,-1.201761921709512e-06
3823.28,-1.1888669068291893e-06
3824.18,-1.1685746491528977e-06
3825.09,-1.1378166320291213e-06
3825.99,-1.1020028377537566e-06
3826.89,-1.0716625326466466e-06
3827.79,-1.0543294221138647e-06
3828.69,-1.0504989791820119e-06
3829.59,-1.0503043442175185e-06
3830.49,-1.0407554901485069e-06
3831.39,-1.0216591269300062e-06
3832.29,-1.0011493373173978e-06
3833.19,-9.682885493879392e-07
3834.09,-9.452725098629747e-07
3834.99,-9.269130533681779e-07
3835.89,-9.216402466468096e-07
3836.79,-9.275477143346455e-07
3837.69,-9.449994405238118e-07
3838.59,-9.651256315924487e-07
3839.49,-9.95531692307104e-07
3840.39,-1.0393362498433e-06
3841.29,-1.1082178816785096e-06
3842.19,-1.1908512772611533e-06
3843.09,-1.2899470387084976e-06
3843.99,-1.3762174621466014e-06
3844.89,-1.4549427435442748e-06
3845.79,-1.515779606423899e-06
3846.69,-1.5550471574058374e-06
3847.59,-1.574255289976507e-06
3848.49,-1.5804434372329653e-06
3849.39,-1.5779709527631405e-06
3850.29,-1.578771901596591e-06
3851.19,-1.5860520485463988e-06
3852.09,-1.590575391600626e-06
3852.99,-1.5952467615524053e-06
3853.89,-1.5992661518087263e-06
3854.79,-1.579189671676309e-06
3855.69,-1.5448791053871135e-06
3856.59,-1.518572950546535e-06
3857.49,-1.4730489709029192e-06
3858.39,-1.4281942617418204e-06
3859.29,-1.4012768954107716e-06
3860.19,-1.392456474719658e-06
3861.09,-1.4188465609343567e-06
3861.99,-1.4726688493239493e-06
3862.9,-1.5392258259987852e-06
3863.8,-1.6099784842435314e-06
3864.7,-1.6606628891342958e-06
3865.6,-1.6880470774111171e-06
3866.5,-1.702499586386217e-06
3867.4,-1.7005553603628388e-06
3868.3,-1.6822085657552836e-06
3869.2,-1.6676716426456813e-06
3870.1,-1.630787143250426e-06
3871.0,-1.5897171024141707e-06
3871.9,-1.5588736086348681e-06
3872.8,-1.5386327117312812e-06
3873.7,-1.5359291244861768e-06
3874.6,-1.5569218937675971e-06
3875.5,-1.592361708573443e-06
3876.4,-1.6103171311969134e-06
3877.3,-1.608324459646889e-06
3878.2,-1.6045723273660236e-06
3879.1,-1.5936782124257758e-06
3880.0,-1.579070071701248e-06
3880.9,-1.58522886552756e-06
3881.8,-1.5933149218420368e-06
3882.7,-1.5889603035874125e-06
3883.6,-1.5914871456829643e-06
3884.5,-1.573639553396157e-06
3885.4,-1.5527113342726559e-06
3886.3,-1.5052052535156467e-06
3887.2,-1.460428176111934e-06
3888.1,-1.4313764721086927e-06
3889.0,-1.422643571981578e-06
3889.9,-1.4506928646100224e-06
3890.8,-1.5023901401662101e-06
3891.7,-1.5807901127157002e-06
3892.6,-1.659541702335645e-06
3893.5,-1.7308417553849582e-06
3894.4,-1.7758528402604345e-06
3895.3,-1.8149984934499968e-06
3896.2,-1.8414706383249653e-06
3897.1,-1.8614670263840694e-06
3898.0,-1.8798705236082617e-06
3898.9,-1.894652741296247e-06
3899.8,-1.921161130735778e-06
3900.7,-1.9188307206669844e-06
3901.6,-1.932257107339005e-06
3902.51,-1.9293536226153794e-06
3903.41,-1.913773632900641e-06
3904.31,-1.9021854670977238e-06
3905.21,-1.8879816568559708e-06
3906.11,-1.8877987115934277e-06
3907.01,-1.9136995211260858e-06
3907.91,-1.962727598522456e-06
3908.81,-2.023884327958022e-06
3909.71,-2.1004901611165948e-06
3910.61,-2.1561201110367246e-06
3911.51,-2.222571086675681e-06
3912.41,-2.2505154344358634e-06
3913.31,-2.2600821124286115e-06
3914.21,-2.259581261926041e-06
3915.11,-2.248103699331574e-06
3916.01,-2.2170208964133264e-06
3916.91,-2.1883644254727123e-06
3917.81,-2.1453258476294504e-06
3918.71,-2.1086296759313095e-06
3919.61,-2.052436409058616e-06
3920.51,-2.005044093945825e-06
3921.41,-1.9588511486984e-06
3922.31,-1.9249266741861753e-06
3923.21,-1.907752629444331e-06
3924.11,-1.8864137928878795e-06
3925.01,-1.8558007372763836e-06
3925.91,-1.7975150684468115e-06
3926.81,-1.7097740816591916e-06
3927.71,-1.591064715187615e-06
3928.61,-1.4512541555953577e-06
3929.51,-1.2909248021725196e-06
3930.41,-1.1298474601535395e-06
3931.31,-9.812134314219894e-07
3932.21,-8.472365307382089e-07
3933.11,-7.419550219647123e-07
3934.01,-6.896691259689718e-07
3934.91,-6.827380238841408e-07
3935.81,-7.31574000132998e-07
3936.71,-8.296004666619566e-07
3937.61,-9.697166117555348e-07
3938.51,-1.1314243731459369e-06
3939.42,-1.30062015871468e-06
3940.32,-1.4582516130574921e-06
3941.22,-1.5922448881132104e-06
3942.12,-1.7025758498802144e-06
3943.02,-1.7888797865753608e-06
3943.92,-1.8609369333319726e-06
3944.82,-1.9431314289599074e-06
3945.72,-2.017835881701127e-06
3946.62,-2.098077490527651e-06
3947.52,-2.1833581081660182e-06
3948.42,-2.266034637320897e-06
3949.32,-2.3159700900553384e-06
3950.22,-2.383138091503092e-06
3951.12,-2.423175422393167e-06
3952.02,-2.4536189673310975e-06
3952.92,-2.4890632689190326e-06
3953.82,-2.511095437055193e-06
3954.72,-2.5175332498199616e-06
3955.62,-2.5179870953154776e-06
3956.52,-2.5107078011358694e-06
3957.42,-2.4905271561436165e-06
3958.32,-2.4607339836756084e-06
3959.22,-2.4155417301615656e-06
3960.12,-2.3412814556931674e-06
3961.02,-2.2399777376927194e-06
3961.92,-2.1119563557596336e-06
3962.82,-1.9675477172996447e-06
3963.72,-1.8078178738831945e-06
3964.62,-1.63734901957828e-06
3965.52,-1.475997412367586e-06
3966.42,-1.3030008861581922e-06
3967.32,-1.1441510286654488e-06
3968.22,-1.0117298119031629e-06
3969.12,-9.399444021665243e-07
3970.02,-9.303886115527408e-07
3970.92,-9.887859153614127e-07
3971.82,-1.1179328588048197e-06
3972.72,-1.287390294366952e-06
3973.62,-1.4962742412160949e-06
3974.52,-1.7125754485990812e-06
3975.42,-1.9181225810315727e-06
3976.32,-2.115307738962571e-06
3977.22,-2.3003493753767597e-06
3978.13,-2.4774920238797017e-06
3979.03,-2.626154859133136e-06
3979.93,-2.742067104968533e-06
3980.83,-2.8421069248554317e-06
3981.73,-2.9016954473320083e-06
3982.63,-2.9459836777147135e-06
3983.53,-2.994449382232789e-06
3984.43,-3.012942207250267e-06
3985.33,-3.0348513890253124e-06
3986.23,-3.0916926939883973e-06
3987.13,-3.1361063060118383e-06
3988.03,-3.1858080455670783e-06
3988.93,-3.242530408438574e-06
3989.83,-3.2681233001576645e-06
3990.73,-3.316511757079544e-06
3991.63,-3.3469050343373753e-06
3992.53,-3.3808714407523603e-06
3993.43,-3.3992020063564034e-06
3994.33,-3.408825919659116e-06
3995.23,-3.3956759496874865e-06
3996.13,-3.373565377861707e-06
3997.03,-3.3354817279644812e-06
3997.93,-3.3486028114818e-06
3998.83,-3.3541527222064556e-06
3999.73,-3.4069181594228874e-06
4000.63,-3.470731392042943e-06
4001.53,-3.5540536266388146e-06
4002.43,-3.5902150217330563e-06
4003.33,-3.5825289724682577e-06
4004.23,-3.5774280067498584e-06
4005.13,-3.510565789493615e-06
4006.03,-3.4823520636272226e-06
4006.93,-3.477465284540598e-06
4007.83,-3.499950587828752e-06
4008.73,-3.5606703818253016e-06
4009.63,-3.6298915411981505e-06
4010.53,-3.700656284066166e-06
4011.43,-3.7529376292687273e-06
4012.33,-3.808260479030857e-06
4013.23,-3.834567939649463e-06
4014.13,-3.856181724057524e-06
4015.03,-3.892199167658916e-06
4015.93,-3.889311036984972e-06
4016.84,-3.91111206447618e-06
4017.74,-3.922867354944831e-06
4018.64,-3.925786990765368e-06
4019.54,-3.9385333703134905e-06
4020.44,-3.967312733513269e-06
4021.34,-3.986572137094123e-06
4022.24,-4.017749328272549e-06
4023.14,-4.018948130997519e-06
4024.04,-4.028453087868036e-06
4024.94,-4.050882287053356e-06
4025.84,-4.08252549860345e-06
4026.74,-4.132365198256968e-06
4027.64,-4.135702520479154e-06
4028.54,-4.14918623160967e-06
4029.44,-4.112479030225001e-06
4030.34,-4.021689261971056e-06
4031.24,-3.9532423684716915e-06
4032.14,-3.88285062954296e-06
4033.04,-3.823772492176826e-06
4033.94,-3.8182922330700475e-06
4034.84,-3.880041255030429e-06
4035.74,-3.965733849855535e-06
4036.64,-4.088299075971853e-06
4037.54,-4.245092781508381e-06
4038.44,-4.344966621729044e-06
4039.34,-4.40320650461993e-06
4040.24,-4.444883258816515e-06
4041.14,-4.434408607586641e-06
4042.04,-4.37051551634947e-06
4042.94,-4.291653853703509e-06
4043.84,-4.184394279981268e-06
4044.74,-4.048720270625209e-06
4045.64,-3.9604779753458985e-06
4046.54,-3.937674153097645e-06
4047.44,-3.9680048411516325e-06
4048.34,-4.055102249513104e-06
4049.24,-4.209936738467177e-06
4050.14,-4.338035049447758e-06
4051.04,-4.4564378106094215e-06
4051.94,-4.5103352181318215e-06
4052.84,-4.526277655231007e-06
4053.74,-4.529839736637941e-06
4054.65,-4.499282807892985e-06
4055.55,-4.448603041810414e-06
4056.45,-4.4170695744905816e-06
4057.35,-4.414794432613945e-06
4058.25,-4.423766123389847e-06
4059.15,-4.44706411824898e-06
4060.05,-4.4572025199337435e-06
4060.95,-4.470355519359709e-06
4061.85,-4.433121582074458e-06
4062.75,-4.407364594724805e-06
4063.65,-4.325424525348029e-06
4064.55,-4.283651383060231e-06
4065.45,-4.272498278095917e-06
4066.35,-4.33493688132472e-06
4067.25,-4.392740611858571e-06
4068.15,-4.499410214190011e-06
4069.05,-4.582393954584011e-06
4069.95,-4.618718084916452e-06
4070.85,-4.660025841367921e-06
4071.75,-4.6628506083009816e-06
4072.65,-4.64070410210309e-06
4073.55,-4.641976209863613e-06
4074.45,-4.629231804562917e-06
4075.35,-4.60949016462646e-06
4076.25,-4.565449320961313e-06
4077.15,-4.515025188832722e-06
4078.05,-4.497186732351461e-06
4078.95,-4.538072542627048e-06
4079.85,-4.595773685509581e-06
4080.75,-4.705784217190912e-06
4081.65,-4.820870311746541e-06
4082.55,-4.951659611671001e-06
4083.45,-5.007189338361924e-06
4084.35,-5.063926572464667e-06
4085.25,-5.107634578710093e-06
4086.15,-5.169153781924632e-06
4087.05,-5.275250802105998e-06
4087.95,-5.376304687186221e-06
4088.85,-5.483992094044229e-06
4089.75,-5.538025988266851e-06
4090.65,-5.603870328576379e-06
4091.55,-5.6136009686107125e-06
4092.45,-5.586772832458962e-06
4093.36,-5.550439544369142e-06
4094.26,-5.52465086008566e-06
4095.16,-5.413992467299991e-06
4096.06,-5.316754135113548e-06
4096.96,-5.194031469858782e-06
4097.86,-5.061428421445425e-06
4098.76,-4.9260241214893255e-06
4099.66,-4.753370222291226e-06
4100.56,-4.603698990951842e-06
4101.46,-4.484805527314341e-06
4102.36,-4.404903434996197e-06
4103.26,-4.434154872286762e-06
4104.16,-4.562834372318845e-06
4105.06,-4.723296451350008e-06
4105.96,-4.94051955042429e-06
4106.86,-5.140827857999429e-06
4107.76,-5.280514587878712e-06
4108.66,-5.386143577992077e-06
4109.56,-5.483663218671086e-06
4110.46,-5.547910690153509e-06
4111.36,-5.560903207652267e-06
4112.26,-5.633275445574298e-06
4113.16,-5.702788979572477e-06
4114.06,-5.775024445931547e-06
4114.96,-5.881138475404235e-06
4115.86,-5.9251049381620435e-06
4116.76,-5.975310928655055e-06
4117.66,-5.968927424533957e-06
4118.56,-5.941297643523672e-06
4119.46,-5.900627257278038e-06
4120.36,-5.8866586785941395e-06
4121.26,-5.903730952138349e-06
4122.16,-5.890925057686078e-06
4123.06,-5.955798119881044e-06
4123.96,-5.988858091230155e-06
4124.86,-6.029642698414174e-06
4125.76,-6.055818111511856e-06
4126.66,-6.0852248465319734e-06
4127.56,-6.085266197165108e-06
4128.46,-6.049026787080043e-06
4129.36,-6.016327416238744e-06
4130.26,-5.96160831926187e-06
4131.17,-5.895775030425847e-06
4132.06,-5.856176982415908e-06
4132.97,-5.8489283931932124e-06
4133.87,-5.82997870059471e-06
4134.77,-5.88823086042551e-06
4135.67,-6.00729405662568e-06
4136.57,-6.158702252256818e-06
4137.47,-6.297387978202847e-06
4138.37,-6.412011420939626e-06
4139.27,-6.468954219738315e-06
4140.17,-6.532043465705746e-06
4141.07,-6.470971367670233e-06
4141.97,-6.376808154046588e-06
4142.87,-6.240761928567701e-06
4143.77,-6.147627964404693e-06
4144.67,-6.1185782721072015e-06
4145.57,-6.09595547854633e-06
4146.47,-6.22443319900771e-06
4147.37,-6.318199078206286e-06
4148.27,-6.421173081832731e-06
4149.17,-6.5070901160218645e-06
4150.07,-6.562171440910718e-06
4150.97,-6.572451122334232e-06
4151.87,-6.573986347040136e-06
4152.77,-6.564778810385564e-06
4153.67,-6.537058383289972e-06
4154.57,-6.532525402492695e-06
4155.47,-6.537150808509948e-06
4156.37,-6.576180623620754e-06
4157.27,-6.6356024302359005e-06
4158.17,-6.725365085654742e-06
4159.07,-6.810985377673277e-06
4159.97,-6.9532220203081375e-06
4160.87,-7.053460950976045e-06
4161.77,-7.127064501222925e-06
4162.67,-7.199120928125367e-06
4163.57,-7.283531813040535e-06
4164.47,-7.288636278313889e-06
4165.37,-7.269274830525796e-06
4166.27,-7.259751583076808e-06
4167.17,-7.219848167574668e-06
4168.07,-7.16786240036792e-06
4168.98,-7.165249878230419e-06
4169.88,-7.088121538017357e-06
4170.78,-7.02674017386841e-06
4171.68,-6.909481482359472e-06
4172.58,-6.804513172963886e-06
4173.48,-6.740881368693223e-06
4174.38,-6.7007805052286745e-06
4175.28,-6.716483851958105e-06
4176.18,-6.765199595181641e-06
4177.08,-6.869467911596104e-06
4177.98,-6.98657723160828e-06
4178.88,-7.065207287951129e-06
4179.78,-7.176050226336114e-06
4180.68,-7.279096536655527e-06
4181.58,-7.352528862575731e-06
4182.48,-7.322485659540841e-06
4183.38,-7.410160479387524e-06
4184.28,-7.41354220551793e-06
4185.18,-7.427240822125885e-06
4186.08,-7.425781946422482e-06
4186.98,-7.407701630565977e-06
4187.88,-7.426967665714621e-06
4188.78,-7.450672358260724e-06
4189.68,-7.477542725798195e-06
4190.58,-7.552173468044619e-06
4191.48,-7.67772075631513e-06
4192.38,-7.747640662463385e-06
4193.28,-7.827777683013045e-06
4194.18,-7.869916885629707e-06
4195.08,-7.84492276641105e-06
4195.98,-7.823725942783792e-06
4196.88,-7.682485421817417e-06
4197.78,-7.587358374441726e-06
4198.68,-7.50787416756224e-06
4199.58,-7.4199851511374405e-06
4200.48,-7.386419925809256e-06
4201.38,-7.38060726586425e-06
4202.28,-7.442087555550061e-06
4203.18,-7.5479399629774405e-06
4204.08,-7.641903583014862e-06
4204.98,-7.806440316020367e-06
4205.88,-7.935998560789824e-06
4206.79,-8.10523526720507e-06
4207.69,-8.277625962327794e-06
4208.59,-8.3867849749684e-06
4209.49,-8.499000335237139e-06
4210.39,-8.560446852031969e-06
4211.29,-8.589235912585428e-06
4212.19,-8.604697998017484e-06
4213.09,-8.578273475877973e-06
4213.99,-8.504684169335999e-06
4214.89,-8.463466809478905e-06
4215.79,-8.381950003717696e-06
4216.69,-8.378414811996926e-06
4217.59,-8.450751555872795e-06
4218.49,-8.614034808695464e-06
4219.39,-8.71617618620866e-06
4220.29,-8.835795653824082e-06
4221.19,-8.857718116552703e-06
4222.09,-8.776906840686069e-06
4222.99,-8.648352628903317e-06
4223.89,-8.406217077318266e-06
4224.79,-8.009953756041528e-06
4225.69,-7.743386138858581e-06
4226.59,-7.434197773025643e-06
4227.49,-7.376067149571413e-06
4228.39,-7.491373595247936e-06
4229.29,-7.72498858964303e-06
4230.19,-8.078175077699748e-06
4231.09,-8.428111407337194e-06
4231.99,-8.701585208916318e-06
4232.89,-8.871206480963895e-06
4233.79,-8.960938470050024e-06
4234.69,-8.978834846941953e-06
4235.59,-8.888328196794623e-06
4236.49,-8.874728507420501e-06
4237.39,-8.866765234531338e-06
4238.29,-8.916640680102082e-06
4239.19,-8.982794925609614e-06
4240.09,-9.11898934502345e-06
4240.99,-9.235088328918382e-06
4241.89,-9.40805260098331e-06
4242.79,-9.539365914666839e-06
4243.69,-9.654667166490927e-06
4244.59,-9.778330283897544e-06
4245.5,-9.80132574012667e-06
4246.4,-9.748149607886488e-06
4247.3,-9.676832815326577e-06
4248.2,-9.537366182724012e-06
4249.1,-9.417338940868597e-06
4250.0,-9.357106611113784e-06
4250.9,-9.24262070940235e-06
4251.8,-9.32767126964569e-06
4252.7,-9.377728541724998e-06
4253.6,-9.473291587172838e-06
4254.5,-9.53254370119692e-06
4255.4,-9.661622383359617e-06
4256.3,-9.681177660803201e-06
4257.2,-9.781103538066812e-06
4258.1,-9.79583276938347e-06
4259.0,-9.815182632463198e-06
4259.9,-9.76262903448504e-06
4260.8,-9.742186832013074e-06
4261.7,-9.780502904714188e-06
4262.6,-9.941555944973255e-06
4263.5,-1.0136041808346828e-05
4264.4,-1.0413941402058696e-05
4265.3,-1.0607781940209399e-05
4266.2,-1.0768999027236685e-05
4267.1,-1.078196878711755e-05
4268.0,-1.0682226173868514e-05
4268.9,-1.050643643450874e-05
4269.8,-1.0225393527374064e-05
4270.7,-9.997927171134296e-06
4271.6,-9.67258815087018e-06
4272.5,-9.501020621602278e-06
4273.4,-9.373422591017784e-06
4274.3,-9.439084931653033e-06
4275.2,-9.642124484419743e-06
4276.1,-9.846543107997652e-06
4277.0,-1.0186007559866225e-05
4277.9,-1.0454846593638915e-05
