wave,flux
3700.85,-5.470873977224736e-07
3701.75,-5.423481131571632e-07
3702.65,-5.303553362854492e-07
3703.55,-5.091542658440232e-07
3704.45,-4.898845154081775e-07
3705.35,-4.749592066391413e-07
3706.25,-4.6517254708095285e-07
3707.15,-4.638524897153289e-07
3708.05,-4.692048595365068e-07
3708.96,-4.748354837307343e-07
3709.86,-4.826078837988504e-07
3710.76,-4.906586379925026e-07
3711.66,-4.997972065503339e-07
3712.56,-5.153125059761889e-07
3713.46,-5.311960208625394e-07
3714.36,-5.50264581218908e-07
3715.26,-5.657446795528086e-07
3716.16,-5.743955405829854e-07
3717.06,-5.766249224549615e-07
3717.96,-5.670658656162283e-07
3718.86,-5.440946110264858e-07
3719.76,-5.155694277709291e-07
3720.66,-4.87604472389137e-07
3721.56,-4.6251321621479167e-07
3722.46,-4.548891454507755e-07
3723.36,-4.6416421565839584e-07
3724.26,-4.846941427001505e-07
3725.16,-5.110508397414677e-07
3726.06,-5.360623185000562e-07
3726.96,-5.528634351751999e-07
3727.86,-5.629794436587437e-07
3728.76,-5.678453767005112e-07
3729.66,-5.649135891511248e-07
3730.56,-5.557647748779998e-07
3731.46,-5.408653788583518e-07
3732.36,-5.130688787962305e-07
3733.26,-4.85110986158863e-07
3734.16,-4.5319948874466436e-07
3735.06,-4.3015411406072863e-07
3735.96,-4.2350782921014927e-07
3736.86,-4.3130379939117604e-07
3737.76,-4.5658933877591396e-07
3738.66,-4.886975169241702e-07
3739.56,-5.249668418822434e-07
3740.46,-5.572002472802883e-07
3741.36,-5.753859389373898e-07
3742.26,-5.831830127757143e-07
3743.16,-5.81199248606302e-07
3744.06,-5.704911278574063e-07
3744.96,-5.543270949151276e-07
3745.86,-5.293368953132268e-07
3746.76,-5.038915090889261e-07
3747.67,-4.835943916047925e-07
3748.57,-4.5831146975232504e-07
3749.47,-4.423730506246302e-07
3750.37,-4.418786743817988e-07
3751.27,-4.563312831696918e-07
3752.17,-4.852314556434169e-07
3753.07,-5.25070837627276e-07
3753.97,-5.631194095988623e-07
3754.87,-5.961314801863783e-07
3755.77,-6.164469443058844e-07
3756.67,-6.243997374528773e-07
3757.57,-6.198970330695105e-07
3758.47,-6.077901165327616e-07
3759.37,-5.960084643465148e-07
3760.27,-5.938326553747224e-07
3761.17,-5.937269566286138e-07
3762.07,-6.062662593794548e-07
3762.97,-6.151294135916731e-07
3763.87,-6.242662273609657e-07
3764.77,-6.280831240214704e-07
3765.67,-6.264090529560153e-07
3766.57,-6.169312413553056e-07
3767.47,-6.030676692524843e-07
3768.37,-5.884563978136332e-07
3769.27,-5.700769960644996e-07
3770.17,-5.586705581064038e-07
3771.07,-5.52312930471363e-07
3771.97,-5.600037512828639e-07
3772.87,-5.754966063440086e-07
3773.77,-5.996157207228459e-07
3774.67,-6.214719148090932e-07
3775.57,-6.466003465171499e-07
3776.47,-6.688949846371684e-07
3777.37,-6.847282826638295e-07
3778.27,-7.01088793748766e-07
3779.17,-7.180041860218956e-07
3780.07,-7.359430602137816e-07
3780.97,-7.519754437997701e-07
3781.87,-7.643793930487728e-07
3782.77,-7.685889336748796e-07
3783.67,-7.681705656103894e-07
3784.57,-7.648556194369948e-07
3785.47,-7.525245019535205e-07
3786.38,-7.373767000716616e-07
3787.28,-7.198806371755933e-07
3788.18,-7.064569007464555e-07
3789.08,-6.947326729530099e-07
3789.98,-6.905436817882363e-07
3790.88,-6.841358874920927e-07
3791.78,-6.731064212555296e-07
3792.68,-6.626041773059106e-07
3793.58,-6.484627032308655e-07
3794.48,-6.235381561823777e-07
3795.38,-6.029448821334046e-07
3796.28,-5.731172312033586e-07
3797.18,-5.525228785014652e-07
3798.08,-5.350910116213718e-07
3798.98,-5.347526944546171e-07
3799.88,-5.468331991577835e-07
3800.78,-5.787777132199375e-07
3801.68,-6.236709002176871e-07
3802.58,-6.6410363131158e-07
3803.48,-7.012092004460289e-07
3804.38,-7.308029745170705e-07
3805.28,-7.489487834124458e-07
3806.18,-7.591459324846867e-07
3807.08,-7.626820562548283e-07
3807.98,-7.729171356982129e-07
3808.88,-7.820720081756682e-07
3809.78,-7.871260472681696e-07
3810.68,-7.937011333115309e-07
3811.58,-7.939189661089747e-07
3812.48,-7.850274052293561e-07
3813.38,-7.706480236330077e-07
3814.28,-7.549069183149528e-07
3815.18,-7.396980757588052e-07
3816.08,-7.337674549726297e-07
3816.98,-7.322809414143297e-07
3817.88,-7.331582045327028e-07
3818.78,-7.372794874501843e-07
3819.68,-7.366625299163987e-07
3820.58,-7.30853791120168e-07
3821.48,-7.257143951090768e-07
3822.38,-7.184816192400606e-07
3823.28,-7.119712875145496e-07
3824.18,-7.007252481593376e-07
3825.09,-6.904502175015352e-07
3825.99,-6.760982360526443e-07
3826.89,-6.614918175221855e-07
3827.79,-6.530536895415969e-07
3828.69,-6.441535866378857e-07
3829.59,-6.297883130418625e-07
3830.49,-6.178787677615255e-07
3831.39,-5.973822308438076e-07
3832.29,-5.705703032590398e-07
3833.19,-5.440283757782446e-07
3834.09,-5.189526469322196e-07
3834.99,-4.979362428966207e-07
3835.89,-4.86621059310218e-07
3836.79,-4.86854097047463e-07
3837.69,-4.989271433872351e-07
3838.59,-5.181848661833558e-07
3839.49,-5.455200739124832e-07
3840.39,-5.768697290420179e-07
3841.29,-6.105645013395776e-07
3842.19,-6.525952409761298e-07
3843.09,-6.891275265026855e-07
3843.99,-7.226476132357537e-07
3844.89,-7.521019142215614e-07
3845.79,-7.716063951783058e-07
3846.69,-7.914382174676956e-07
3847.59,-8.024056499820494e-07
3848.49,-8.106509805475813e-07
3849.39,-8.177806693573125e-07
3850.29,-8.228256795352814e-07
3851.19,-8.281657999141662e-07
3852.09,-8.32066505278657e-07
3852.99,-8.380263639711926e-07
3853.89,-8.414896751256769e-07
3854.79,-8.435040537746912e-07
3855.69,-8.356889223903733e-07
3856.59,-8.264235995966903e-07
3857.49,-8.1183494382764e-07
3858.39,-8.008542610001794e-07
3859.29,-7.963662660094891e-07
3860.19,-7.916943364937673e-07
3861.09,-8.017783453485019e-07
3861.99,-8.166982695121511e-07
3862.9,-8.357895125098195e-07
3863.8,-8.532673758476597e-07
3864.7,-8.665337275792374e-07
3865.6,-8.738651909971791e-07
3866.5,-8.802562413221602e-07
3867.4,-8.807402296056789e-07
3868.3,-8.781440995104522e-07
3869.2,-8.766755379698032e-07
3870.1,-8.672506673635275e-07
3871.0,-8.524076515757825e-07
3871.9,-8.371491642602896e-07
3872.8,-8.179953190054192e-07
3873.7,-8.095942948046567e-07
3874.6,-8.07179015478292e-07
3875.5,-8.059305198136414e-07
3876.4,-8.103170150653236e-07
3877.3,-8.083324016157102e-07
3878.2,-7.99335914010927e-07
3879.1,-7.946498244910606e-07
3880.0,-7.936107484035266e-07
3880.9,-7.952271712648773e-07
3881.8,-7.934451240209151e-07
3882.7,-7.888448073189171e-07
3883.6,-7.748641655646095e-07
3884.5,-7.622149968443511e-07
3885.4,-7.284653490069155e-07
3886.3,-6.955276277444616e-07
3887.2,-6.612898905778724e-07
3888.1,-6.342472091932274e-07
3889.0,-6.137384955457396e-07
3889.9,-6.101900436939117e-07
3890.8,-6.239913734174543e-07
3891.7,-6.459151260060334e-07
3892.6,-6.776101152082998e-07
3893.5,-7.123529966312847e-07
3894.4,-7.412835147601155e-07
3895.3,-7.619121317526975e-07
3896.2,-7.827395433914616e-07
3897.1,-7.988473403832319e-07
3898.0,-8.107625120871854e-07
3898.9,-8.208900708452339e-07
3899.8,-8.309801864869529e-07
3900.7,-8.409720488991569e-07
3901.6,-8.499849018976983e-07
3902.51,-8.474493803400982e-07
3903.41,-8.507078243435842e-07
3904.31,-8.47361852437891e-07
3905.21,-8.469047200657224e-07
3906.11,-8.484916527728144e-07
3907.01,-8.52007643031932e-07
3907.91,-8.638879898660044e-07
3908.81,-8.861852956579229e-07
3909.71,-9.076755259058175e-07
3910.61,-9.223651434188063e-07
3911.51,-9.366581068247054e-07
3912.41,-9.438090375854766e-07
3913.31,-9.424666453907964e-07
3914.21,-9.413051950768755e-07
3915.11,-9.360605444105637e-07
3916.01,-9.273988032495031e-07
3916.91,-9.189012201189612e-07
3917.81,-9.08397364685661e-07
3918.71,-8.966253346511845e-07
3919.61,-8.872491301315304e-07
3920.51,-8.738031389981824e-07
3921.41,-8.698600007361348e-07
3922.31,-8.63441619904085e-07
3923.21,-8.595059407284301e-07
3924.11,-8.514315748099913e-07
3925.01,-8.41270320332751e-07
3925.91,-8.166942430307084e-07
3926.81,-7.884175284105141e-07
3927.71,-7.424115144891608e-07
3928.61,-6.903167043849856e-07
3929.51,-6.280163989480545e-07
3930.41,-5.573348695136772e-07
3931.31,-4.871465226537763e-07
3932.21,-4.220689107648372e-07
3933.11,-3.6867241831176484e-07
3934.01,-3.3866080806694764e-07
3934.91,-3.3186449229194457e-07
3935.81,-3.544659149551639e-07
3936.71,-4.0221378215504743e-07
3937.61,-4.6653764561393274e-07
3938.51,-5.392083276818097e-07
3939.42,-6.121886330513073e-07
3940.32,-6.799675708490821e-07
3941.22,-7.371902542188651e-07
3942.12,-7.750733949088932e-07
3943.02,-8.045156176541726e-07
3943.92,-8.324542726633048e-07
3944.82,-8.543830270631021e-07
3945.72,-8.722757344081124e-07
3946.62,-8.917895403684341e-07
3947.52,-9.062836979731518e-07
3948.42,-9.217807907546167e-07
3949.32,-9.308456438225127e-07
3950.22,-9.367902616162819e-07
3951.12,-9.44012502252232e-07
3952.02,-9.559251813195813e-07
3952.92,-9.593833885935695e-07
3953.82,-9.66493017829037e-07
3954.72,-9.674616770244452e-07
3955.62,-9.62789001403711e-07
3956.52,-9.58136600820109e-07
3957.42,-9.507909159043721e-07
3958.32,-9.484019763486939e-07
3959.22,-9.317824886427519e-07
3960.12,-9.140061656222244e-07
3961.02,-8.905680733391138e-07
3961.92,-8.522379484085944e-07
3962.82,-8.075571806037976e-07
3963.72,-7.555467204839197e-07
3964.62,-6.954209021850059e-07
3965.52,-6.280098334270483e-07
3966.42,-5.543793299777586e-07
3967.32,-4.837838523710141e-07
3968.22,-4.2674999778752716e-07
3969.12,-3.864823034952781e-07
3970.02,-3.7574394676931717e-07
3970.92,-3.946755360696342e-07
3971.82,-4.395849516021363e-07
3972.72,-5.036917163496805e-07
3973.62,-5.792801851226208e-07
3974.52,-6.529101244202589e-07
3975.42,-7.244066828542344e-07
3976.32,-7.897377069833997e-07
3977.22,-8.491827066392458e-07
3978.13,-8.990007910974149e-07
3979.03,-9.400417688883707e-07
3979.93,-9.732959382767707e-07
3980.83,-9.953946796484491e-07
3981.73,-1.0124451740990952e-06
3982.63,-1.0236849080449806e-06
3983.53,-1.033426964327679e-06
3984.43,-1.0437000207956165e-06
3985.33,-1.0517225663744791e-06
3986.23,-1.0647252305431709e-06
3987.13,-1.078813083342327e-06
3988.03,-1.0849620298882892e-06
3988.93,-1.0973325630944672e-06
3989.83,-1.1103807716077205e-06
3990.73,-1.1172706071022448e-06
3991.63,-1.1327686310625587e-06
3992.53,-1.1349698281076898e-06
3993.43,-1.1369691423189292e-06
3994.33,-1.1409991751605215e-06
3995.23,-1.1316900878289558e-06
3996.13,-1.1233902579127206e-06
3997.03,-1.1170689856305621e-06
3997.93,-1.1161862277079318e-06
3998.83,-1.1141246478901404e-06
3999.73,-1.1282547424503109e-06
4000.63,-1.1396110614378403e-06
4001.53,-1.153942882551187e-06
4002.43,-1.1603880662438793e-06
4003.33,-1.1708821400420091e-06
4004.23,-1.1638845596596961e-06
4005.13,-1.1503138028477632e-06
4006.03,-1.1483328645374474e-06
4006.93,-1.145961259626847e-06
4007.83,-1.1456820912607011e-06
4008.73,-1.160186118339279e-06
4009.63,-1.1730404588613188e-06
4010.53,-1.189998994701911e-06
4011.43,-1.2014064150664137e-06
4012.33,-1.2049889794633425e-06
4013.23,-1.2111874490519183e-06
4014.13,-1.2145408328748756e-06
4015.03,-1.2167701868651035e-06
4015.93,-1.2163146228238234e-06
4016.84,-1.2230641907131362e-06
4017.74,-1.2224704135852636e-06
4018.64,-1.2323495566272188e-06
4019.54,-1.2329716393642763e-06
4020.44,-1.2328462019744551e-06
4021.34,-1.2405246054130165e-06
4022.24,-1.2447588418466865e-06
4023.14,-1.2465366343195203e-06
4024.04,-1.2458489220350811e-06
4024.94,-1.2420419032332163e-06
4025.84,-1.2535727330636563e-06
4026.74,-1.260390872893969e-06
4027.64,-1.2646718360811191e-06
4028.54,-1.2567239083922922e-06
4029.44,-1.2454033732495582e-06
4030.34,-1.2351359509995567e-06
4031.24,-1.216604865009922e-06
4032.14,-1.196796867018138e-06
4033.04,-1.19660378452746e-06
4033.94,-1.1894830616112906e-06
4034.84,-1.199660818342477e-06
4035.74,-1.2248382663713117e-06
4036.64,-1.2496395596910373e-06
4037.54,-1.2809866818178463e-06
4038.44,-1.2948241761653551e-06
4039.34,-1.313443027599183e-06
4040.24,-1.3124292959029996e-06
4041.14,-1.308701638663517e-06
4042.04,-1.2964936881995283e-06
4042.94,-1.2815007860860581e-06
4043.84,-1.2624629930773158e-06
4044.74,-1.2395861857182917e-06
4045.64,-1.2188620919977346e-06
4046.54,-1.215313576135798e-06
4047.44,-1.2192530148702441e-06
4048.34,-1.238474538404551e-06
4049.24,-1.2546317157093465e-06
4050.14,-1.2810968745880632e-06
4051.04,-1.298754287589346e-06
4051.94,-1.3022192789453818e-06
4052.84,-1.3080728200494876e-06
4053.74,-1.3084995965620505e-06
4054.65,-1.2981254919637854e-06
4055.55,-1.2925990156092111e-06
4056.45,-1.2873190380298363e-06
4057.35,-1.2874162419682765e-06
4058.25,-1.2886368024515257e-06
4059.15,-1.2900464910019707e-06
4060.05,-1.2984860791363938e-06
4060.95,-1.2978010676334613e-06
4061.85,-1.2934958556975959e-06
4062.75,-1.2849534053579716e-06
4063.65,-1.2708360183656584e-06
4064.55,-1.2612199851960096e-06
4065.45,-1.255743492654486e-06
4066.35,-1.2598052993911783e-06
4067.25,-1.270366408012474e-06
4068.15,-1.2849807214945137e-06
4069.05,-1.295672385178801e-06
4069.95,-1.30364589452877e-06
4070.85,-1.3106458202588973e-06
4071.75,-1.3084949429259717e-06
4072.65,-1.3046926988572087e-06
4073.55,-1.2959400507501402e-06
4074.45,-1.2916877594521653e-06
4075.35,-1.2810514113264625e-06
4076.25,-1.2622008411185975e-06
4077.15,-1.2488428924679012e-06
4078.05,-1.2383011853453207e-06
4078.95,-1.2354855006626383e-06
4079.85,-1.249849145773162e-06
4080.75,-1.268153016432053e-06
4081.65,-1.2895986664915816e-06
4082.55,-1.3055522605564489e-06
4083.45,-1.3210394414241147e-06
4084.35,-1.3276244770314581e-06
4085.25,-1.3363256973515864e-06
4086.15,-1.3408389770659254e-06
4087.05,-1.3524620194633731e-06
4087.95,-1.372354217548962e-06
4088.85,-1.3830646355423402e-06
4089.75,-1.3933693784525688e-06
4090.65,-1.3991501236538771e-06
4091.55,-1.3998795259628044e-06
4092.45,-1.3918832022410345e-06
4093.36,-1.3795946349893092e-06
4094.26,-1.3679240474506166e-06
4095.16,-1.3441891144792325e-06
4096.06,-1.3180228271263833e-06
4096.96,-1.2777481092067324e-06
4097.86,-1.2450932375716402e-06
4098.76,-1.2002214453819957e-06
4099.66,-1.1486848278960529e-06
4100.56,-1.0985677545171548e-06
4101.46,-1.053179260913786e-06
4102.36,-1.0288762949966253e-06
4103.26,-1.0323619980657717e-06
4104.16,-1.06118422766068e-06
4105.06,-1.09547771703606e-06
4105.96,-1.1501221198363649e-06
4106.86,-1.2010526411559706e-06
4107.76,-1.2536354856220682e-06
4108.66,-1.284277662088892e-06
4109.56,-1.3080717261740678e-06
4110.46,-1.3212837680421364e-06
4111.36,-1.3430018613772867e-06
4112.26,-1.3516815814236013e-06
4113.16,-1.3734488107794292e-06
4114.06,-1.3924336236590536e-06
4114.96,-1.4097610576618446e-06
4115.86,-1.4203892350243175e-06
4116.76,-1.4266104170281622e-06
4117.66,-1.4260873440811877e-06
4118.56,-1.426906317448104e-06
4119.46,-1.4151139201951537e-06
4120.36,-1.4127299649279505e-06
4121.26,-1.4060418773916373e-06
4122.16,-1.4146984694396751e-06
4123.06,-1.4184936622576542e-06
4123.96,-1.426896743588466e-06
4124.86,-1.4368819569741118e-06
4125.76,-1.4470964508419498e-06
4126.66,-1.4479348832392338e-06
4127.56,-1.4511678443539145e-06
4128.46,-1.4462646298065e-06
4129.36,-1.4384502333195185e-06
4130.26,-1.43148440381955e-06
4131.17,-1.423689321115919e-06
4132.06,-1.4110553153868382e-06
4132.97,-1.411904023017561e-06
4133.87,-1.4117336501803732e-06
4134.77,-1.415105575823924e-06
4135.67,-1.4288807975448246e-06
4136.57,-1.4505904664136838e-06
4137.47,-1.4791344927810515e-06
4138.37,-1.490648831842973e-06
4139.27,-1.5087790160145738e-06
4140.17,-1.5092214412278045e-06
4141.07,-1.504361997806782e-06
4141.97,-1.4903471152252513e-06
4142.87,-1.4703897166018939e-06
4143.77,-1.4578548308585025e-06
4144.67,-1.4499376584667347e-06
4145.57,-1.4554201166412588e-06
4146.47,-1.4655354974748866e-06
4147.37,-1.48144751265189e-06
4148.27,-1.4953580255500742e-06
4149.17,-1.5032591629590534e-06
4150.07,-1.5033383624420848e-06
4150.97,-1.5082367823985678e-06
4151.87,-1.4996042131298605e-06
4152.77,-1.4956526441918492e-06
4153.67,-1.4952864959952022e-06
4154.57,-1.4953891662121534e-06
4155.47,-1.4946743805062772e-06
4156.37,-1.4976529974321638e-06
4157.27,-1.5005942171803445e-06
4158.17,-1.5112127737004155e-06
4159.07,-1.5280707510830051e-06
4159.97,-1.5412969104978294e-06
4160.87,-1.5524348318000184e-06
4161.77,-1.5666315761966386e-06
4162.67,-1.5702355367385782e-06
4163.57,-1.5790149234560562e-06
4164.47,-1.58263981029696e-06
4165.37,-1.5852704317833853e-06
4166.27,-1.5806685323109133e-06
4167.17,-1.5719494068993976e-06
4168.07,-1.5694563047667135e-06
4168.98,-1.5653139309957812e-06
4169.88,-1.5538184077608467e-06
4170.78,-1.5373332808687025e-06
4171.68,-1.5078874742372674e-06
4172.58,-1.4901975424826482e-06
4173.48,-1.4731210397594204e-06
4174.38,-1.4654367842498987e-06
4175.28,-1.4659444770354673e-06
4176.18,-1.4818385417212383e-06
4177.08,-1.494052546024334e-06
4177.98,-1.509221614427679e-06
4178.88,-1.5238505923959365e-06
4179.78,-1.5325153426034035e-06
4180.68,-1.5439592883244992e-06
4181.58,-1.5541829879782742e-06
4182.48,-1.5576049632871978e-06
4183.38,-1.5674663190646747e-06
4184.28,-1.566526639787544e-06
4185.18,-1.567463486329361e-06
4186.08,-1.5666966169318084e-06
4186.98,-1.5666441215774715e-06
4187.88,-1.558406916555626e-06
4188.78,-1.5605002766506709e-06
4189.68,-1.5680960423417902e-06
4190.58,-1.5757995434946128e-06
4191.48,-1.5839275008424154e-06
4192.38,-1.6051059014701772e-06
4193.28,-1.6084857975300446e-06
4194.18,-1.6151839272197155e-06
4195.08,-1.6153107406345514e-06
4195.98,-1.6072489426212033e-06
4196.88,-1.5933805432084244e-06
4197.78,-1.5729991338269212e-06
4198.68,-1.5606445644281015e-06
4199.58,-1.5488960777989776e-06
4200.48,-1.5443478265026448e-06
4201.38,-1.5378148627011625e-06
4202.28,-1.5458114670332565e-06
4203.18,-1.5518506597950628e-06
4204.08,-1.5581334460954042e-06
4204.98,-1.5692679751631378e-06
4205.88,-1.5874412195998606e-06
4206.79,-1.601016968580834e-06
4207.69,-1.6208468400960553e-06
4208.59,-1.6269249933949113e-06
4209.49,-1.640018781206752e-06
4210.39,-1.6540264558158904e-06
4211.29,-1.6589093513239772e-06
4212.19,-1.6622664595887308e-06
4213.09,-1.6529515908660455e-06
4213.99,-1.6494910724739802e-06
4214.89,-1.6377476793140716e-06
4215.79,-1.6272350596330778e-06
4216.69,-1.6158027685383821e-06
4217.59,-1.6179438863671976e-06
4218.49,-1.6305169223133716e-06
4219.39,-1.6455662744713495e-06
4220.29,-1.6581092107013323e-06
4221.19,-1.6612036237919087e-06
4222.09,-1.6595346445325741e-06
4222.99,-1.6396086427774443e-06
4223.89,-1.6072249614434263e-06
4224.79,-1.5767459068530625e-06
4225.69,-1.5317560056499227e-06
4226.59,-1.503661743353144e-06
4227.49,-1.4869612887060743e-06
4228.39,-1.5016171977997528e-06
4229.29,-1.536587099928841e-06
4230.19,-1.5741780002362272e-06
4231.09,-1.6130127179012957e-06
4231.99,-1.6345589809282522e-06
4232.89,-1.6564948780926523e-06
4233.79,-1.6629259120415056e-06
4234.69,-1.6558591334179347e-06
4235.59,-1.6475198002760524e-06
4236.49,-1.6499077322073354e-06
4237.39,-1.640327507560744e-06
4238.29,-1.644351278948373e-06
4239.19,-1.649690126762664e-06
4240.09,-1.6664781283009516e-06
4240.99,-1.6883545032313997e-06
4241.89,-1.699207086736776e-06
4242.79,-1.7144645438268196e-06
4243.69,-1.7182135018032586e-06
4244.59,-1.7204576948963183e-06
4245.5,-1.7164781747916455e-06
4246.4,-1.704146297256493e-06
4247.3,-1.69466924763862e-06
4248.2,-1.6851160413476666e-06
4249.1,-1.669348747789461e-06
4250.0,-1.6730074711321005e-06
4250.9,-1.6669751765930544e-06
4251.8,-1.6764032268025713e-06
4252.7,-1.6859523878722087e-06
4253.6,-1.7042227958500303e-06
4254.5,-1.7161547563379972e-06
4255.4,-1.726480382025465e-06
4256.3,-1.7257658778751204e-06
4257.2,-1.7261401479198633e-06
4258.1,-1.7239758574793231e-06
4259.0,-1.7205083560369782e-06
4259.9,-1.715932040843271e-06
4260.8,-1.7156864914941238e-06
4261.7,-1.7231894517600452e-06
4262.6,-1.734164949561049e-06
4263.5,-1.759356867993845e-06
4264.4,-1.7787885397615382e-06
4265.3,-1.7880633968216434e-06
4266.2,-1.8001288210185932e-06
4267.1,-1.8078886269166842e-06
4268.0,-1.7940140130461923e-06
4268.9,-1.774035829190503e-06
4269.8,-1.747120373310798e-06
4270.7,-1.7169393330906476e-06
4271.6,-1.6945407659223124e-06
4272.5,-1.67411301136408e-06
4273.4,-1.667059168167414e-06
4274.3,-1.6663517227727213e-06
4275.2,-1.6779834532576838e-06
