wave,flux
3700.85,0.03123557539936509
3701.75,0.03110487342335573
3702.65,0.03017267903967476
3703.55,0.02877591971404302
3704.45,0.027144383156356353
3705.35,0.02563230669993724
3706.25,0.02460063988601749
3707.15,0.0240437918757708
3708.05,0.024270857285482898
3708.96,0.024843848019894043
3709.86,0.02616588065442999
3710.76,0.02782963916632197
3711.66,0.02983451115103937
3712.56,0.03193916236594037
3713.46,0.03391830806202864
3714.36,0.03554660109985256
3715.26,0.036293084848469374
3716.16,0.036210212802378544
3717.06,0.03526566932603396
3717.96,0.033645012191971545
3718.86,0.03121630723814044
3719.76,0.02873438955681741
3720.66,0.026477899552905762
3721.56,0.0252110837357269
3722.46,0.0253717958611251
3723.36,0.02668244733483705
3724.26,0.028939321809029507
3725.16,0.031264977578693766
3726.06,0.03320073083597764
3726.96,0.03441535575893552
3727.86,0.035180026898375745
3728.76,0.03556107977165763
3729.66,0.03547705286214658
3730.56,0.034926265886381334
3731.46,0.03392718418718477
3732.36,0.03209012041106003
3733.26,0.029762819842366346
3734.16,0.027435137023838308
3735.06,0.025406896962729734
3735.96,0.02463373448135129
3736.86,0.02506634405189763
3737.76,0.026677915143425355
3738.66,0.029507941703434598
3739.56,0.03274749468182828
3740.46,0.035665792120768966
3741.36,0.03758865731721209
3742.26,0.03866337679897246
3743.16,0.03808610652168558
3744.06,0.03672777248428827
3744.96,0.034945070143249816
3745.86,0.03306024414169529
3746.76,0.031202274102732915
3747.67,0.029961812613494773
3748.57,0.02921980528816788
3749.47,0.02936432932605827
3750.37,0.030782647634327528
3751.27,0.03359616595844323
3752.17,0.03728628515485947
3753.07,0.041751922521059526
3753.97,0.04561861313240184
3754.87,0.048532022692014176
3755.77,0.05001749154897034
3756.67,0.04986014991020332
3757.57,0.048473400032308774
3758.47,0.04639013025837517
3759.37,0.045057737307135706
3760.27,0.04455081118940685
3761.17,0.045129492376213484
3762.07,0.04627509137626006
3762.97,0.047849355916519995
3763.87,0.0487839530115794
3764.77,0.04989784353111179
3765.67,0.050580091163605505
3766.57,0.05098356558498697
3767.47,0.05164705055800618
3768.37,0.0524909104526687
3769.27,0.05349707995641434
3770.17,0.05491762348485305
3771.07,0.05692896019455112
3771.97,0.05896860622858787
3772.87,0.061430398758538965
3773.77,0.0638984376475335
3774.67,0.06631348826073365
3775.57,0.06792696037911651
3776.47,0.06937918554486738
3777.37,0.07079007689520758
3778.27,0.07248464434937978
3779.17,0.07430981014182098
3780.07,0.07654838504555307
3780.97,0.07827743908322399
3781.87,0.08041180362900721
3782.77,0.08192416323360707
3783.67,0.0824533618676284
3784.57,0.0821039684101121
3785.47,0.08015154046486288
3786.38,0.0779759779790666
3787.28,0.07560351549993845
3788.18,0.07295208129634102
3789.08,0.07147424380003248
3789.98,0.0708476230731772
3790.88,0.07115982503012895
3791.78,0.07187245776614457
3792.68,0.07241134634511256
3793.58,0.07185595026838773
3794.48,0.071194337678034
3795.38,0.06985499491177916
3796.28,0.06821698926399991
3797.18,0.06721796343906702
3798.08,0.0665699223881818
3798.98,0.06751041799871621
3799.88,0.07006215617525967
3800.78,0.07455043848901302
3801.68,0.08034522261852443
3802.58,0.0871527314078804
3803.48,0.09282309021255782
3804.38,0.09721318853566296
3805.28,0.09977519961607731
3806.18,0.10115456039113069
3807.08,0.10167818552432287
3807.98,0.1020982160155901
3808.88,0.10375056506995191
3809.78,0.10509810803191368
3810.68,0.10682980515220789
3811.58,0.10696478527517879
3812.48,0.10593201618932706
3813.38,0.10288616824592954
3814.28,0.09880338527909135
3815.18,0.09482255590687035
3816.08,0.09259428355517596
3816.98,0.09162964728451048
3817.88,0.0914355116910788
3818.78,0.09135217414902076
3819.68,0.09101697238355866
3820.58,0.09035982679851777
3821.48,0.08921268419747547
3822.38,0.08886872030766706
3823.28,0.08851803350756184
3824.18,0.08751838153901827
3825.09,0.08584413526688846
3825.99,0.08354752164299245
3826.89,0.08160260233778803
3827.79,0.08093309106780462
3828.69,0.08153620524146238
3829.59,0.0821412245672553
3830.49,0.08298917414195027
3831.39,0.08294700043333464
3832.29,0.08159327564042192
3833.19,0.08053259806345843
3834.09,0.07932905091192173
3834.99,0.07956054397071581
3835.89,0.08043299619147157
3836.79,0.08192233764932187
3837.69,0.08362506100021012
3838.59,0.08517303393814334
3839.49,0.0881231950347582
3840.39,0.09291366669241366
3841.29,0.10008276722202993
3842.19,0.1094816371333705
3843.09,0.11979545316925923
3843.99,0.1301718906390999
3844.89,0.13969565767133288
3845.79,0.14632645124626034
3846.69,0.15156552236428703
3847.59,0.1550885972148858
3848.49,0.15720001365964667
3849.39,0.15802332141131828
3850.29,0.15913481858604886
3851.19,0.1602764362979157
3852.09,0.16157543696215826
3852.99,0.16384959286179135
3853.89,0.16467064393694572
3854.79,0.16454813275812596
3855.69,0.16224112334788826
3856.59,0.15879700945126163
3857.49,0.1544040891852334
3858.39,0.15070780185808283
3859.29,0.14850949382797407
3860.19,0.14921409542959788
3861.09,0.15370939263239983
3861.99,0.16198834498894985
3862.9,0.17285970981885238
3863.8,0.18248126314960145
3864.7,0.19109485274543803
3865.6,0.19699596023679214
3866.5,0.1998660512010737
3867.4,0.2008938862785892
3868.3,0.2003759309827517
3869.2,0.1990441346874269
3870.1,0.1959625080458953
3871.0,0.19214062140261903
3871.9,0.18959796918897165
3872.8,0.18930516242038958
3873.7,0.19237278873074182
3874.6,0.19782748688274834
3875.5,0.2046736364979697
3876.4,0.21000747558934113
3877.3,0.21293879089083956
3878.2,0.2123546941115563
3879.1,0.2126268935008971
3880.0,0.21240758533471055
3880.9,0.21489837229124645
3881.8,0.21676638735711695
3882.7,0.22041057453210464
3883.6,0.22312745631810635
3884.5,0.22333907919935142
3885.4,0.2213858659969585
3886.3,0.21881928795873287
3887.2,0.21615096926453045
3888.1,0.2155593986429129
3889.0,0.21824999254784283
3889.9,0.22657644331021215
3890.8,0.23870272889619856
3891.7,0.25456161713530023
3892.6,0.2693616592047938
3893.5,0.2834403885754904
3894.4,0.2919618866731477
3895.3,0.2989598603110109
3896.2,0.30536150751464214
3897.1,0.31042597422934953
3898.0,0.31685208263084025
3898.9,0.3229046533682179
3899.8,0.3249367361695844
3900.7,0.32865330904781437
3901.6,0.3332066594601493
3902.51,0.3351706154613901
3903.41,0.33423931185568945
3904.31,0.3337282018467541
3905.21,0.33474317121851016
3906.11,0.33805964914022707
3907.01,0.3460184909762088
3907.91,0.35913807982402424
3908.81,0.375026117140017
3909.71,0.3917338594717225
3910.61,0.4074056903548726
3911.51,0.4205059986746665
3912.41,0.4344807795817961
3913.31,0.4382586596871056
3914.21,0.44234345496802563
3915.11,0.4432461608807522
3916.01,0.43948229597257316
3916.91,0.43622403869189974
3917.81,0.4290974277939813
3918.71,0.42238345307550323
3919.61,0.4122965040166467
3920.51,0.40325861679823816
3921.41,0.3949644674850578
3922.31,0.3896694521848134
3923.21,0.38741824203761466
3924.11,0.3853549460109307
3925.01,0.3812350137965048
3925.91,0.3716364269030529
3926.81,0.3560348451950996
3927.71,0.33181397129366214
3928.61,0.3012486365836419
3929.51,0.2700906127940068
3930.41,0.23748026232899666
3931.31,0.20681205567833488
3932.21,0.18041997905051355
3933.11,0.1607022612252441
3934.01,0.15033511463152593
3934.91,0.1510150835415584
3935.81,0.16201528090786702
3936.71,0.18409556057546175
3937.61,0.21570304380086489
3938.51,0.25274012696085174
3939.42,0.29132715399077325
3940.32,0.32832608827217785
3941.22,0.3597303413360988
3942.12,0.38706759506202426
3943.02,0.4083803815653031
3943.92,0.4290616249113054
3944.82,0.45008294301074075
3945.72,0.47409084861956047
3946.62,0.500128636600977
3947.52,0.5237955803845132
3948.42,0.5477355306818935
3949.32,0.5686422866199335
3950.22,0.5860984983712814
3951.12,0.6014894489469301
3952.02,0.6138330036530972
3952.92,0.6269754938294034
3953.82,0.6333746565944259
3954.72,0.6384805435063825
3955.62,0.6386619625353941
3956.52,0.6411881216351356
3957.42,0.6364652809756668
3958.32,0.6297508759237528
3959.22,0.6178908718626002
3960.12,0.5975383033527559
3961.02,0.5702989023261914
3961.92,0.5333405667059081
3962.82,0.495156877561696
3963.72,0.4537670626176085
3964.62,0.4133118899824606
3965.52,0.3693403345710984
3966.42,0.3289782703613319
3967.32,0.2907810828841653
3968.22,0.25889183145441014
3969.12,0.24168687625029014
3970.02,0.2409029231581868
3970.92,0.25752915050078096
3971.82,0.29261119646661493
3972.72,0.3370512369102365
3973.62,0.39113633879247667
3974.52,0.447452556234286
3975.42,0.5055082821754944
3976.32,0.5609600345066433
3977.22,0.6120884758601983
3978.13,0.6651130082773865
3979.03,0.7083569513771674
3979.93,0.744856381725865
3980.83,0.7706140090026673
3981.73,0.7892895927705939
3982.63,0.8002089256391561
3983.53,0.8174370676035329
3984.43,0.8224113753986935
3985.33,0.8356807043354256
3986.23,0.8455583422142746
3987.13,0.861546191422396
3988.03,0.874065840656398
3988.93,0.8867064678896716
3989.83,0.901081479470959
3990.73,0.9162582375812455
3991.63,0.9197263537378948
3992.53,0.9313991205829686
3993.43,0.9378767688968667
3994.33,0.9331220310082472
3995.23,0.9292847281935814
3996.13,0.9216494995557876
3997.03,0.9184967910088832
3997.93,0.9122258642174716
3998.83,0.924384956740468
3999.73,0.9350650502731352
4000.63,0.953523296900126
4001.53,0.9695466447600685
4002.43,0.9783315174095961
4003.33,0.9797711500366987
4004.23,0.9686799080380479
4005.13,0.9540665716211636
4006.03,0.9429020271532922
4006.93,0.9380006820178327
4007.83,0.9423297879266395
4008.73,0.956835589951672
4009.63,0.9755900049032181
4010.53,0.9969188565979529
4011.43,1.0135170612778166
4012.33,1.0222017596905097
4013.23,1.0287258188511337
4014.13,1.0304055423730167
4015.03,1.0403498867133678
4015.93,1.0351428607896414
4016.84,1.040047888734503
4017.74,1.039734532910365
4018.64,1.0373849293344088
4019.54,1.0445283503956957
4020.44,1.0451131410054015
4021.34,1.048123902978028
4022.24,1.0464820708935259
4023.14,1.046205977381235
4024.04,1.0463771794468326
4024.94,1.0465719045227968
4025.84,1.0539503531396792
4026.74,1.0605766936046113
4027.64,1.0623390025477881
4028.54,1.061222517657714
4029.44,1.050210196434538
4030.34,1.0259024718806895
4031.24,0.9954645033972512
4032.14,0.9671949174954455
4033.04,0.9469073318676973
4033.94,0.9468574431356415
4034.84,0.9522301209639713
4035.74,0.9816457370789453
4036.64,1.015049574951406
4037.54,1.0417504400463162
4038.44,1.0745580495225149
4039.34,1.0853902842937406
4040.24,1.08876325087906
4041.14,1.0801647771219198
4042.04,1.064061708519168
4042.94,1.031995353151657
4043.84,0.9952103966903263
4044.74,0.9600635953701263
4045.64,0.9279646339426093
4046.54,0.9158869987259064
4047.44,0.9237277236471747
4048.34,0.9427281493269958
4049.24,0.9804614205131899
4050.14,1.0107533873515973
4051.04,1.0412009109964335
4051.94,1.0516638580518063
4052.84,1.052771317784576
4053.74,1.042651238051302
4054.65,1.029792753768475
4055.55,1.014009624609808
4056.45,1.0026432898101747
4057.35,0.9934490343266942
4058.25,0.9868422699412728
4059.15,0.9872831803095098
4060.05,0.9845082980231445
4060.95,0.9838895398226757
4061.85,0.9744246922494075
4062.75,0.9623953088841753
4063.65,0.9394680809627713
4064.55,0.9245579837719163
4065.45,0.9250717237736235
4066.35,0.930017979688646
4067.25,0.9436822261172253
4068.15,0.963897939185289
4069.05,0.9847706901561826
4069.95,0.9916485170035518
4070.85,0.9905035617449011
4071.75,0.9864621734539644
4072.65,0.9789110516602956
4073.55,0.97151053441782
4074.45,0.9693538102472238
4075.35,0.9583987079949169
4076.25,0.9462258354872624
4077.15,0.9288560703880071
4078.05,0.9221510582350572
4078.95,0.9267034820630402
4079.85,0.9435828156837791
4080.75,0.9683798263154019
4081.65,0.9887651853242795
4082.55,1.0096708832190338
4083.45,1.0217396922563633
4084.35,1.0261529618828118
4085.25,1.0293382254915835
4086.15,1.0432229531716979
4087.05,1.0567538521642825
4087.95,1.0765317435812036
4088.85,1.0940452671439473
4089.75,1.1069217700870302
4090.65,1.1135423857856201
4091.55,1.1113426857590978
4092.45,1.1002734246592711
4093.36,1.0870526632586515
4094.26,1.0713623068526712
4095.16,1.0500190000969463
4096.06,1.0256704849481675
4096.96,1.002039063157792
4097.86,0.9754758181564925
4098.76,0.9439613402997975
4099.66,0.9084479404869633
4100.56,0.8822895046244641
4101.46,0.8536788244453508
4102.36,0.8395874704802736
4103.26,0.8408648043359139
4104.16,0.8556020654202313
4105.06,0.8918443282372241
4105.96,0.9215410662996415
4106.86,0.9514191385689593
4107.76,0.9763781127420721
4108.66,0.9962256970608233
4109.56,0.9962182108841285
4110.46,1.0050696807109691
4111.36,1.0080301053351535
4112.26,1.0128083664974252
4113.16,1.0203394626635676
4114.06,1.0320920201577315
4114.96,1.0458546625138532
4115.86,1.0492573649484698
4116.76,1.0523365487902725
4117.66,1.0436031761910178
4118.56,1.0353567730007294
4119.46,1.0322696578340644
4120.36,1.0292649005124075
4121.26,1.0188700668480075
4122.16,1.0187661733337663
4123.06,1.0186087597574462
4123.96,1.025730605908751
4124.86,1.0320624161540812
4125.76,1.0295434369730716
4126.66,1.0320347640583456
4127.56,1.0234841124716407
4128.46,1.0166149987407465
4129.36,1.0029053279470574
4130.26,0.9869510070122319
4131.17,0.9714127473679238
4132.06,0.9551635044967911
4132.97,0.9472441323524411
4133.87,0.945194037994296
4134.77,0.9509379569523372
4135.67,0.9692618835198427
4136.57,0.9915842174006008
4137.47,1.015511177676391
4138.37,1.0385169255576958
4139.27,1.0419870218598914
4140.17,1.0466664820613099
4141.07,1.029686594313408
4141.97,1.0087313300724559
4142.87,0.9810746377977225
4143.77,0.9594128279619747
4144.67,0.9462710320588477
4145.57,0.9474336361156905
4146.47,0.9583141896146007
4147.37,0.9748587772402738
4148.27,0.9844348761390723
4149.17,0.9988780890598251
4150.07,1.0071504763315757
4150.97,1.0025322502514118
4151.87,0.9981238048945924
4152.77,0.9914635117220394
4153.67,0.9856770551095969
4154.57,0.9810974499479138
4155.47,0.9793888044446782
4156.37,0.9818838170160985
4157.27,0.9886508449245839
4158.17,1.0012904054297873
4159.07,1.0151439908951225
4159.97,1.0304786936514307
4160.87,1.043364588515869
4161.77,1.0581323326099161
4162.67,1.0694504490761905
4163.57,1.0663136103934436
4164.47,1.0697213578496123
4165.37,1.0638668499106239
4166.27,1.0534137089248097
4167.17,1.046969015896297
4168.07,1.034920261599079
4168.98,1.0193360497878496
4169.88,1.0180456217365175
4170.78,0.9967784691334269
4171.68,0.9794499560993618
4172.58,0.9623181434513144
4173.48,0.9486604724043656
4174.38,0.9416256310744868
4175.28,0.9370694804220088
4176.18,0.9412227270982886
4177.08,0.9541612950610868
4177.98,0.9673835940968938
4178.88,0.9816943115210884
4179.78,0.9896498632504389
4180.68,0.9954027984530543
4181.58,1.0057974161490795
4182.48,1.004654951133032
4183.38,1.008891465624011
4184.28,1.010514972119863
4185.18,1.0095220234390563
4186.08,1.003219105939816
4186.98,0.9992703937770824
4187.88,0.9998997304389612
4188.78,0.9948760117212525
4189.68,1.0030576384651175
4190.58,1.004036935547275
4191.48,1.0154730523187045
4192.38,1.0307002873552933
4193.28,1.035954304047319
4194.18,1.0333146932932655
4195.08,1.0345256475620561
4195.98,1.0166794496246963
4196.88,1.0011180496759675
4197.78,0.9763431025239512
4198.68,0.9633235203247036
4199.58,0.9513083511759737
4200.48,0.9436187673580327
4201.38,0.9401923886402033
4202.28,0.9479515189234188
4203.18,0.9588387143765872
4204.08,0.9714324677353322
4204.98,0.9934762367598352
4205.88,1.0127544032798899
4206.79,1.028860740870712
4207.69,1.0474235064830386
4208.59,1.0626008419332011
4209.49,1.0743875318594809
4210.39,1.0772635313289398
4211.29,1.0797994642523114
4212.19,1.0748384850253148
4213.09,1.0703479523305877
4213.99,1.060802543263078
4214.89,1.0513139433475454
4215.79,1.0416088862673212
4216.69,1.0349655474249024
4217.59,1.0454649725052088
4218.49,1.0537137829640224
4219.39,1.0677791406415076
4220.29,1.0791152445244308
4221.19,1.079845982848083
4222.09,1.0629729262297343
4222.99,1.0475875682060243
4223.89,1.002781711246944
4224.79,0.9470320608613026
4225.69,0.9018644227450464
4226.59,0.8600183721822799
4227.49,0.8462110226137549
4228.39,0.8599259865084168
4229.29,0.8902022946285834
4230.19,0.930529392035911
4231.09,0.97672371381988
4231.99,1.014072439910709
4232.89,1.0297692329921562
4233.79,1.0333567819430973
4234.69,1.0303988439390799
4235.59,1.017789606529583
4236.49,1.0159797906562047
4237.39,1.0143674385008103
4238.29,1.0120564914315613
4239.19,1.0186304746100845
4240.09,1.0286478711673168
4240.99,1.0448022773290224
4241.89,1.0624744877069954
4242.79,1.0756595393430097
4243.69,1.0928457312517788
4244.59,1.0945600959718698
4245.5,1.0992379268853643
4246.4,1.092365501949679
4247.3,1.0688242373530603
4248.2,1.0545934429123294
4249.1,1.0310131226008377
4250.0,1.0148810597286149
4250.9,1.0039885296313908
4251.8,1.0028346752481108
4252.7,1.0056817235895057
4253.6,1.0119087277769083
4254.5,1.0154272500734274
4255.4,1.0222568814669095
4256.3,1.029837403242291
4257.2,1.0291701456646007
4258.1,1.0304286803201945
4259.0,1.0244059700229344
4259.9,1.019408487083904
4260.8,1.0104514099391089
4261.7,1.0133210128363745
4262.6,1.0312725869687285
4263.5,1.049003591217346
4264.4,1.0773843246901271
4265.3,1.097579984492104
4266.2,1.1096594517333744
4267.1,1.1037226475696478
4268.0,1.0947949369412189
4268.9,1.0619715025516614
4269.8,1.0296925778036599
4270.7,0.9939450167158664
4271.6,0.9586761097465877
4272.5,0.9256165499196762
4273.4,0.913101222456678
4274.3,0.9140655797266887
4275.2,0.9275352652453172
4276.1,0.9555774127543586
4277.0,0.9844249021580531
4277.9,1.0147671723594986
4278.8,1.0374109890520433
4279.7,1.0473858513678989
4280.6,1.0482921339542015
4281.5,1.0450394502125662
4282.4,1.042463500877904
4283.31,1.030760902477022
4284.21,1.0275393392819114
4285.11,1.018718160228551
4286.01,1.0096809235154043
4286.91,0.9842321757941679
4287.81,0.9704993993223944
4288.71,0.9491181972452597
4289.61,0.9362755259132226
4290.51,0.9263881911617234
4291.41,0.9268811747244231
4292.31,0.9371219912951395
4293.21,0.9412235415196736
4294.11,0.9550600764652936
4295.01,0.9578847167012947
4295.91,0.9522519575562711
4296.81,0.9320716155904454
4297.71,0.9025079783654838
4298.61,0.8610429290756814
4299.51,0.825636385379854
4300.41,0.7934054403543433
4301.31,0.7695435791229411
4302.21,0.7565654006770918
4303.11,0.7488512482898402
4304.01,0.7511006828692286
4304.91,0.74569608023016
4305.81,0.7447184315590902
4306.71,0.7397115207655782
4307.61,0.7276210573004768
4308.51,0.7230191283720989
4309.41,0.7198404641933283
4310.31,0.7280667856328046
4311.21,0.7531698877889154
4312.11,0.7822922950990953
4313.01,0.8266050381269482
4313.91,0.8874921309033312
4314.81,0.9509063109209509
4315.71,1.016027308708207
4316.61,1.0750131574164858
4317.51,1.128754040455607
4318.41,1.1704512943639473
4319.31,1.184303166974515
4320.21,1.1824986824762664
4321.12,1.1678246036966076
4322.02,1.1325477927283722
4322.92,1.0843669285125326
4323.82,1.0365971918731256
4324.72,0.9916509574268638
4325.62,0.9681941401465458
4326.52,0.9545312891439994
4327.42,0.9715393567887789
4328.32,1.0021781131478547
4329.22,1.0404723054445626
4330.12,1.085331944001955
4331.02,1.1171791681488308
4331.92,1.1333295643148618
4332.82,1.1476386134832108
4333.72,1.1556031036295036
4334.62,1.1441305698065092
4335.52,1.129758182456704
4336.42,1.1027164792166362
4337.32,1.0604752241629718
4338.22,1.0093508811795329
4339.12,0.9634682796865501
4340.02,0.926165707932844
4340.92,0.9060861073481677
4341.82,0.9012008953858552
4342.72,0.9192557278718873
4343.62,0.948646057393335
4344.52,0.9875646748620516
4345.42,1.0245482538647106
4346.32,1.0594720753816755
4347.22,1.0766450985679332
4348.12,1.0923318271521045
4349.02,1.0975063714158515
4349.92,1.091689592834706
4350.82,1.071489634960342
4351.72,1.053207215172076
4352.62,1.0361250550262753
4353.52,1.0321163625947194
4354.42,1.026883312137561
4355.32,1.0387789267182932
4356.22,1.0472251797569094
4357.12,1.0646920316219888
4358.02,1.0723552130527227
4358.92,1.0866470933300472
4359.83,1.0903864335078715
4360.73,1.0997415743267014
4361.63,1.105681604312213
4362.53,1.110385540233357
4363.43,1.1267042093612802
