wave,flux
3700.85,-0.004553355706301809
3701.75,-0.004561236931841047
3702.65,-0.0044801784766356646
3703.55,-0.004368066765206861
3704.45,-0.004208451681261142
3705.35,-0.004068493140049653
3706.25,-0.004022691993989151
3707.15,-0.004037764808545152
3708.05,-0.004113201870200407
3708.96,-0.004240817154719307
3709.86,-0.004369092053446868
3710.76,-0.004534627338655855
3711.66,-0.0047457117855905055
3712.56,-0.004975526332335106
3713.46,-0.005237441048875497
3714.36,-0.005525985355763813
3715.26,-0.005745016690084398
3716.16,-0.005894927297210554
3717.06,-0.0058988589760487434
3717.96,-0.005827434500705639
3718.86,-0.005638899743099624
3719.76,-0.005368053558366348
3720.66,-0.005077068775877575
3721.56,-0.004896361011202472
3722.46,-0.004884929535824142
3723.36,-0.005064710661106673
3724.26,-0.005385414154809207
3725.16,-0.005765864276795334
3726.06,-0.006176922402251245
3726.96,-0.006445347453129058
3727.86,-0.006624177253387371
3728.76,-0.006750514314149249
3729.66,-0.006791170485739193
3730.56,-0.006764716951417761
3731.46,-0.006621841658700376
3732.36,-0.006369346402909769
3733.26,-0.00602234463344059
3734.16,-0.005675724372312828
3735.06,-0.005418685420760442
3735.96,-0.005409218560667675
3736.86,-0.005593476097664249
3737.76,-0.005997943214195395
3738.66,-0.0065571857734195785
3739.56,-0.0072238981950894674
3740.46,-0.007788096381537688
3741.36,-0.00818514201852724
3742.26,-0.008467173874186993
3743.16,-0.008489575090822116
3744.06,-0.008373341802371983
3744.96,-0.008174917963716128
3745.86,-0.007915068008010496
3746.76,-0.007635062903701142
3747.67,-0.007331557535209144
3748.57,-0.007074210198127217
3749.47,-0.006932730829163947
3750.37,-0.007069118530921074
3751.27,-0.007467874547168087
3752.17,-0.008123908163859632
3753.07,-0.008985033460753192
3753.97,-0.0098695527626113
3754.87,-0.010630676980684817
3755.77,-0.01115047527645174
3756.67,-0.011382210575263856
3757.57,-0.011381471896351188
3758.47,-0.01125296828335323
3759.37,-0.011214677501560494
3760.27,-0.01124685376515119
3761.17,-0.011480761774514538
3762.07,-0.011772471809974292
3762.97,-0.012220914484925342
3763.87,-0.012514700274074798
3764.77,-0.012763072276434117
3765.67,-0.012941035389795533
3766.57,-0.012922060434393146
3767.47,-0.012869559223429076
3768.37,-0.01270381387593232
3769.27,-0.012574431432630529
3770.17,-0.012573002395758318
3771.07,-0.01279324182218986
3771.97,-0.013185668859917874
3772.87,-0.013825602308034401
3773.77,-0.014638952002664542
3774.67,-0.015462375753706575
3775.57,-0.016195882142580213
3776.47,-0.01694349877912733
3777.37,-0.01766779035832217
3778.27,-0.018490257938988723
3779.17,-0.01927570949937967
3780.07,-0.020070979272936447
3780.97,-0.020766702788938846
3781.87,-0.021472020624697663
3782.77,-0.022001225099330383
3783.67,-0.022404163811000636
3784.57,-0.022609327181018928
3785.47,-0.022459626601878308
3786.38,-0.02234178037129266
3787.28,-0.021916763830462142
3788.18,-0.02169056664817148
3789.08,-0.021581324872703214
3789.98,-0.02162138195723809
3790.88,-0.02164008116876181
3791.78,-0.021746696204730666
3792.68,-0.02179545736681689
3793.58,-0.021515050569612865
3794.48,-0.02118923904895951
3795.38,-0.020584302018796144
3796.28,-0.01999776261709151
3797.18,-0.01949488096696361
3798.08,-0.019329031198428367
3798.98,-0.01964868414481883
3799.88,-0.020467263585333084
3800.78,-0.02205544271867103
3801.68,-0.02431116501125068
3802.58,-0.026394035161405822
3803.48,-0.028515980557444583
3804.38,-0.030281837958332253
3805.28,-0.031669131483433505
3806.18,-0.032661879020652575
3807.08,-0.03359069431420465
3807.98,-0.034450258338474295
3808.88,-0.0355214567494197
3809.78,-0.03666822915919725
3810.68,-0.03773342941632184
3811.58,-0.03835024561930295
3812.48,-0.038620175575172624
3813.38,-0.038362543485674326
3814.28,-0.038018672109521756
3815.18,-0.03776179690355343
3816.08,-0.038141540901769896
3816.98,-0.03834698742369559
3817.88,-0.03931765382514456
3818.78,-0.040062282446890744
3819.68,-0.04047742629816788
3820.58,-0.04103771433645373
3821.48,-0.04131094340092658
3822.38,-0.04186771153496935
3823.28,-0.041909926347444205
3824.18,-0.04189744069305781
3825.09,-0.04189453903622467
3825.99,-0.041513894740556556
3826.89,-0.04137103704360244
3827.79,-0.041249284387936985
3828.69,-0.041382437128853464
3829.59,-0.041471246884891795
3830.49,-0.04128703208584242
3831.39,-0.04075701813503958
3832.29,-0.03968086164535483
3833.19,-0.03851077114734119
3834.09,-0.03735879967263739
3834.99,-0.03676512680324541
3835.89,-0.03695460139717045
3836.79,-0.037700291283628916
3837.69,-0.03944481617941209
3838.59,-0.04162656528759636
3839.49,-0.044736686926616906
3840.39,-0.04830566865387211
3841.29,-0.052847797482951174
3842.19,-0.057751044691706006
3843.09,-0.06300673013996383
3843.99,-0.06802430815985772
3844.89,-0.07239432874475726
3845.79,-0.0770261656744535
3846.69,-0.08031147833336866
3847.59,-0.08359727919981966
3848.49,-0.0865573654329632
3849.39,-0.08936852498855476
3850.29,-0.09179599909301793
3851.19,-0.09473329673473672
3852.09,-0.09736668842817905
3852.99,-0.10030755801344786
3853.89,-0.10325235238158166
3854.79,-0.10474537111677178
3855.69,-0.10622195044594265
3856.59,-0.10748579320230028
3857.49,-0.1079681644487798
3858.39,-0.10892741470682761
3859.29,-0.11029701466699943
3860.19,-0.11261037845784252
3861.09,-0.11708498610467424
3861.99,-0.1222883865409537
3862.9,-0.12885146146828746
3863.8,-0.13588578958185846
3864.7,-0.1420784116074908
3865.6,-0.14713846262406047
3866.5,-0.15101933460614603
3867.4,-0.15502420905677844
3868.3,-0.15784761730481317
3869.2,-0.16144471553057005
3870.1,-0.16244090909639375
3871.0,-0.1638838021400447
3871.9,-0.16518723458476048
3872.8,-0.16652085231544306
3873.7,-0.1700854274437404
3874.6,-0.17520243506179303
3875.5,-0.18103600528994349
3876.4,-0.18701117957706012
3877.3,-0.19127161650550886
3878.2,-0.19500439086882423
3879.1,-0.19864607380896945
3880.0,-0.2032455032950488
3880.9,-0.20770847336107717
3881.8,-0.2130861808448776
3882.7,-0.21786762557034647
3883.6,-0.22057521779989847
3884.5,-0.2223439529552447
3885.4,-0.2217216356526957
3886.3,-0.21761075987758585
3887.2,-0.2156613729368202
3888.1,-0.21237480090071537
3889.0,-0.2152131746085573
3889.9,-0.22258228669106284
3890.8,-0.2367616523660486
3891.7,-0.258455511803899
3892.6,-0.2824101056782566
3893.5,-0.30592311157422963
3894.4,-0.3306062732289688
3895.3,-0.3551278026066815
3896.2,-0.37888272719941435
3897.1,-0.4013999725199398
3898.0,-0.4263474273668874
3898.9,-0.44986615676995406
3899.8,-0.47760202083237785
3900.7,-0.5020073806715438
3901.6,-0.5307602404977705
3902.51,-0.5584842246015724
3903.41,-0.5849121859580806
3904.31,-0.6092615114553409
3905.21,-0.6383971170366441
3906.11,-0.6735196572046288
3907.01,-0.7152652728139979
3907.91,-0.7663419378664614
3908.81,-0.8286736824868823
3909.71,-0.9026762081073278
3910.61,-0.9804526877582324
3911.51,-1.0616414280290392
3912.41,-1.1425884127622752
3913.31,-1.2260404251200856
3914.21,-1.3112995319085288
3915.11,-1.403875951964133
3916.01,-1.5024039666953835
3916.91,-1.616870784886382
3917.81,-1.7372503546032385
3918.71,-1.8892040475773768
3919.61,-2.068114685272324
3920.51,-2.2696673945896757
3921.41,-2.5538274856459133
3922.31,-2.902796881697823
3923.21,-3.363035655608119
3924.11,-4.004219886470773
3925.01,-4.858687550734585
3925.91,-6.18324752957907
3926.81,-8.4276267654897
3927.71,-13.478576345204056
3928.61,-39.81409870653638
3929.51,31.627967549685525
3930.41,9.974430655232371
3931.31,5.343312487903916
3932.21,3.3776597312804753
3933.11,2.3491830909771223
3934.01,1.7931531188122498
3934.91,1.5092171751391148
3935.81,1.4090624980761055
3936.71,1.4228183671417678
3937.61,1.4750520091842512
3938.51,1.5590394801834195
3939.42,1.6341408790723644
3940.32,1.6740926964897
3941.22,1.699328366739407
3942.12,1.690762726073461
3943.02,1.6724451361400834
3943.92,1.6329466759618803
3944.82,1.5976839067243664
3945.72,1.5641725920978558
3946.62,1.542906054883322
3947.52,1.5227448799165455
3948.42,1.4919239889363254
3949.32,1.4696967948138595
3950.22,1.4354601103463838
3951.12,1.4087330642982456
3952.02,1.3815199768664026
3952.92,1.3504032216437973
3953.82,1.3175714780359469
3954.72,1.2849652397868183
3955.62,1.2574554350710478
3956.52,1.2228948286737773
3957.42,1.1873710203463514
3958.32,1.1531236846284334
3959.22,1.1100735741569259
3960.12,1.065406496208834
3961.02,1.0055846990775694
3961.92,0.9421507061853638
3962.82,0.8731261355984288
3963.72,0.8001285975443857
3964.62,0.7227544295805185
3965.52,0.6423463820287011
3966.42,0.5643365986384716
3967.32,0.49229936286540404
3968.22,0.4283389576082981
3969.12,0.3883963579627705
3970.02,0.37231617791788585
3970.92,0.386258916911487
3971.82,0.42303735898785033
3972.72,0.4759521989233376
3973.62,0.5408650235666279
3974.52,0.6064801901923509
3975.42,0.6656539439045003
3976.32,0.7226166568755932
3977.22,0.7748107292391804
3978.13,0.816256678975049
3979.03,0.8553266886289355
3979.93,0.8863430005255482
3980.83,0.9034439763199004
3981.73,0.9184355178580298
3982.63,0.9213782539215858
3983.53,0.9240214337891157
3984.43,0.9322449386475287
3985.33,0.9365556655539472
3986.23,0.9399381755379299
3987.13,0.9519532087693829
3988.03,0.9556355848091819
3988.93,0.9650464518896297
3989.83,0.969119489669432
3990.73,0.9749490667528536
3991.63,0.9865675569526164
3992.53,0.9889543251400557
3993.43,0.9870148153638404
3994.33,0.9808698551781357
3995.23,0.9755555502606931
3996.13,0.9673307070192132
3997.03,0.9588835027561085
3997.93,0.9533793503898152
3998.83,0.9559061711798795
3999.73,0.9587632607064877
4000.63,0.9759438072430163
4001.53,0.9872625655359218
4002.43,0.9888335515041353
4003.33,0.9874266298178206
4004.23,0.9829150717710288
4005.13,0.9642821631834703
4006.03,0.9535616841635715
4006.93,0.9522905903707122
4007.83,0.9559065025717056
4008.73,0.9606873250253424
4009.63,0.9791957083527809
4010.53,0.9921778626391997
4011.43,0.9957222845219048
4012.33,1.0079107047156537
4013.23,1.0076804075922123
4014.13,1.0114998928308903
4015.03,1.0111679171697432
4015.93,1.0133197436800219
4016.84,1.0162385133971583
4017.74,1.011505954218003
4018.64,1.0195797324716105
4019.54,1.0198186665421
4020.44,1.0258029773984385
4021.34,1.0223655372447524
4022.24,1.024892361956112
4023.14,1.0275685525291713
4024.04,1.0305046881215234
4024.94,1.0259855162273948
4025.84,1.0295668611839015
4026.74,1.0351654321609414
4027.64,1.0366659476946716
4028.54,1.039019080951813
4029.44,1.0248500600741826
4030.34,1.0092374234935688
4031.24,0.9893605909519033
4032.14,0.9683430551708906
4033.04,0.959176926439132
4033.94,0.9597540110491488
4034.84,0.9694372233313991
4035.74,0.9922729684583619
4036.64,1.011353836932215
4037.54,1.0360497235191601
4038.44,1.0567183998853693
4039.34,1.0674443403386165
4040.24,1.0711080465035385
4041.14,1.0628638327938553
4042.04,1.0515079792334796
4042.94,1.030708332941549
4043.84,1.0100418851475579
4044.74,0.9881328397633523
4045.64,0.9686100056705457
4046.54,0.9658935076937145
4047.44,0.9713876984566062
4048.34,0.986165867715164
4049.24,1.0111949312858144
4050.14,1.0278090787818053
4051.04,1.0435308084180626
4051.94,1.049277130075145
4052.84,1.0500146059655522
4053.74,1.0447607327940103
4054.65,1.0331710680545183
4055.55,1.0181491861701268
4056.45,1.0140421401474542
4057.35,1.0069212194403157
4058.25,1.0038016111010122
4059.15,1.005007016829692
4060.05,1.0128634595357275
4060.95,1.0128648070908757
4061.85,1.0118729211084527
4062.75,1.0005760497965333
4063.65,0.9914418516859143
4064.55,0.9838347099771447
4065.45,0.9779615921051281
4066.35,0.986296122615044
4067.25,0.9919973894387876
4068.15,1.008112277507014
4069.05,1.0171923637572946
4069.95,1.0210100969466223
4070.85,1.02554291003173
4071.75,1.0219540724337541
4072.65,1.0188716173601573
4073.55,1.0123433818141656
4074.45,1.0012246921985382
4075.35,0.9961651917124436
4076.25,0.980525858949431
4077.15,0.958759459135798
4078.05,0.9555612076539575
4078.95,0.9511341572932478
4079.85,0.9609369304819045
4080.75,0.9790732198695685
4081.65,0.9973095124248059
4082.55,1.0108411498278693
4083.45,1.02280159704102
4084.35,1.0272649976249777
4085.25,1.0261075247044333
4086.15,1.0332586873310963
4087.05,1.037922102994828
4087.95,1.0544602546036599
4088.85,1.0624731505239957
4089.75,1.0687074452222465
4090.65,1.0707391906322596
4091.55,1.0647981142272267
4092.45,1.0614479449588607
4093.36,1.0413976365155855
4094.26,1.021454469548921
4095.16,1.0019148105356968
4096.06,0.9811126558608347
4096.96,0.9513076502062142
4097.86,0.9147211347096152
4098.76,0.8802166836341423
4099.66,0.842454014589545
4100.56,0.8031489170923384
4101.46,0.7702415932968253
4102.36,0.7528716773189426
4103.26,0.7576358252289078
4104.16,0.7731894837224401
4105.06,0.8042141456884729
4105.96,0.8458443559783212
4106.86,0.880903111477279
4107.76,0.9130841907298433
4108.66,0.9381814930658988
4109.56,0.9574290214954538
4110.46,0.9650616404592235
4111.36,0.9743823449168018
4112.26,0.9871637977906336
4113.16,1.0028769503919333
4114.06,1.0142351737809296
4114.96,1.0253026783226267
4115.86,1.037329688153456
4116.76,1.0424947053391425
4117.66,1.0371584195752575
4118.56,1.0367575531919846
4119.46,1.0286558227659406
4120.36,1.0245833250383052
4121.26,1.0168232392403456
4122.16,1.019258502893145
4123.06,1.0196549311979446
4123.96,1.0309515670686227
4124.86,1.028060962471342
4125.76,1.0346212178241825
4126.66,1.0292002157930975
4127.56,1.0292127657956862
4128.46,1.0183654143445096
4129.36,1.0173883692865515
4130.26,1.0084004116397527
4131.17,1.000426496731949
4132.06,0.9901321143875783
4132.97,0.9831390903419849
4133.87,0.9837052372144268
4134.77,0.9902861676471497
4135.67,1.000809067417945
4136.57,1.0143721106277463
4137.47,1.0365077647808192
4138.37,1.0517679870298597
4139.27,1.061685150454064
4140.17,1.0630909161428812
4141.07,1.0533122899121725
4141.97,1.0434573687303683
4142.87,1.0209001077239555
4143.77,1.0068767887158778
4144.67,0.9969108024011731
4145.57,0.9930520471504988
4146.47,1.000776564633088
4147.37,1.012600431183445
4148.27,1.0229914637330992
4149.17,1.028902548955449
4150.07,1.0270861346426143
4150.97,1.0254108532797757
4151.87,1.0222081365571576
4152.77,1.0151894583893801
4153.67,1.0084053208694512
4154.57,1.0082308659521848
4155.47,0.9983372533521091
4156.37,1.0010225981818746
4157.27,1.0045129576713472
4158.17,1.0129093913880927
4159.07,1.0190446969043545
4159.97,1.033318411296582
4160.87,1.0417179423019371
4161.77,1.0544612592482818
4162.67,1.0592776183985115
4163.57,1.0619744967042581
4164.47,1.0575090076273457
4165.37,1.0579667321919348
4166.27,1.0553384063474582
4167.17,1.0479453377017316
4168.07,1.03683221488675
4168.98,1.0299068667378186
4169.88,1.0205692914454607
4170.78,1.0051960602649874
4171.68,0.9898184315363087
4172.58,0.9754956927933276
4173.48,0.9611455413551027
4174.38,0.9537825651462848
4175.28,0.9551902303657227
4176.18,0.9535181614033557
4177.08,0.9617570564957715
4177.98,0.9716991190876474
4178.88,0.9817376328846318
4179.78,0.9904599935693075
4180.68,0.9928894261611432
4181.58,0.998721110528323
4182.48,1.0043633459805876
4183.38,1.0059195902732698
4184.28,1.0065391020895922
4185.18,1.0054298132727244
4186.08,1.0036056076072848
4186.98,1.0032683156787445
4187.88,1.0026983168550494
4188.78,0.9996973341017187
4189.68,1.0034434433408097
4190.58,1.0085864730652927
4191.48,1.0169102292448382
4192.38,1.026501062621078
4193.28,1.033813272595809
4194.18,1.0320682270861827
4195.08,1.0272954265424095
4195.98,1.014279671125808
4196.88,1.0011638408194303
4197.78,0.9833022359341522
4198.68,0.9729127950751704
4199.58,0.967993693087847
4200.48,0.9618943676984202
4201.38,0.9575214288961369
4202.28,0.9641498392639584
4203.18,0.9677271138134843
4204.08,0.9790275640862081
4204.98,0.9891284991093263
4205.88,0.9989799611610033
4206.79,1.0084051909594423
4207.69,1.0231984485247827
4208.59,1.0332229384289138
4209.49,1.0441439596665971
4210.39,1.0454844366747553
4211.29,1.0502548417747508
4212.19,1.048593448052086
4213.09,1.0459921162651509
4213.99,1.037637036221198
4214.89,1.0296848123037594
4215.79,1.0195516623771619
4216.69,1.016072983565249
4217.59,1.0167342590696948
4218.49,1.0255846644394668
4219.39,1.0336546538940659
4220.29,1.0444801849861594
4221.19,1.0486829833459443
4222.09,1.0398574618344418
4222.99,1.0238818155536618
4223.89,0.9987990034348789
4224.79,0.9627158760266776
4225.69,0.931359064051795
4226.59,0.9075928044083666
4227.49,0.9035788713276259
4228.39,0.9113105429631757
4229.29,0.930064706993726
4230.19,0.959253791320111
4231.09,0.9848070365787597
4231.99,1.0139201736787116
4232.89,1.0206282413751973
4233.79,1.0273690236546855
4234.69,1.020167329754871
4235.59,1.0122090599449995
4236.49,1.0012409327823053
4237.39,0.9988034400414235
4238.29,0.9992886509972009
4239.19,1.0036827767490326
4240.09,1.0121885167594693
4240.99,1.0221358825347986
4241.89,1.035177606745767
4242.79,1.0399009650976625
4243.69,1.0517632842459488
4244.59,1.0557015212013656
4245.5,1.0510360268703132
4246.4,1.0446618897942375
4247.3,1.0346344513848864
4248.2,1.0226274284013899
4249.1,1.0114848771299783
4250.0,1.0060742093155326
4250.9,1.0038930055158037
4251.8,1.009477317927234
4252.7,1.0123266657593915
4253.6,1.0253172402232025
4254.5,1.0233220534782177
4255.4,1.0273781157948143
4256.3,1.0324265417155987
4257.2,1.0370518800401314
4258.1,1.0324224349365818
4259.0,1.0249925585517434
4259.9,1.0231924417758749
4260.8,1.0143952506192606
4261.7,1.0191080615400345
4262.6,1.0263519290732688
4263.5,1.0413514141634028
4264.4,1.0607239834644102
4265.3,1.0788471262562793
4266.2,1.0810999829834247
4267.1,1.0829437925986272
4268.0,1.06975009531847
4268.9,1.0545448170129093
4269.8,1.0319086817192407
4270.7,1.0087040246900965
4271.6,0.986584960970524
4272.5,0.9701839423743899
4273.4,0.957033966191772
4274.3,0.9603156221368516
4275.2,0.9721630927930999
4276.1,0.989494962726599
4277.0,1.0126148374196766
4277.9,1.0300130338064735
4278.8,1.037696465153896
4279.7,1.0502992628857877
4280.6,1.0525363974658952
4281.5,1.045720756438147
4282.4,1.0413078713750912
4283.31,1.034834914500357
4284.21,1.026519926670062
4285.11,1.0193770680182832
4286.01,1.0078376839762895
4286.91,0.9996142335336589
4287.81,0.9818487512098885
4288.71,0.9686576573808964
4289.61,0.956431455410943
4290.51,0.9548707453167328
4291.41,0.9477857512490595
4292.31,0.954509873552127
4293.21,0.9658295185960527
4294.11,0.9771225670333966
4295.01,0.9769823829545976
4295.91,0.9723187141433215
4296.81,0.9608590439421238
4297.71,0.9398475396052994
4298.61,0.9083186219890667
4299.51,0.8872435468701878
4300.41,0.859774840187648
4301.31,0.8415072113858763
4302.21,0.8346013621657529
4303.11,0.8301383813797263
4304.01,0.8318143129659324
4304.91,0.8341221580789522
4305.81,0.8338957005306623
4306.71,0.8328996780312774
4307.61,0.8290700459092593
4308.51,0.8292459392293149
4309.41,0.8253461754108554
4310.31,0.8324800032299664
4311.21,0.8501434036798636
4312.11,0.8694470198313653
4313.01,0.8956305084416808
4313.91,0.9300205403117834
4314.81,0.9636849601705028
4315.71,1.0106047033019552
4316.61,1.047332486399636
4317.51,1.0783483728642225
4318.41,1.1039264188501878
4319.31,1.123239948443343
4320.21,1.1175140188599486
4321.12,1.1055968941813161
4322.02,1.0876099604268992
4322.92,1.0511452456554957
4323.82,1.026694037116397
4324.72,0.9968939337408503
4325.62,0.9749302879209856
4326.52,0.9643327138870397
4327.42,0.9735261272468227
4328.32,0.991749680457443
4329.22,1.0177134329726836
4330.12,1.0382437576402261
4331.02,1.0567529346111024
4331.92,1.0627843495969866
4332.82,1.064767639556324
4333.72,1.058292942665594
4334.62,1.048490907280952
4335.52,1.0262004278072827
4336.42,0.9913239465550304
4337.32,0.9529883609552414
4338.22,0.9010642496811556
4339.12,0.8588449389407327
4340.02,0.8156459628295074
4340.92,0.7954973824186755
4341.82,0.7920332011612974
4342.72,0.8096230642099737
4343.62,0.8388590929663563
4344.52,0.8752384155922058
4345.42,0.9149068472217846
4346.32,0.9561290199501302
4347.22,0.9828240374729197
4348.12,1.006021213039384
4349.02,1.0181054611796165
4349.92,1.0214317863278315
4350.82,1.0157894040736237
4351.72,1.0124700112514777
4352.62,1.0019684338428467
