wave,flux
3700.85,-0.001240988178533178
3701.75,-0.0012468191691507157
3702.65,-0.0012315528719331866
3703.55,-0.0012034800162974732
3704.45,-0.0011743963564189905
3705.35,-0.0011553363918087927
3706.25,-0.0011496873980589733
3707.15,-0.0011694952243859749
3708.05,-0.0011970198386227207
3708.96,-0.001225744334751549
3709.86,-0.0012534932301656134
3710.76,-0.001274167808456481
3711.66,-0.0013077679420761283
3712.56,-0.0013506171838222863
3713.46,-0.0014135790073808044
3714.36,-0.0014797198468604442
3715.26,-0.001552747947582509
3716.16,-0.0016118866834382087
3717.06,-0.0016473892692798404
3717.96,-0.0016469815809769218
3718.86,-0.0016094903397362815
3719.76,-0.0015426685356757799
3720.66,-0.0014715847579647205
3721.56,-0.0014248688965981325
3722.46,-0.001408197638048466
3723.36,-0.0014511542734525927
3724.26,-0.00153496926702466
3725.16,-0.001645273313671449
3726.06,-0.001760372519044795
3726.96,-0.0018595358681234267
3727.86,-0.0019246978248878648
3728.76,-0.001972061594408677
3729.66,-0.0019899452071737407
3730.56,-0.001973148683876183
3731.46,-0.0019091768979861692
3732.36,-0.0018207880081554744
3733.26,-0.0017156582926147706
3734.16,-0.0016205185113246014
3735.06,-0.0015745543712744705
3735.96,-0.0015956435490726633
3736.86,-0.0016680311812809268
3737.76,-0.0018100685913877209
3738.66,-0.001994736532205629
3739.56,-0.002194381148307564
3740.46,-0.002364007366493058
3741.36,-0.00250261145922792
3742.26,-0.002574275882890668
3743.16,-0.0025897325113333914
3744.06,-0.0025724738339908504
3744.96,-0.0025151788821679826
3745.86,-0.0024395076634962506
3746.76,-0.0023244773906482704
3747.67,-0.0022037441867084747
3748.57,-0.002097058971924596
3749.47,-0.0020211836191256784
3750.37,-0.0020081830064325
3751.27,-0.002091339912151808
3752.17,-0.002271915877169336
3753.07,-0.0024996428622445182
3753.97,-0.0027576450073345613
3754.87,-0.0030007507843270854
3755.77,-0.003190253162087343
3756.67,-0.0033427002620232842
3757.57,-0.0034192607267985926
3758.47,-0.003479285247569491
3759.37,-0.003501400491627584
3760.27,-0.0035492600723175728
3761.17,-0.0036200400583506027
3762.07,-0.0037213273268203403
3762.97,-0.0037812751019183914
3763.87,-0.003828819263531996
3764.77,-0.0038450575501678894
3765.67,-0.0038285174235758667
3766.57,-0.00372746111053007
3767.47,-0.0036351586736922577
3768.37,-0.0034747212414094645
3769.27,-0.003361907075619112
3770.17,-0.003266147658057585
3771.07,-0.003258386924560426
3771.97,-0.003347879730479046
3772.87,-0.003543002949866
3773.77,-0.003781702766260929
3774.67,-0.004076719336181382
3775.57,-0.004410274487766717
3776.47,-0.004713199930393634
3777.37,-0.00503790112480052
3778.27,-0.005351779315360454
3779.17,-0.005667127622826103
3780.07,-0.005950554522026482
3780.97,-0.006224592043458223
3781.87,-0.006462181550526841
3782.77,-0.006645261422553331
3783.67,-0.00680286929516439
3784.57,-0.006867984041768448
3785.47,-0.006901294412926212
3786.38,-0.006877608890567462
3787.28,-0.0068328134172220565
3788.18,-0.006733629419270418
3789.08,-0.006672770426957635
3789.98,-0.006586913804896547
3790.88,-0.006557883586313609
3791.78,-0.0064767711030653125
3792.68,-0.006322750250403273
3793.58,-0.006143482063553621
3794.48,-0.005893992128153573
3795.38,-0.00557350423441059
3796.28,-0.00524846368866177
3797.18,-0.005033006916844996
3798.08,-0.004913304746726416
3798.98,-0.00496375275066736
3799.88,-0.0052241842980499656
3800.78,-0.0057073265578364354
3801.68,-0.00634317469120419
3802.58,-0.006984450868489087
3803.48,-0.007643544570780712
3804.38,-0.008275754363256513
3805.28,-0.008794068490364163
3806.18,-0.0092897245438711
3807.08,-0.009673004143949946
3807.98,-0.010135660780835769
3808.88,-0.010595467461217414
3809.78,-0.011057889861235726
3810.68,-0.011437985910354736
3811.58,-0.011755644186311573
3812.48,-0.011964882150743898
3813.38,-0.012057214517171353
3814.28,-0.012174897604594684
3815.18,-0.012299417065514254
3816.08,-0.012412551325703867
3816.98,-0.012737576034800965
3817.88,-0.01302395828033592
3818.78,-0.013336970188564076
3819.68,-0.013532867340294194
3820.58,-0.013687080366551873
3821.48,-0.013723805383489268
3822.38,-0.013745586003848613
3823.28,-0.01378575627339926
3824.18,-0.013659439838151776
3825.09,-0.013583947931631854
3825.99,-0.013354132776189713
3826.89,-0.013146333332490422
3827.79,-0.01303926646720625
3828.69,-0.012803994883588805
3829.59,-0.012566928486563923
3830.49,-0.012273724415236971
3831.39,-0.011824157655134934
3832.29,-0.011293425688519855
3833.19,-0.010681082715322185
3834.09,-0.010154950655143456
3834.99,-0.009793027647002552
3835.89,-0.009625990774356994
3836.79,-0.009870948070329988
3837.69,-0.010394181580877538
3838.59,-0.01124872658570561
3839.49,-0.01231866443858963
3840.39,-0.013669040887211789
3841.29,-0.015062170800494514
3842.19,-0.01652635461496674
3843.09,-0.01803485473374803
3843.99,-0.01946077474451956
3844.89,-0.02082405370113783
3845.79,-0.02208604939169983
3846.69,-0.023289465711068023
3847.59,-0.024444345070955643
3848.49,-0.025548184321177704
3849.39,-0.02660529853000475
3850.29,-0.02760991393343176
3851.19,-0.028763009789870012
3852.09,-0.02968132358972258
3852.99,-0.03076013517659747
3853.89,-0.03169994575246684
3854.79,-0.03262598829069461
3855.69,-0.033236001973765146
3856.59,-0.03389530938288279
3857.49,-0.034336785758875055
3858.39,-0.034866148809971895
3859.29,-0.035779528679577635
3860.19,-0.036724607322704945
3861.09,-0.03781224929771668
3861.99,-0.03915621337462791
3862.9,-0.04067065393470757
3863.8,-0.04184467412017016
3864.7,-0.04301596226650065
3865.6,-0.04413202874337454
3866.5,-0.04516695830357253
3867.4,-0.04623434641904665
3868.3,-0.04730257872235925
3869.2,-0.047947695311535324
3870.1,-0.04880386417564007
3871.0,-0.04932793867006402
3871.9,-0.049726729160289265
3872.8,-0.050175474995836064
3873.7,-0.050797280771671276
3874.6,-0.05144632341769185
3875.5,-0.05211085765872559
3876.4,-0.05255782149359148
3877.3,-0.05285035671860627
3878.2,-0.053044282766071926
3879.1,-0.053081127198690334
3880.0,-0.05312477698416231
3880.9,-0.05339439476518624
3881.8,-0.05341652552737103
3882.7,-0.05326483421467764
3883.6,-0.052488208225994884
3884.5,-0.05117432528290929
3885.4,-0.0496132759530666
3886.3,-0.04727900724225142
3887.2,-0.045286083227003615
3888.1,-0.043463037638495065
3889.0,-0.042706347171499015
3889.9,-0.04326657196864974
3890.8,-0.04568619022108273
3891.7,-0.0493029269767863
3892.6,-0.05441648579295584
3893.5,-0.060077094750886
3894.4,-0.06573517514933136
3895.3,-0.07073797636464152
3896.2,-0.07604273916517974
3897.1,-0.08117846952958463
3898.0,-0.08640194911105592
3898.9,-0.0917254123962541
3899.8,-0.09682507368276748
3900.7,-0.10208195156578789
3901.6,-0.10718668022196581
3902.51,-0.11254482000400697
3903.41,-0.117577406781505
3904.31,-0.12309132017514139
3905.21,-0.1274652976806597
3906.11,-0.13269178251056643
3907.01,-0.1389654865596212
3907.91,-0.14648480695709676
3908.81,-0.15480020891867874
3909.71,-0.16333154350333465
3910.61,-0.1730045694632172
3911.51,-0.1807088572655967
3912.41,-0.18914372856400305
3913.31,-0.1955539250340241
3914.21,-0.20180573435869797
3915.11,-0.2083337371669556
3916.01,-0.21497503840399196
3916.91,-0.2218907247651789
3917.81,-0.22843837669457695
3918.71,-0.23666657610696598
3919.61,-0.24484680925899646
3920.51,-0.2533742264807027
3921.41,-0.2637267884199169
3922.31,-0.27427650104022205
3923.21,-0.28398334599749825
3924.11,-0.29689150332369435
3925.01,-0.3077793838688702
3925.91,-0.3158968154668946
3926.81,-0.3228844758237099
3927.71,-0.3257538220689374
3928.61,-0.32340840346550626
3929.51,-0.3201744762875161
3930.41,-0.3084579832261995
3931.31,-0.29684012842738333
3932.21,-0.2833970142776631
3933.11,-0.27131497561269874
3934.01,-0.2687651942510043
3934.91,-0.2794717242793147
3935.81,-0.3074095704342804
3936.71,-0.35072372367952453
3937.61,-0.40924771341050603
3938.51,-0.4748713771039832
3939.42,-0.5468753928713578
3940.32,-0.6199597090748713
3941.22,-0.6898878702123965
3942.12,-0.7560805853256436
3943.02,-0.8288931920456406
3943.92,-0.9047137202966068
3944.82,-0.9829892387057523
3945.72,-1.0733233270414297
3946.62,-1.1795370262704672
3947.52,-1.2994155753373584
3948.42,-1.4391785549098464
3949.32,-1.5973668577795066
3950.22,-1.7941162564011848
3951.12,-2.0212349665301557
3952.02,-2.3202476363175517
3952.92,-2.700412364675663
3953.82,-3.2027188489859086
3954.72,-3.9436986727457852
3955.62,-5.059401273809063
3956.52,-7.0216926771373265
3957.42,-11.32433604469319
3958.32,-29.779209039220657
3959.22,46.43080866557856
3960.12,12.868651930102052
3961.02,7.365204910027605
3961.92,5.023925980754483
3962.82,3.7170001359205354
3963.72,2.8861139181798094
3964.62,2.2988343093384884
3965.52,1.834924396778306
3966.42,1.487160167813793
3967.32,1.2073019224574708
3968.22,0.9908153483806417
3969.12,0.8365986564414795
3970.02,0.7463000966401749
3970.92,0.7110580584802276
3971.82,0.7112799397643483
3972.72,0.7501536711581018
3973.62,0.7956970842574057
3974.52,0.8506717047593896
3975.42,0.8999014033539882
3976.32,0.9421308679014044
3977.22,0.9787430827509898
3978.13,1.0050207182978748
3979.03,1.0326524576693803
3979.93,1.0436970920042554
3980.83,1.0600402033897172
3981.73,1.0615391977146509
3982.63,1.0576430635677414
3983.53,1.0508370921370591
3984.43,1.04574383054965
3985.33,1.0390831532125235
3986.23,1.0423341690434438
3987.13,1.0414758295404556
3988.03,1.038002138446739
3988.93,1.0414949016893826
3989.83,1.0411763397531144
3990.73,1.0390754836720864
3991.63,1.0415299974116428
3992.53,1.0362555436752916
3993.43,1.0357417782673428
3994.33,1.0300506485833394
3995.23,1.0161548693782523
3996.13,1.0063182066862155
3997.03,0.9929244775982856
3997.93,0.988963242987641
3998.83,0.9831976966185088
3999.73,0.9880349358645881
4000.63,0.9919811351654129
4001.53,0.9974207312886688
4002.43,0.9947636247985451
4003.33,0.992304347007766
4004.23,0.9818322002664845
4005.13,0.9692619569289985
4006.03,0.9625217497761978
4006.93,0.9592106786225228
4007.83,0.9607381079831687
4008.73,0.9680894417661176
4009.63,0.9750358159140865
4010.53,0.9815197450603547
4011.43,0.9879399447597844
4012.33,0.9877007812008013
4013.23,0.9896870944315754
4014.13,0.990813934356507
4015.03,0.9899437376826
4015.93,0.9931352376302716
4016.84,0.9924345222163062
4017.74,0.9945052281213739
4018.64,1.0044949495091828
4019.54,1.003489402385648
4020.44,1.0093088993313053
4021.34,1.0136261229970738
4022.24,1.0115027627171267
4023.14,1.008498788792441
4024.04,1.0104724195876904
4024.94,1.0063679937251098
4025.84,1.0076782277556393
4026.74,1.009070570351109
4027.64,1.0106837841756697
4028.54,1.0068549981800186
4029.44,1.0054128847291537
4030.34,0.9894786120059539
4031.24,0.9776251211373319
4032.14,0.9679671101330589
4033.04,0.9633608793828244
4033.94,0.9638760387388207
4034.84,0.9784838591584426
4035.74,0.9928147034230634
4036.64,1.0111039195325506
4037.54,1.0321115500105444
4038.44,1.0474887203942678
4039.34,1.051914675769489
4040.24,1.0552854223130679
4041.14,1.053303536873465
4042.04,1.0473056352555157
4042.94,1.0360784385143305
4043.84,1.0275991511746891
4044.74,1.017089066720043
4045.64,1.0078372564986493
4046.54,1.003375256207836
4047.44,1.0087758954257697
4048.34,1.0222895773620322
4049.24,1.0352569875202453
4050.14,1.0538994601384304
4051.04,1.0675989929299192
4051.94,1.0665110895028367
4052.84,1.0616084438397597
4053.74,1.061275186794329
4054.65,1.0511883067495738
4055.55,1.044829122975683
4056.45,1.0416765079098418
4057.35,1.0403547993132773
4058.25,1.04055983632869
4059.15,1.0497230501475654
4060.05,1.0508676596098205
4060.95,1.0596638039749164
4061.85,1.0583855293368707
4062.75,1.051739888598265
4063.65,1.0457303852604496
4064.55,1.0463122308197055
4065.45,1.0448823668389422
4066.35,1.0470820696205323
4067.25,1.0558453536185182
4068.15,1.0633355908837279
4069.05,1.0678226397053332
4069.95,1.073887135460574
4070.85,1.0749276552863058
4071.75,1.0670739128659161
4072.65,1.0629804890668093
4073.55,1.0614350386741522
4074.45,1.0530044094845739
4075.35,1.045098830675336
4076.25,1.0340134058424633
4077.15,1.0154579921300086
4078.05,1.0110382868200387
4078.95,1.0099327209478661
4079.85,1.018095346184525
4080.75,1.028601949181485
4081.65,1.0350526955988268
4082.55,1.0420822307482052
4083.45,1.0399686663362504
4084.35,1.0421142705720596
4085.25,1.0329645959771383
4086.15,1.0314419838880784
4087.05,1.030131438275406
4087.95,1.027900359833488
4088.85,1.0220444459017182
4089.75,1.018008777900006
4090.65,1.0127535741173186
4091.55,0.9970834381912103
4092.45,0.982128357165686
4093.36,0.955013037741524
4094.26,0.9304428448302494
4095.16,0.9026129465500177
4096.06,0.8661604808621294
4096.96,0.8291016072021715
4097.86,0.7860113347443926
4098.76,0.7460153989611458
4099.66,0.7055990828087083
4100.56,0.6589930697531429
4101.46,0.6242322628321073
4102.36,0.6093022166641957
4103.26,0.6093616618969296
4104.16,0.6281152239955318
4105.06,0.6612267436756878
4105.96,0.7047028928547708
4106.86,0.7432786963233378
4107.76,0.7886798458959471
4108.66,0.8204451199162638
4109.56,0.8465541109731648
4110.46,0.8740471438308575
4111.36,0.8991680180121302
4112.26,0.9163238220745319
4113.16,0.9401657657657658
4114.06,0.9660744307491498
4114.96,0.9817160674019522
4115.86,1.0010928733581546
4116.76,1.0122940756997125
4117.66,1.0159588575889378
4118.56,1.021361380558766
4119.46,1.0288355585138265
4120.36,1.0242721887924706
4121.26,1.0265511348204883
4122.16,1.0359476860683636
4123.06,1.0355646633734226
4123.96,1.0441172729577652
4124.86,1.048620670133071
4125.76,1.049716990530126
4126.66,1.055503023431246
4127.56,1.0499214074186936
4128.46,1.0496085556140118
4129.36,1.0437577828725149
4130.26,1.0382875503632754
4131.17,1.038848127573114
4132.06,1.0363617766157025
4132.97,1.0290752999422728
4133.87,1.037257729215068
4134.77,1.045458477651351
4135.67,1.0555282340114522
4136.57,1.0702713543151425
4137.47,1.0839464330079989
4138.37,1.095156157895757
4139.27,1.098755682110938
4140.17,1.111608869020586
4141.07,1.10436925983343
4141.97,1.0922856870694513
4142.87,1.0803291818511256
4143.77,1.0663969095133417
4144.67,1.058932430229483
4145.57,1.0577449243924306
4146.47,1.0584293014387864
4147.37,1.0631455381560673
4148.27,1.0699914215481456
4149.17,1.0751580099830682
4150.07,1.067592806443575
4150.97,1.0659275484905477
4151.87,1.0636037519069088
4152.77,1.0564645517652231
4153.67,1.047265413541387
4154.57,1.040991752498624
4155.47,1.0383359896106559
4156.37,1.0373259087866193
4157.27,1.0335462229412202
4158.17,1.0411372681489541
4159.07,1.0427413298500754
4159.97,1.0525314566565644
4160.87,1.0609450375103235
4161.77,1.0627520591699546
4162.67,1.0700690802354376
4163.57,1.0679464675406
4164.47,1.0695486039110984
4165.37,1.0682612901089816
4166.27,1.0643599374954673
4167.17,1.0583912325886267
4168.07,1.0527195952863004
4168.98,1.0464733281524305
4169.88,1.0338178657271908
4170.78,1.025897446450485
4171.68,1.0115207098347785
4172.58,0.9969841187757409
4173.48,0.9865334637877563
4174.38,0.9759650934046973
4175.28,0.9691504543023162
4176.18,0.9743270212155023
4177.08,0.9740652171107813
4177.98,0.9784726306731699
4178.88,0.9799870580970572
4179.78,0.9828883745723821
4180.68,0.9892760128894611
4181.58,0.9934142003502338
4182.48,0.9973541942118775
4183.38,1.002620672393834
4184.28,1.0050715608346255
4185.18,1.0050247946415585
4186.08,1.006727181418237
4186.98,1.0076190936748681
4187.88,1.0084290888396445
4188.78,1.0058689713600948
4189.68,1.0037565916900812
4190.58,1.0115730044350926
4191.48,1.02039258802441
4192.38,1.0228277588628993
4193.28,1.0226845846666655
4194.18,1.024804779224949
4195.08,1.0213942487537135
4195.98,1.009195053422958
4196.88,1.0004080879261756
4197.78,0.9891710535219929
4198.68,0.9778223303318822
4199.58,0.9727750648457953
4200.48,0.9702958263914682
4201.38,0.9661402011467707
4202.28,0.9692039708175486
4203.18,0.9727572508690503
4204.08,0.9801098884246899
4204.98,0.9851589737981479
4205.88,0.9951452318962359
4206.79,0.9990032206797813
4207.69,1.0121301531848759
4208.59,1.0122300721481263
4209.49,1.0173587349384252
4210.39,1.020507780272803
4211.29,1.023273588911121
4212.19,1.0235933242677184
4213.09,1.0187312835904212
4213.99,1.0090027085262376
4214.89,1.005596545787763
4215.79,0.9999525959281906
4216.69,0.998360032417394
4217.59,0.9996296826656986
4218.49,1.0078920125739754
4219.39,1.0165507060418078
4220.29,1.0178604885400204
4221.19,1.0229155039714508
4222.09,1.0227384579824874
4222.99,1.0132972586850246
4223.89,0.992360896146197
4224.79,0.9747953292465329
4225.69,0.9461891543250085
4226.59,0.9357874731976903
4227.49,0.9293355780388949
4228.39,0.9338202725126699
4229.29,0.9514858956713238
4230.19,0.974426388682901
4231.09,0.9865807147460354
4231.99,0.9991423066491524
4232.89,1.0027165549919181
4233.79,1.0060051878462468
4234.69,0.9993047047220595
4235.59,0.9949556946877536
4236.49,0.9910435920503194
4237.39,0.9896496866004102
4238.29,0.9897379462781742
4239.19,0.9904735685022275
4240.09,0.996714182907703
4240.99,1.0058590937344032
4241.89,1.0138367442014578
4242.79,1.0174622978484038
4243.69,1.0235750051751353
4244.59,1.0287248938828462
4245.5,1.023537295536178
4246.4,1.0215551167140202
4247.3,1.0097660871981786
4248.2,1.005599062197135
4249.1,1.0044436896081541
4250.0,0.999090639674067
4250.9,0.9991302847896653
4251.8,0.9978650524061908
4252.7,1.0063939751253648
4253.6,1.0106760451484764
4254.5,1.0145586478732076
4255.4,1.0195840640317448
4256.3,1.0245817117602807
4257.2,1.026898782760773
4258.1,1.0175293798502134
4259.0,1.0211002303138799
4259.9,1.0141888832374
4260.8,1.0117583476790504
4261.7,1.015486582559449
4262.6,1.0233632761783367
4263.5,1.0332537281394463
4264.4,1.0486570665115666
4265.3,1.0587957225227866
4266.2,1.067140202421751
4267.1,1.063661790012036
4268.0,1.0587819629548323
4268.9,1.0430876295966043
4269.8,1.0314740636903226
4270.7,1.0110582910362809
4271.6,0.9976471779719231
4272.5,0.9884496173557477
4273.4,0.9849975612221423
4274.3,0.9895037540360478
4275.2,0.9972976903765625
4276.1,1.0067592804152496
4277.0,1.0251252139311897
4277.9,1.036527938608872
4278.8,1.0487349158639847
4279.7,1.0557634927288118
4280.6,1.0563689784144787
4281.5,1.0559318788348184
4282.4,1.0516305101239134
4283.31,1.0465599923427646
4284.21,1.0409014561583283
4285.11,1.0346761442616015
4286.01,1.0270366133440685
4286.91,1.025605289491888
4287.81,1.0109086909765077
4288.71,1.0036473017499559
4289.61,0.994903214800896
4290.51,0.9915539540221114
4291.41,0.9909988809619238
4292.31,0.9962129496618491
4293.21,1.0019439880253465
4294.11,1.0103268468783266
4295.01,1.015012608292969
4295.91,1.016821221896887
4296.81,1.0079474804357043
4297.71,0.9966597953906203
4298.61,0.9797199475957814
4299.51,0.9626057049301745
4300.41,0.9459997004495019
4301.31,0.9333291496727172
4302.21,0.930183674533476
4303.11,0.9296470832852971
4304.01,0.9324717988084127
4304.91,0.9426186972686427
4305.81,0.9420007376375126
4306.71,0.9448145800750725
4307.61,0.9421620393544632
4308.51,0.9400636536316482
4309.41,0.9461872086765399
4310.31,0.9474587270159945
4311.21,0.9561752401501489
4312.11,0.9658226270122943
4313.01,0.9778494463554576
4313.91,0.9907634863193568
4314.81,1.0033368639926157
4315.71,1.0159208611230146
4316.61,1.0327094049801764
4317.51,1.0551068368958894
4318.41,1.061784286203812
4319.31,1.0641918652393907
4320.21,1.0619003206905697
4321.12,1.0521691115761722
4322.02,1.0382748291893258
4322.92,1.0231002410178958
4323.82,0.9938974071722254
4324.72,0.9777761075826339
4325.62,0.9604252648052402
4326.52,0.9448984191706699
4327.42,0.9430495030720993
4328.32,0.9430062206350789
4329.22,0.946242633565639
4330.12,0.9454437329010004
4331.02,0.9501151512152693
4331.92,0.9442938938127758
4332.82,0.931690660275143
4333.72,0.9164342575332649
4334.62,0.8971591859888528
4335.52,0.8605598939849834
4336.42,0.8279259071197086
4337.32,0.7849494497523603
4338.22,0.7382109459080743
4339.12,0.6912761891469873
4340.02,0.6570703456575328
4340.92,0.6373969214097929
4341.82,0.6301964736223423
4342.72,0.6446700780828307
4343.62,0.6735075901577019
4344.52,0.7112390319085793
4345.42,0.7538695300812486
4346.32,0.797761543722429
4347.22,0.835269981099342
