wave,flux
3700.85,0.022431188467194375
3701.75,0.022335324029876622
3702.65,0.021732337876699412
3703.55,0.02062951254979068
3704.45,0.019487225766764506
3705.35,0.018444517018316075
3706.25,0.017739345687533246
3707.15,0.01733100515996505
3708.05,0.017411355456972526
3708.96,0.017946753208373363
3709.86,0.018992965691577365
3710.76,0.020304804753032063
3711.66,0.021702969373957413
3712.56,0.023348719817930765
3713.46,0.02486953179197231
3714.36,0.026005285591754183
3715.26,0.02657633521843937
3716.16,0.026517761345917646
3717.06,0.02589588627036763
3717.96,0.024480369451201682
3718.86,0.022741217353330987
3719.76,0.020770162281271303
3720.66,0.019129417977888082
3721.56,0.018266170572686594
3722.46,0.01837680595777
3723.36,0.019528982902371275
3724.26,0.02117593311350027
3725.16,0.023010951467195017
3726.06,0.024432796255725423
3726.96,0.02552887358909612
3727.86,0.025905817026184427
3728.76,0.02619803960695984
3729.66,0.026180847958907127
3730.56,0.025822422811594147
3731.46,0.025145282793101888
3732.36,0.023815969176314268
3733.26,0.022109470920878723
3734.16,0.020259350335527542
3735.06,0.01884429117218289
3735.96,0.01811169844705846
3736.86,0.018449429552064918
3737.76,0.01973534525422735
3738.66,0.021933842307955385
3739.56,0.02435584488395747
3740.46,0.02672354658135852
3741.36,0.02818126601483443
3742.26,0.028973419746776294
3743.16,0.02846714876189647
3744.06,0.02748064585180391
3744.96,0.026090266650885156
3745.86,0.02456008234454644
3746.76,0.023392849139511913
3747.67,0.02238722803636807
3748.57,0.021844290330857715
3749.47,0.022123819487810635
3750.37,0.023224553750459582
3751.27,0.025498013010734375
3752.17,0.028449012465341716
3753.07,0.03183406346512388
3753.97,0.034896271292484606
3754.87,0.037225719871065356
3755.77,0.03810534356255256
3756.67,0.03805130150693219
3757.57,0.036994962239806785
3758.47,0.03544612033024599
3759.37,0.034399627907469005
3760.27,0.034195905016559565
3761.17,0.03463106517462839
3762.07,0.035553333045978776
3762.97,0.036702168176179176
3763.87,0.03756129272125946
3764.77,0.038277559368153254
3765.67,0.038733423299492094
3766.57,0.03936303126022879
3767.47,0.03997342909176473
3768.37,0.04068168610450508
3769.27,0.04164748135233704
3770.17,0.042995187263507026
3771.07,0.0445789893574213
3771.97,0.04653733743661541
3772.87,0.048443878597565264
3773.77,0.05033957579187902
3774.67,0.05202103741415443
3775.57,0.053786638695675196
3776.47,0.05469402379900527
3777.37,0.055952204573223044
3778.27,0.0570488129950066
3779.17,0.058475853738190225
3780.07,0.060309800671505716
3780.97,0.062137727152604405
3781.87,0.0636731637252374
3782.77,0.06475776225602804
3783.67,0.06525087946110192
3784.57,0.06481680749376127
3785.47,0.06355086968563065
3786.38,0.0618926184480157
3787.28,0.059786711190367804
3788.18,0.057771877343020535
3789.08,0.056668855421716416
3789.98,0.05608266282445608
3790.88,0.056453590533365336
3791.78,0.05702100767608968
3792.68,0.057595282610135676
3793.58,0.057580533706360924
3794.48,0.05693760787104294
3795.38,0.055954969926799755
3796.28,0.05469917139691271
3797.18,0.05378356981619143
3798.08,0.053359921635375014
3798.98,0.05426445457317564
3799.88,0.0566916759247918
3800.78,0.060181005947941
3801.68,0.06521239363858937
3802.58,0.07042948708011908
3803.48,0.07488197777041108
3804.38,0.0789184240862697
3805.28,0.08118007381240763
3806.18,0.08180214737377164
3807.08,0.08232570134048249
3807.98,0.08290482948564223
3808.88,0.0841251884845151
3809.78,0.08596812351413156
3810.68,0.08704442481808686
3811.58,0.08735114300517162
3812.48,0.08570244122881465
3813.38,0.0834415197666011
3814.28,0.08018343942586134
3815.18,0.07701203616890563
3816.08,0.07508614498989163
3816.98,0.07419077658756995
3817.88,0.07405591182085175
3818.78,0.07398219390185111
3819.68,0.07351864959718567
3820.58,0.07245478969163971
3821.48,0.07222280136152825
3822.38,0.07182634071504941
3823.28,0.07153478039596399
3824.18,0.07096615478392268
3825.09,0.06940393791538833
3825.99,0.06743192658071541
3826.89,0.06610634488856487
3827.79,0.06565029414035359
3828.69,0.06609425308603516
3829.59,0.06706207454786858
3830.49,0.0676710947494174
3831.39,0.06805677869632511
3832.29,0.06716778033269576
3833.19,0.06621181908555847
3834.09,0.06544090562624445
3834.99,0.06606968600408038
3835.89,0.0667947437400088
3836.79,0.06837464663330478
3837.69,0.06970222416317652
3838.59,0.0708275464445708
3839.49,0.07318779107581087
3840.39,0.07732856148483697
3841.29,0.08310766116364653
3842.19,0.09113000443229709
3843.09,0.10064862545521731
3843.99,0.1093336343186538
3844.89,0.116818386306559
3845.79,0.1234661292327789
3846.69,0.12816060219809702
3847.59,0.130678496577217
3848.49,0.13248965699236054
3849.39,0.13365745803344886
3850.29,0.13433022619875404
3851.19,0.13521027866756513
3852.09,0.13680404646266983
3852.99,0.1380922568413043
3853.89,0.13880811764010578
3854.79,0.13892860650505656
3855.69,0.1376440448155808
3856.59,0.1344233207586071
3857.49,0.13040713125958456
3858.39,0.1270818030160036
3859.29,0.12487416901346562
3860.19,0.12597228907022046
3861.09,0.13012774495631552
3861.99,0.13702025749152513
3862.9,0.14660935439404954
3863.8,0.15613659306807476
3864.7,0.1636409311568198
3865.6,0.1693894685953622
3866.5,0.1715144355666003
3867.4,0.1725561209000626
3868.3,0.17255977112814422
3869.2,0.17055589100382954
3870.1,0.16802019859337
3871.0,0.16501714606126655
3871.9,0.16360126350241025
3872.8,0.1634809197875319
3873.7,0.166114915934097
3874.6,0.17143283453445302
3875.5,0.17834034484894754
3876.4,0.18356918414528395
3877.3,0.18573597815024065
3878.2,0.18637785872566875
3879.1,0.18535117740812
3880.0,0.18547121829381255
3880.9,0.1871505456471165
3881.8,0.18945925116885792
3882.7,0.19268803400153967
3883.6,0.19642007389637792
3884.5,0.19729275552921904
3885.4,0.19679120372800998
3886.3,0.19475938719522462
3887.2,0.19214593940076688
3888.1,0.19217174908236542
3889.0,0.19529554663456794
3889.9,0.20444711755740233
3890.8,0.21478191205688074
3891.7,0.2298521192461451
3892.6,0.24332412317604324
3893.5,0.25543647435395805
3894.4,0.26479901253914195
3895.3,0.270727689510473
3896.2,0.2755085068035945
3897.1,0.28028135748576016
3898.0,0.2863318210669067
3898.9,0.29031027621004424
3899.8,0.29569464736739615
3900.7,0.2980260332482975
3901.6,0.30247308372288495
3902.51,0.3026345008131802
3903.41,0.30423583144278693
3904.31,0.30470585856241855
3905.21,0.3046931822252957
3906.11,0.30712574245416324
3907.01,0.31474223742417345
3907.91,0.32674872694741186
3908.81,0.34086402093163304
3909.71,0.3580877102907394
3910.61,0.37509471393996613
3911.51,0.3887991332729983
3912.41,0.39876523332528513
3913.31,0.40664292355239856
3914.21,0.4079994354655511
3915.11,0.41000842941304744
3916.01,0.40918307257519226
3916.91,0.4037092372000523
3917.81,0.3976486174068442
3918.71,0.3914749895853288
3919.61,0.38347191961291033
3920.51,0.37268860944955035
3921.41,0.36617115966090324
3922.31,0.36150437570774424
3923.21,0.3568729364162835
3924.11,0.3566711758860391
3925.01,0.35379178149104895
3925.91,0.344318256504302
3926.81,0.3281842338525687
3927.71,0.3080886948986896
3928.61,0.27976347481815445
3929.51,0.24993941912109552
3930.41,0.22061292505428423
3931.31,0.1930001992322935
3932.21,0.16867837791010892
3933.11,0.15018798009520415
3934.01,0.1414162378598741
3934.91,0.14196339791815546
3935.81,0.15350969587836408
3936.71,0.17367574325006643
3937.61,0.20300647304648145
3938.51,0.23701544630425764
3939.42,0.2749247725255191
3940.32,0.30956853271105556
3941.22,0.3406806900152698
3942.12,0.3650768413399118
3943.02,0.38765055509284807
3943.92,0.40618854973565943
3944.82,0.4265622366030142
3945.72,0.4493579935293353
3946.62,0.47340719402399545
3947.52,0.5006710963787956
3948.42,0.5253200590121859
3949.32,0.5447528472975991
3950.22,0.5645893036005382
3951.12,0.5817898872234782
3952.02,0.5954675564401548
3952.92,0.6052418796183894
3953.82,0.6131587697014471
3954.72,0.6185722689377502
3955.62,0.6209396265058978
3956.52,0.6212875585097271
3957.42,0.6165062029243868
3958.32,0.6094260278131093
3959.22,0.5963575875808977
3960.12,0.5769867340340661
3961.02,0.5489097283712635
3961.92,0.5142537637089462
3962.82,0.47785608489029985
3963.72,0.43590650130670594
3964.62,0.39677059776682916
3965.52,0.35671231561943617
3966.42,0.31870911809358893
3967.32,0.2794953953146744
3968.22,0.251527261255725
3969.12,0.2351779319710656
3970.02,0.23589538033899513
3970.92,0.25249373259492336
3971.82,0.28505465495763105
3972.72,0.32936713348856655
3973.62,0.38157840471279364
3974.52,0.4402474575187462
3975.42,0.4968680291235298
3976.32,0.5514909893024121
3977.22,0.6035207572117955
3978.13,0.6539508675976703
3979.03,0.6995031073472834
3979.93,0.7322100046723743
3980.83,0.7657573424775364
3981.73,0.7807802191465427
3982.63,0.7951091522660924
3983.53,0.805133682046956
3984.43,0.8147744381760375
3985.33,0.8275057208343466
3986.23,0.8394294934694189
3987.13,0.855719204988511
3988.03,0.8680638567539457
3988.93,0.883992463185801
3989.83,0.8980059404896555
3990.73,0.9074199943589681
3991.63,0.9200553317763863
3992.53,0.9244056916572456
3993.43,0.9309202639256747
3994.33,0.9295922581766753
3995.23,0.9249361053011544
3996.13,0.9190347618563245
3997.03,0.9122592903286928
3997.93,0.9058158614184642
3998.83,0.9215144439792227
3999.73,0.9365109796551041
4000.63,0.9516347947849302
4001.53,0.9671889867442204
4002.43,0.975771593593593
4003.33,0.9773435165984745
4004.23,0.967657233041999
4005.13,0.9573207526411035
4006.03,0.9391916880479245
4006.93,0.9342408830363245
4007.83,0.940602380199409
4008.73,0.9563178539213829
4009.63,0.9745485223767865
4010.53,0.99669300184557
4011.43,1.0117714751275522
4012.33,1.0208442795793893
4013.23,1.0291660463540435
4014.13,1.0354153291470667
4015.03,1.0400529553006566
4015.93,1.0412105659928905
4016.84,1.0459675545425304
4017.74,1.0410069612141046
4018.64,1.0429869478773943
4019.54,1.0428044555392775
4020.44,1.0482525894882355
4021.34,1.0495922426748903
4022.24,1.0516561402039715
4023.14,1.049296721567756
4024.04,1.0477407310166795
4024.94,1.0487080276376906
4025.84,1.054699302262298
4026.74,1.06189163334818
4027.64,1.0656789233438442
4028.54,1.0633291929825184
4029.44,1.051721342994909
4030.34,1.0289080682946523
4031.24,0.9948963506550469
4032.14,0.9674895845714251
4033.04,0.945284482321276
4033.94,0.9397484124717277
4034.84,0.9513386641476161
4035.74,0.9754412417152635
4036.64,1.0105623349941857
4037.54,1.0458594145579396
4038.44,1.0705061186069755
4039.34,1.087861520854271
4040.24,1.0876649309756528
4041.14,1.0821509910389673
4042.04,1.0649560146022012
4042.94,1.035401397313289
4043.84,0.9958396707641424
4044.74,0.9571543766383293
4045.64,0.929970830485225
4046.54,0.9124107487437427
4047.44,0.9159196654085963
4048.34,0.9413080607071799
4049.24,0.972677086264739
4050.14,1.0120232226063344
4051.04,1.037086906675873
4051.94,1.0525288644802722
4052.84,1.0549776193007592
4053.74,1.0499342075440656
4054.65,1.0327879994511941
4055.55,1.0167422575338156
4056.45,1.0043235850824046
4057.35,0.994986727342901
4058.25,0.9871136805836958
4059.15,0.9895971490802216
4060.05,0.9898465269209754
4060.95,0.9877915988891952
4061.85,0.9744894674635763
4062.75,0.9553192295022832
4063.65,0.9348022868617653
4064.55,0.9243107976331204
4065.45,0.9161206317777674
4066.35,0.9244689734854769
4067.25,0.94002978910767
4068.15,0.9606557958856878
4069.05,0.9756233536926342
4069.95,0.9888183780635886
4070.85,0.9897811016264838
4071.75,0.9843022190210421
4072.65,0.9751242551400822
4073.55,0.9695940093466173
4074.45,0.9657377673108272
4075.35,0.9547172460740565
4076.25,0.938361825524251
4077.15,0.9317614194486417
4078.05,0.9230668232051463
4078.95,0.9261303367237517
4079.85,0.9441556524176148
4080.75,0.9696686620806042
4081.65,0.993193507740024
4082.55,1.0121854242771031
4083.45,1.0209607963485698
4084.35,1.0254603729460223
4085.25,1.0330282185113606
4086.15,1.0423860486703298
4087.05,1.0598059362474204
4087.95,1.0763866042013266
4088.85,1.098694596313669
4089.75,1.1085311572494172
4090.65,1.1097229771127501
4091.55,1.1112212090476046
4092.45,1.1035800232060873
4093.36,1.0901550114528729
4094.26,1.07312944430541
4095.16,1.0499785900951717
4096.06,1.0319881857410003
4096.96,1.0006175253866878
4097.86,0.9730769169455017
4098.76,0.9413636830824932
4099.66,0.9152498016631732
4100.56,0.8840041721938224
4101.46,0.8561320349674686
4102.36,0.8424816575748539
4103.26,0.8446510322730064
4104.16,0.86209661165306
4105.06,0.892434257968339
4105.96,0.9234133059664458
4106.86,0.9584951204283463
4107.76,0.9816293997533302
4108.66,0.9929092490294718
4109.56,1.0011030375924148
4110.46,1.0032021533282358
4111.36,1.00597405902057
4112.26,1.0130893393694091
4113.16,1.0255700578132743
4114.06,1.0346062894135946
4114.96,1.0415225846544203
4115.86,1.0485210048561209
4116.76,1.0547959260453972
4117.66,1.0501660073559553
4118.56,1.037645554908148
4119.46,1.0314436310416557
4120.36,1.02496753700353
4121.26,1.0197535027802545
4122.16,1.0206273943611108
4123.06,1.021368866900327
4123.96,1.0256329781307216
4124.86,1.0303478744491772
4125.76,1.0294492056915276
4126.66,1.0316332332951292
4127.56,1.0268199149960342
4128.46,1.012384468864991
4129.36,0.9997205546955736
4130.26,0.9829874409924823
4131.17,0.9697747526689843
4132.06,0.9553418214113483
4132.97,0.9491677357762178
4133.87,0.946656989716588
4134.77,0.9486826411972462
4135.67,0.9651631111807369
4136.57,0.9904065017145316
4137.47,1.0079292512826021
4138.37,1.0323191414695396
4139.27,1.039583099682694
4140.17,1.0396404292193742
4141.07,1.0297206255073303
4141.97,1.0074163029314043
4142.87,0.9783416278669905
4143.77,0.9586129550816915
4144.67,0.9445835879404176
4145.57,0.9426723446426951
4146.47,0.9544132768424306
4147.37,0.972222790067878
4148.27,0.9909226980317899
4149.17,0.9987664316389214
4150.07,0.9984504367343018
4150.97,1.0012113867472645
4151.87,0.9990939029421176
4152.77,0.9916577026245849
4153.67,0.9860556027936341
4154.57,0.979878224764966
4155.47,0.9787493460312506
4156.37,0.9815029074027879
4157.27,0.9883601224316729
4158.17,1.0021744495286742
4159.07,1.0158591493404345
4159.97,1.037897051503099
4160.87,1.0408649666121124
4161.77,1.063745390283416
4162.67,1.0662294402450112
4163.57,1.0730441915442366
4164.47,1.0750393843080213
4165.37,1.0647398209164007
4166.27,1.0544432916507944
4167.17,1.0447356055173773
4168.07,1.0370835277499877
4168.98,1.026284725540936
4169.88,1.0129153822211974
4170.78,1.0026269635451435
4171.68,0.9807386723190631
4172.58,0.962440698465511
4173.48,0.948103645991605
4174.38,0.9408184959534126
4175.28,0.9369166284200174
4176.18,0.9437571059141636
4177.08,0.9528166853501167
4177.98,0.9649812055155351
4178.88,0.9791499309908861
4179.78,0.9887676616446359
4180.68,0.9958927184546345
4181.58,0.9997843372780283
4182.48,1.0062663049427134
4183.38,1.011061265714741
4184.28,1.0101054675152061
4185.18,1.0090055663378126
4186.08,1.0056175777993985
4186.98,1.0064447137289778
4187.88,0.9986217802927931
4188.78,0.9949390404916361
4189.68,0.9982899817439728
4190.58,1.007202696757491
4191.48,1.017830751856312
4192.38,1.029212838953078
4193.28,1.0360089407539912
4194.18,1.0337590033103734
4195.08,1.0355927393070852
4195.98,1.021606337540572
4196.88,0.9974994983775418
4197.78,0.9816988493353989
4198.68,0.9600805808846327
4199.58,0.9500531771948872
4200.48,0.9407610724478062
4201.38,0.9383888410775807
4202.28,0.9442136004555467
4203.18,0.9554879053307715
4204.08,0.9726669606909654
4204.98,0.9899367195555389
4205.88,1.0145413707612203
4206.79,1.036334569642964
4207.69,1.054029961068106
4208.59,1.0647847820119405
4209.49,1.0762958546819028
4210.39,1.0819010091721126
4211.29,1.0836138555714057
4212.19,1.0770821800966959
4213.09,1.0750394811484456
4213.99,1.0618151926214203
4214.89,1.0524022374167838
4215.79,1.0388471458255042
4216.69,1.039847490302427
4217.59,1.0425726441986367
4218.49,1.0562720466461382
4219.39,1.0724607377209163
4220.29,1.0873794403209107
4221.19,1.083184863879659
4222.09,1.071675914500085
4222.99,1.0436509530349374
4223.89,0.9974313463234432
4224.79,0.9484525870166879
4225.69,0.8944490986008526
4226.59,0.8541312472682983
4227.49,0.8418603427010658
4228.39,0.8540444663736367
4229.29,0.8855738950611933
4230.19,0.9288360530792047
4231.09,0.9732576174767072
4231.99,1.0056020052138819
4232.89,1.031681468183323
4233.79,1.0351391785098676
4234.69,1.0287478589113894
4235.59,1.0250702479977107
4236.49,1.0150173106849254
4237.39,1.0091931595492118
4238.29,1.0086631290870514
4239.19,1.0184369298120677
4240.09,1.0303305459640189
4240.99,1.0435108672705684
4241.89,1.0661750171838522
4242.79,1.0768456750849955
4243.69,1.092370770073717
4244.59,1.100448615941368
4245.5,1.0989495665332767
4246.4,1.0892289037842093
4247.3,1.077212661867921
4248.2,1.051801385444537
4249.1,1.033363648806101
4250.0,1.019622275018573
4250.9,1.006473055775704
4251.8,1.0031964545055894
4252.7,1.002721809576992
4253.6,1.011517189533507
4254.5,1.0135303522016712
4255.4,1.020858348077907
4256.3,1.0266530463890444
4257.2,1.0271841032491578
4258.1,1.03249771517728
4259.0,1.0214330782991328
4259.9,1.0141605285578552
4260.8,1.0097669270434346
4261.7,1.011906517897486
4262.6,1.0296379237303377
4263.5,1.0544343111731989
4264.4,1.075028737605835
4265.3,1.101315447206023
4266.2,1.1147976199750602
4267.1,1.104898453501472
4268.0,1.0873752448714586
4268.9,1.0683183885204537
4269.8,1.0281757949896737
4270.7,0.9909191562363548
4271.6,0.9560162732884822
4272.5,0.9252168327604283
4273.4,0.9080247005104164
4274.3,0.9086907048851136
4275.2,0.9240883461669213
4276.1,0.9548919693715867
4277.0,0.987338841672605
4277.9,1.0120842680324622
4278.8,1.0346757159023299
4279.7,1.0501796386581492
4280.6,1.0497977162150527
4281.5,1.0494001929497745
4282.4,1.0416299222153718
4283.31,1.0342241795128502
4284.21,1.0252955627494749
4285.11,1.0143121765318597
4286.01,1.00551768746685
4286.91,0.9871000223080556
4287.81,0.9624013757666181
4288.71,0.9482225239122185
4289.61,0.9311683120421299
4290.51,0.9244681752182242
4291.41,0.924482828736371
4292.31,0.9324102624651711
4293.21,0.9476349585455512
4294.11,0.9532506613467161
4295.01,0.9550012072806606
4295.91,0.949954442653008
4296.81,0.9296131313170385
4297.71,0.8990462235672009
4298.61,0.8600780600510054
4299.51,0.8234734793499136
4300.41,0.7912582828899254
4301.31,0.7664280479075205
4302.21,0.7536209084862399
4303.11,0.7443277250676182
4304.01,0.7461077479856958
4304.91,0.7426110551689581
4305.81,0.7414192978181545
4306.71,0.7308139021248071
4307.61,0.72532232634703
4308.51,0.7138790475536337
4309.41,0.7166951553543314
4310.31,0.7231698613490807
4311.21,0.7450074529352336
4312.11,0.7820431186210974
4313.01,0.8251758669074667
4313.91,0.8841931725944876
4314.81,0.9490329564946648
4315.71,1.01611841174906
4316.61,1.076032280016301
4317.51,1.1321214394034405
4318.41,1.1677567099150101
4319.31,1.185651884683804
4320.21,1.189841879847388
4321.12,1.1649422305814354
4322.02,1.1346353527892425
4322.92,1.088623393359854
4323.82,1.0372471267154864
4324.72,0.9930103811269151
4325.62,0.9618357028727519
4326.52,0.9524792475053213
4327.42,0.9684609522307119
4328.32,1.0057507477623624
4329.22,1.0419240908197778
4330.12,1.0841347545540008
4331.02,1.1153768949882172
4331.92,1.1428939180640463
4332.82,1.1522239565064536
4333.72,1.162607209538972
4334.62,1.1559714660080316
4335.52,1.1353470570813522
4336.42,1.1077340413924595
4337.32,1.0623837042483442
4338.22,1.0119281111873561
4339.12,0.9747097416685875
4340.02,0.9323103572195387
4340.92,0.912886599685181
4341.82,0.9069396097336139
4342.72,0.9273405121962579
4343.62,0.9581459876707242
4344.52,0.9943756737517889
4345.42,1.0284995222757916
4346.32,1.0611670833322386
4347.22,1.08432377704209
4348.12,1.0954416766940838
4349.02,1.1049532352271385
4349.92,1.0919075857359288
4350.82,1.08576715641031
4351.72,1.058872330324516
4352.62,1.04286472155111
4353.52,1.0304934130910566
4354.42,1.0321878315642088
4355.32,1.0385180170512367
4356.22,1.0496055683475385
4357.12,1.0640255045602722
4358.02,1.0787461169211903
4358.92,1.0870388960850972
4359.83,1.0885639974371615
4360.73,1.0993154595333983
4361.63,1.1063985262714253
4362.53,1.1169354839952272
