wave,flux
3700.85,-6.260291313845625e-07
3701.75,-6.208717126650518e-07
3702.65,-6.078538879891801e-07
3703.55,-5.869318787330601e-07
3704.45,-5.707057741656705e-07
3705.35,-5.637591983725373e-07
3706.25,-5.590871261637874e-07
3707.15,-5.660436391451356e-07
3708.05,-5.710052793580699e-07
3708.96,-5.797578143505764e-07
3709.86,-5.853007900750852e-07
3710.76,-5.81849463207755e-07
3711.66,-5.856568320297918e-07
3712.56,-5.915807380960579e-07
3713.46,-6.060308438577914e-07
3714.36,-6.283723497144116e-07
3715.26,-6.505189451237297e-07
3716.16,-6.683562937724922e-07
3717.06,-6.745532333554967e-07
3717.96,-6.681140567036636e-07
3718.86,-6.443852764098789e-07
3719.76,-6.190019838102334e-07
3720.66,-5.85894080033188e-07
3721.56,-5.591433112554197e-07
3722.46,-5.497899285911337e-07
3723.36,-5.588204641343281e-07
3724.26,-5.82539607677081e-07
3725.16,-6.13216421639541e-07
3726.06,-6.447508824535897e-07
3726.96,-6.728872578143038e-07
3727.86,-6.8883843005813e-07
3728.76,-6.961552769387744e-07
3729.66,-6.927341551757959e-07
3730.56,-6.813280473042823e-07
3731.46,-6.544684812741207e-07
3732.36,-6.183288563187207e-07
3733.26,-5.810065519691501e-07
3734.16,-5.475291490030933e-07
3735.06,-5.232518206930859e-07
3735.96,-5.272920194705207e-07
3736.86,-5.470707911889139e-07
3737.76,-5.827317293203401e-07
3738.66,-6.29115726973812e-07
3739.56,-6.741443471740626e-07
3740.46,-7.101692197812735e-07
3741.36,-7.351086219809554e-07
3742.26,-7.527505780930617e-07
3743.16,-7.472144896183772e-07
3744.06,-7.368965803170918e-07
3744.96,-7.16289669074781e-07
3745.86,-6.857402449441192e-07
3746.76,-6.540652762994608e-07
3747.67,-6.147847053318163e-07
3748.57,-5.799369388985482e-07
3749.47,-5.499289323089387e-07
3750.37,-5.357065967815615e-07
3751.27,-5.50113774529e-07
3752.17,-5.804441903327718e-07
3753.07,-6.256244730618179e-07
3753.97,-6.764519979592343e-07
3754.87,-7.220093586947796e-07
3755.77,-7.576594760173385e-07
3756.67,-7.833129871407106e-07
3757.57,-7.919821543031893e-07
3758.47,-7.935151384417698e-07
3759.37,-7.94810488885009e-07
3760.27,-8.003091268576646e-07
3761.17,-8.045132662655441e-07
3762.07,-8.181215767095144e-07
3762.97,-8.246568494509015e-07
3763.87,-8.267441302106891e-07
3764.77,-8.157501262510617e-07
3765.67,-7.99940968374319e-07
3766.57,-7.74981272405064e-07
3767.47,-7.430622505599222e-07
3768.37,-7.061795289353128e-07
3769.27,-6.70409580802681e-07
3770.17,-6.421285311104674e-07
3771.07,-6.29786934055471e-07
3771.97,-6.340690151891743e-07
3772.87,-6.564519039646771e-07
3773.77,-6.885912641266791e-07
3774.67,-7.282869604175352e-07
3775.57,-7.706773014409568e-07
3776.47,-8.11860640831852e-07
3777.37,-8.512179661815154e-07
3778.27,-8.878055122896797e-07
3779.17,-9.235094047306569e-07
3780.07,-9.547772652328449e-07
3780.97,-9.778218653793166e-07
3781.87,-9.99681945667994e-07
3782.77,-1.0126399895269614e-06
3783.67,-1.0131377619942356e-06
3784.57,-1.0137310637581524e-06
3785.47,-1.0050557568130914e-06
3786.38,-9.871881136291475e-07
3787.28,-9.709893695283512e-07
3788.18,-9.534961401904835e-07
3789.08,-9.354143881441068e-07
3789.98,-9.177704971732516e-07
3790.88,-9.004794418071535e-07
3791.78,-8.776856101804961e-07
3792.68,-8.509516586115936e-07
3793.58,-8.154170747956517e-07
3794.48,-7.732747550564425e-07
3795.38,-7.228277127731338e-07
3796.28,-6.815355077104919e-07
3797.18,-6.414372681626241e-07
3798.08,-6.174341482112634e-07
3798.98,-6.139279520123238e-07
3799.88,-6.333940091608566e-07
3800.78,-6.754637245114972e-07
3801.68,-7.29405665574998e-07
3802.58,-7.873395323733317e-07
3803.48,-8.433628997903769e-07
3804.38,-8.890691322814851e-07
3805.28,-9.283917731765822e-07
3806.18,-9.58521710880922e-07
3807.08,-9.848595833051217e-07
3807.98,-1.0100968592442242e-06
3808.88,-1.0350961496249561e-06
3809.78,-1.0551246048315964e-06
3810.68,-1.071546613217155e-06
3811.58,-1.0846460025036303e-06
3812.48,-1.0842218525919373e-06
3813.38,-1.0858754040316356e-06
3814.28,-1.0810865624861745e-06
3815.18,-1.07469712907357e-06
3816.08,-1.0748511350693836e-06
3816.98,-1.0728153374877806e-06
3817.88,-1.0851183845274588e-06
3818.78,-1.0833866759722284e-06
3819.68,-1.0829478026538648e-06
3820.58,-1.0689116883875244e-06
3821.48,-1.0601460207429765e-06
3822.38,-1.0521603969715718e-06
3823.28,-1.0317162885240627e-06
3824.18,-1.0162449650075404e-06
3825.09,-9.99130651808273e-07
3825.99,-9.70778432211771e-07
3826.89,-9.48375806908663e-07
3827.79,-9.263740218558846e-07
3828.69,-8.993499638789316e-07
3829.59,-8.72555245654189e-07
3830.49,-8.370805815102174e-07
3831.39,-7.941628389202048e-07
3832.29,-7.43989231513409e-07
3833.19,-6.973251263938415e-07
3834.09,-6.530945074115441e-07
3834.99,-6.179258758754075e-07
3835.89,-5.973672610440202e-07
3836.79,-5.979418885791785e-07
3837.69,-6.198873515674759e-07
3838.59,-6.51348003631455e-07
3839.49,-7.003576270395259e-07
3840.39,-7.49501555516367e-07
3841.29,-8.080828078232408e-07
3842.19,-8.626984985772033e-07
3843.09,-9.157840043347076e-07
3843.99,-9.58905158439234e-07
3844.89,-1.0019611258213437e-06
3845.79,-1.0343549509742768e-06
3846.69,-1.0612087980452856e-06
3847.59,-1.0920582318266282e-06
3848.49,-1.1079504134345281e-06
3849.39,-1.1265765142127193e-06
3850.29,-1.1414012381492227e-06
3851.19,-1.1552193872895935e-06
3852.09,-1.172504969957749e-06
3852.99,-1.1855554747917242e-06
3853.89,-1.1941472022243058e-06
3854.79,-1.2036982566013867e-06
3855.69,-1.2070978716013725e-06
3856.59,-1.2112373429013067e-06
3857.49,-1.2108760154755627e-06
3858.39,-1.2034783140111193e-06
3859.29,-1.204575935253201e-06
3860.19,-1.2084109210371196e-06
3861.09,-1.220576909275134e-06
3861.99,-1.2367784837019006e-06
3862.9,-1.2558845567741574e-06
3863.8,-1.2659250923749927e-06
3864.7,-1.2697423579666735e-06
3865.6,-1.269116032562874e-06
3866.5,-1.2758080925375797e-06
3867.4,-1.2691295284044396e-06
3868.3,-1.2633910359633173e-06
3869.2,-1.2639199681069103e-06
3870.1,-1.2490975517338602e-06
3871.0,-1.2342388285299932e-06
3871.9,-1.220198575061476e-06
3872.8,-1.2074076658137783e-06
3873.7,-1.1943710414459927e-06
3874.6,-1.1877364551174927e-06
3875.5,-1.1828026884091702e-06
3876.4,-1.170009330388219e-06
3877.3,-1.152557032016542e-06
3878.2,-1.130429343293492e-06
3879.1,-1.1132101260939183e-06
3880.0,-1.093141088237805e-06
3880.9,-1.0730450426861698e-06
3881.8,-1.052045121706471e-06
3882.7,-1.025998084774405e-06
3883.6,-9.982498501286309e-07
3884.5,-9.580286410562724e-07
3885.4,-9.130125872189737e-07
3886.3,-8.589597591200185e-07
3887.2,-8.055411895910508e-07
3888.1,-7.579003193238958e-07
3889.0,-7.257509855339411e-07
3889.9,-7.198704907740996e-07
3890.8,-7.301651272934743e-07
3891.7,-7.675495919797884e-07
3892.6,-8.16649494900929e-07
3893.5,-8.660627730553644e-07
3894.4,-9.14975939848378e-07
3895.3,-9.645991364936443e-07
3896.2,-1.0022479035482918e-06
3897.1,-1.0438285974400719e-06
3898.0,-1.0730884633796617e-06
3898.9,-1.0997926989265562e-06
3899.8,-1.1277340799287973e-06
3900.7,-1.1570389977414062e-06
3901.6,-1.1754125506863483e-06
3902.51,-1.2018535944744933e-06
3903.41,-1.2156440075559125e-06
3904.31,-1.2269012089519852e-06
3905.21,-1.240639856907097e-06
3906.11,-1.2566452228462891e-06
3907.01,-1.2742539229309415e-06
3907.91,-1.292575326764061e-06
3908.81,-1.3118362612551988e-06
3909.71,-1.3403505301868536e-06
3910.61,-1.3678068305474387e-06
3911.51,-1.3838446854733582e-06
3912.41,-1.3918043798817618e-06
3913.31,-1.393349591615854e-06
3914.21,-1.3989639987767338e-06
3915.11,-1.387963161042005e-06
3916.01,-1.3890516268919511e-06
3916.91,-1.3860594717327695e-06
3917.81,-1.3773828908143323e-06
3918.71,-1.3719798809910159e-06
3919.61,-1.3785098810810555e-06
3920.51,-1.3716112141272442e-06
3921.41,-1.3669756557984134e-06
3922.31,-1.3719197172094948e-06
3923.21,-1.374587442315397e-06
3924.11,-1.376344253153304e-06
3925.01,-1.3645805218111725e-06
3925.91,-1.3548524258800277e-06
3926.81,-1.3276381498217804e-06
3927.71,-1.2920761729839025e-06
3928.61,-1.2487123933948403e-06
3929.51,-1.1882957149095315e-06
3930.41,-1.117309834099768e-06
3931.31,-1.0352200652505232e-06
3932.21,-9.508844563520815e-07
3933.11,-8.783354267255088e-07
3934.01,-8.343866351501455e-07
3934.91,-8.295572047463844e-07
3935.81,-8.643483583929202e-07
3936.71,-9.309758011050529e-07
3937.61,-1.016221861596968e-06
3938.51,-1.1076803253787992e-06
3939.42,-1.195658171092216e-06
3940.32,-1.26305888966503e-06
3941.22,-1.3025157783519105e-06
3942.12,-1.339486648439836e-06
3943.02,-1.3602286533683746e-06
3943.92,-1.3677387940658729e-06
3944.82,-1.3845609334420874e-06
3945.72,-1.3996548431254082e-06
3946.62,-1.4023989345868861e-06
3947.52,-1.40703744799651e-06
3948.42,-1.4100302618315899e-06
3949.32,-1.4148042634591322e-06
3950.22,-1.4128327006602009e-06
3951.12,-1.4076509692407924e-06
3952.02,-1.4113652655979723e-06
3952.92,-1.4043818460884072e-06
3953.82,-1.4030962034189766e-06
3954.72,-1.390001912487e-06
3955.62,-1.3749644357659541e-06
3956.52,-1.363713713097683e-06
3957.42,-1.351117973952102e-06
3958.32,-1.3256708647577746e-06
3959.22,-1.302559840513064e-06
3960.12,-1.2763890893919354e-06
3961.02,-1.2340412622224073e-06
3961.92,-1.1853295938018204e-06
3962.82,-1.1307976822904028e-06
3963.72,-1.0640166163599687e-06
3964.62,-9.862350074396016e-07
3965.52,-9.008124588124058e-07
3966.42,-8.091143695512098e-07
3967.32,-7.195338794756667e-07
3968.22,-6.385743675620985e-07
3969.12,-5.802949623155508e-07
3970.02,-5.5621832812165e-07
3970.92,-5.696369404100935e-07
3971.82,-6.144041644048326e-07
3972.72,-6.839768993320638e-07
3973.62,-7.709363064173972e-07
3974.52,-8.628807970108982e-07
3975.42,-9.507565500597447e-07
3976.32,-1.0299825876406298e-06
3977.22,-1.103353547828422e-06
3978.13,-1.170137699183972e-06
3979.03,-1.2275453124022932e-06
3979.93,-1.2706111493573597e-06
3980.83,-1.3121623928878492e-06
3981.73,-1.340583967362994e-06
3982.63,-1.370558441170043e-06
3983.53,-1.3932918949522799e-06
3984.43,-1.414465833494383e-06
3985.33,-1.4333290681715647e-06
3986.23,-1.4638046205846741e-06
3987.13,-1.4865065674392716e-06
3988.03,-1.50115706622294e-06
3988.93,-1.5234568581198764e-06
3989.83,-1.5453091527405239e-06
3990.73,-1.562957836297414e-06
3991.63,-1.5755103917340192e-06
3992.53,-1.5922315646575673e-06
3993.43,-1.601204126827769e-06
3994.33,-1.6096936331402376e-06
3995.23,-1.6025890259633757e-06
3996.13,-1.60529818702271e-06
3997.03,-1.6057401380749705e-06
3997.93,-1.5944287192885505e-06
3998.83,-1.6107969084256886e-06
3999.73,-1.624162818837519e-06
4000.63,-1.6340080673041582e-06
4001.53,-1.652510683381952e-06
4002.43,-1.6686407881053787e-06
4003.33,-1.6663498952740068e-06
4004.23,-1.6732281773877462e-06
4005.13,-1.6641699552972898e-06
4006.03,-1.665436695366232e-06
4006.93,-1.6654253233383084e-06
4007.83,-1.674505552210012e-06
4008.73,-1.6919413194859035e-06
4009.63,-1.7031265067121076e-06
4010.53,-1.7104805547770839e-06
4011.43,-1.7277609959866382e-06
4012.33,-1.7330973058853498e-06
4013.23,-1.7357351515822978e-06
4014.13,-1.745869834565195e-06
4015.03,-1.7473615963877795e-06
4015.93,-1.7564952377956208e-06
4016.84,-1.7508922698367936e-06
4017.74,-1.7649815711189186e-06
4018.64,-1.7684453396002928e-06
4019.54,-1.7699634648466668e-06
4020.44,-1.7812552752747032e-06
4021.34,-1.7887894955226566e-06
4022.24,-1.7823643268312392e-06
4023.14,-1.7892602583951131e-06
4024.04,-1.7891004733626928e-06
4024.94,-1.7915600660751785e-06
4025.84,-1.795204863195097e-06
4026.74,-1.7984622045571473e-06
4027.64,-1.7986990491517746e-06
4028.54,-1.8006469510791615e-06
4029.44,-1.7884837662347453e-06
4030.34,-1.784212448942326e-06
4031.24,-1.765647778382225e-06
4032.14,-1.7540519960351061e-06
4033.04,-1.7479928094484962e-06
4033.94,-1.7468271260931595e-06
4034.84,-1.7657214728860431e-06
4035.74,-1.7802697841511604e-06
4036.64,-1.8093715393535043e-06
4037.54,-1.8296069005415809e-06
4038.44,-1.8428124917262035e-06
4039.34,-1.8581876597769599e-06
4040.24,-1.8499041105015133e-06
4041.14,-1.8606303903077124e-06
4042.04,-1.8474937816011868e-06
4042.94,-1.828544875342134e-06
4043.84,-1.8147935545395143e-06
4044.74,-1.7937325168966507e-06
4045.64,-1.7830015593823356e-06
4046.54,-1.7756175975407655e-06
4047.44,-1.7811919146947945e-06
4048.34,-1.798283614396329e-06
4049.24,-1.815821996048584e-06
4050.14,-1.834622837701682e-06
4051.04,-1.846946466881405e-06
4051.94,-1.8556254630842472e-06
4052.84,-1.853563780800256e-06
4053.74,-1.8549039718383546e-06
4054.65,-1.8467128928629305e-06
4055.55,-1.8384736832717008e-06
4056.45,-1.8371926336425632e-06
4057.35,-1.8316576409325401e-06
4058.25,-1.8322815144913622e-06
4059.15,-1.8331794646991773e-06
4060.05,-1.8518225345116303e-06
4060.95,-1.8393826513624475e-06
4061.85,-1.8338046596280988e-06
4062.75,-1.8251729767656972e-06
4063.65,-1.8087759781471127e-06
4064.55,-1.8065927565366212e-06
4065.45,-1.8089752521260785e-06
4066.35,-1.8008157484677817e-06
4067.25,-1.812084150977293e-06
4068.15,-1.8258822210778683e-06
4069.05,-1.828570189776097e-06
4069.95,-1.842279170118352e-06
4070.85,-1.8360537845760097e-06
4071.75,-1.8307892125180133e-06
4072.65,-1.823549662992385e-06
4073.55,-1.8273613426615105e-06
4074.45,-1.8156047003244824e-06
4075.35,-1.79089095965566e-06
4076.25,-1.7738502481244484e-06
4077.15,-1.7650747253726718e-06
4078.05,-1.7471087623550129e-06
4078.95,-1.743780275521626e-06
4079.85,-1.7490650613347592e-06
4080.75,-1.7586073400200183e-06
4081.65,-1.7744071907383511e-06
4082.55,-1.7818720309044154e-06
4083.45,-1.782959706789407e-06
4084.35,-1.7790688764905128e-06
4085.25,-1.7710354935270436e-06
4086.15,-1.773675783370177e-06
4087.05,-1.7673246270345283e-06
4087.95,-1.7603835025841247e-06
4088.85,-1.7704574564724242e-06
4089.75,-1.7599152818905462e-06
4090.65,-1.7525016649529627e-06
4091.55,-1.7282560260128099e-06
4092.45,-1.6980490088268653e-06
4093.36,-1.673261211490113e-06
4094.26,-1.6266070785257477e-06
4095.16,-1.587632073946281e-06
4096.06,-1.5423400174968387e-06
4096.96,-1.4792703998002152e-06
4097.86,-1.423404337520316e-06
4098.76,-1.3560613639262226e-06
4099.66,-1.2785644883947551e-06
4100.56,-1.2080009270967517e-06
4101.46,-1.1562117980260173e-06
4102.36,-1.1267833672106142e-06
4103.26,-1.1242836743701835e-06
4104.16,-1.1556139696736622e-06
4105.06,-1.2161139852119582e-06
4105.96,-1.286835811134455e-06
4106.86,-1.3578072153628534e-06
4107.76,-1.429264018533423e-06
4108.66,-1.4843148181306818e-06
4109.56,-1.5293507857925285e-06
4110.46,-1.5784812479754932e-06
4111.36,-1.61207643036424e-06
4112.26,-1.6512262096285616e-06
4113.16,-1.690768661257242e-06
4114.06,-1.7231435720583529e-06
4114.96,-1.759309190367901e-06
4115.86,-1.7845644206761203e-06
4116.76,-1.8067556995994282e-06
4117.66,-1.816781480145577e-06
4118.56,-1.8299634855334157e-06
4119.46,-1.8386947177588632e-06
4120.36,-1.8401162936855348e-06
4121.26,-1.8529214333767173e-06
4122.16,-1.8644069400191161e-06
4123.06,-1.8769700989924625e-06
4123.96,-1.8951250045237727e-06
4124.86,-1.9032381939494898e-06
4125.76,-1.922070236603635e-06
4126.66,-1.930685858102128e-06
4127.56,-1.932521468128087e-06
4128.46,-1.9420749028237703e-06
4129.36,-1.944682010779449e-06
4130.26,-1.9359179661815837e-06
4131.17,-1.9309529368656437e-06
4132.06,-1.932608921921462e-06
4132.97,-1.9297535467434327e-06
4133.87,-1.9405809755235848e-06
4134.77,-1.948685928544092e-06
4135.67,-1.9746897921018106e-06
4136.57,-1.986066975861057e-06
4137.47,-2.0181545515713445e-06
4138.37,-2.0259287792418925e-06
4139.27,-2.0475445071998846e-06
4140.17,-2.048603384352626e-06
4141.07,-2.0530501829912325e-06
4141.97,-2.0376151729072805e-06
4142.87,-2.0264611222254397e-06
4143.77,-2.01465779665383e-06
4144.67,-2.0201569670071405e-06
4145.57,-2.0169889522767084e-06
4146.47,-2.035534228885342e-06
4147.37,-2.0364120513073424e-06
4148.27,-2.0550239721595018e-06
4149.17,-2.0610637380060927e-06
4150.07,-2.0680519766041264e-06
4150.97,-2.0728690843702446e-06
4151.87,-2.0703469075248368e-06
4152.77,-2.0700074318717833e-06
4153.67,-2.068096834561705e-06
4154.57,-2.0586447601463235e-06
4155.47,-2.065195901565013e-06
4156.37,-2.0692433508357394e-06
4157.27,-2.0663659037184244e-06
4158.17,-2.0813051157036687e-06
4159.07,-2.0988070860719375e-06
4159.97,-2.1127132888808262e-06
4160.87,-2.133620194918831e-06
4161.77,-2.134122850932111e-06
4162.67,-2.144943870448319e-06
4163.57,-2.1438669984066777e-06
4164.47,-2.152812463464811e-06
4165.37,-2.1501435221462166e-06
4166.27,-2.149858643565145e-06
4167.17,-2.1575594104112144e-06
4168.07,-2.1502381838693665e-06
4168.98,-2.1382801900839285e-06
4169.88,-2.140694160312502e-06
4170.78,-2.1264085971247064e-06
4171.68,-2.1059728722660447e-06
4172.58,-2.0841939151559484e-06
4173.48,-2.069611434365727e-06
4174.38,-2.0595088749849114e-06
4175.28,-2.062146927085989e-06
4176.18,-2.0681877278920087e-06
4177.08,-2.0782925519662734e-06
4177.98,-2.0900431389278144e-06
4178.88,-2.1062077015864743e-06
4179.78,-2.111837147691556e-06
4180.68,-2.121713217533408e-06
4181.58,-2.131448755954762e-06
4182.48,-2.1493715504952733e-06
4183.38,-2.1491878366134878e-06
4184.28,-2.166191508129266e-06
4185.18,-2.1681543492283065e-06
4186.08,-2.1688062346537932e-06
4186.98,-2.1684708099681955e-06
4187.88,-2.161878216877985e-06
4188.78,-2.1644932352526664e-06
4189.68,-2.175526482631924e-06
4190.58,-2.1923672427923065e-06
4191.48,-2.198165825272786e-06
4192.38,-2.1990076644027026e-06
4193.28,-2.215437578142021e-06
4194.18,-2.2104861597018546e-06
4195.08,-2.209841956645575e-06
4195.98,-2.2081942713442032e-06
4196.88,-2.19303711689812e-06
4197.78,-2.175668116886062e-06
4198.68,-2.162095275595813e-06
4199.58,-2.1642145278868565e-06
4200.48,-2.153937192665835e-06
4201.38,-2.154367890771908e-06
4202.28,-2.161348401463143e-06
4203.18,-2.1675030287288786e-06
4204.08,-2.18276551970856e-06
4204.98,-2.197895901820263e-06
4205.88,-2.210867299184934e-06
4206.79,-2.212572882719136e-06
4207.69,-2.2386270153260047e-06
4208.59,-2.2520317965436363e-06
4209.49,-2.2568117085144635e-06
4210.39,-2.2644902143231905e-06
4211.29,-2.2653785367755734e-06
4212.19,-2.264050969967475e-06
4213.09,-2.2635700038176375e-06
4213.99,-2.2506136079583594e-06
4214.89,-2.2518184823325973e-06
4215.79,-2.2300718651415332e-06
4216.69,-2.238278777611103e-06
4217.59,-2.2372308242498107e-06
4218.49,-2.241507507554886e-06
4219.39,-2.2785046660969417e-06
4220.29,-2.2833571414651828e-06
4221.19,-2.2892548400840747e-06
4222.09,-2.2911894060181067e-06
4222.99,-2.266300654487762e-06
4223.89,-2.2470627547583925e-06
4224.79,-2.2189224896118545e-06
4225.69,-2.1743743534441937e-06
4226.59,-2.162935159062517e-06
4227.49,-2.1525084343682654e-06
4228.39,-2.1621099548149045e-06
4229.29,-2.19129397938542e-06
4230.19,-2.22387361729988e-06
4231.09,-2.2495310112805667e-06
4231.99,-2.2820900358751236e-06
4232.89,-2.283130370119952e-06
4233.79,-2.281357724549298e-06
4234.69,-2.2813375076552383e-06
4235.59,-2.2758505384112523e-06
4236.49,-2.2772286670978026e-06
4237.39,-2.274189668183547e-06
4238.29,-2.2718473767832314e-06
4239.19,-2.2884526274032944e-06
4240.09,-2.3082912553136437e-06
4240.99,-2.3228496799584965e-06
4241.89,-2.34046658782549e-06
4242.79,-2.3474407596460743e-06
4243.69,-2.3551432476962628e-06
4244.59,-2.355898871257806e-06
4245.5,-2.3532903520291605e-06
4246.4,-2.3465198695551194e-06
4247.3,-2.327538634431585e-06
4248.2,-2.315863888040684e-06
4249.1,-2.302178356692199e-06
4250.0,-2.308070175998744e-06
4250.9,-2.3217229405296687e-06
4251.8,-2.327829884250947e-06
4252.7,-2.3287100745174424e-06
4253.6,-2.3467758988099716e-06
4254.5,-2.3594514166624725e-06
4255.4,-2.369254757854822e-06
4256.3,-2.369272900944833e-06
4257.2,-2.3772897155771557e-06
4258.1,-2.37549090264314e-06
4259.0,-2.369125620900402e-06
4259.9,-2.3667570642850025e-06
4260.8,-2.3684009993826187e-06
4261.7,-2.3683984586162205e-06
4262.6,-2.3810401901273976e-06
4263.5,-2.4008698623652333e-06
4264.4,-2.423505041419691e-06
4265.3,-2.425585991710404e-06
4266.2,-2.4462796448468263e-06
4267.1,-2.450234342884119e-06
4268.0,-2.4333194916760248e-06
4268.9,-2.4196865729863723e-06
4269.8,-2.3902694355426034e-06
4270.7,-2.3644810609916404e-06
4271.6,-2.3460503639184703e-06
4272.5,-2.3277537960644165e-06
4273.4,-2.3196474348219766e-06
4274.3,-2.3232633026046108e-06
