wave,flux
3700.85,-5.400039298104828e-07
3701.75,-5.323750641909033e-07
3702.65,-5.106654670847107e-07
3703.55,-4.766288999615114e-07
3704.45,-4.3698344465234506e-07
3705.35,-3.9971208140444177e-07
3706.25,-3.72221797866754e-07
3707.15,-3.559418770539752e-07
3708.05,-3.5376672765107914e-07
3708.96,-3.654221913580372e-07
3709.86,-3.9008811851376897e-07
3710.76,-4.259448394979893e-07
3711.66,-4.6749024214828534e-07
3712.56,-5.108207034131947e-07
3713.46,-5.453163224706506e-07
3714.36,-5.64275485303405e-07
3715.26,-5.68569751421352e-07
3716.16,-5.513131812314576e-07
3717.06,-5.184075834890759e-07
3717.96,-4.737670211132495e-07
3718.86,-4.216157719741797e-07
3719.76,-3.7113801697589517e-07
3720.66,-3.3239569111614767e-07
3721.56,-3.114925902767506e-07
3722.46,-3.139486936334759e-07
3723.36,-3.3863404314080246e-07
3724.26,-3.7119121049534606e-07
3725.16,-4.0582796518046943e-07
3726.06,-4.3243113534719987e-07
3726.96,-4.4763561575294694e-07
3727.86,-4.5048668822576187e-07
3728.76,-4.4885953300043443e-07
3729.66,-4.4411363788780756e-07
3730.56,-4.3043063406761726e-07
3731.46,-4.103159710506709e-07
3732.36,-3.8013365326108167e-07
3733.26,-3.440369857823649e-07
3734.16,-3.046843538655749e-07
3735.06,-2.754378265564836e-07
3735.96,-2.6003396451115634e-07
3736.86,-2.6233776346195413e-07
3737.76,-2.844058786784942e-07
3738.66,-3.1937025973902774e-07
3739.56,-3.6014874117764736e-07
3740.46,-3.989318045392302e-07
3741.36,-4.213030506538629e-07
3742.26,-4.2613734176759017e-07
3743.16,-4.120500944940572e-07
3744.06,-3.8373975251471e-07
3744.96,-3.5321771986063e-07
3745.86,-3.237816140464212e-07
3746.76,-2.999976074947574e-07
3747.67,-2.846838931392235e-07
3748.57,-2.8068336991166854e-07
3749.47,-2.8772662549692695e-07
3750.37,-3.116074170100561e-07
3751.27,-3.503136471760668e-07
3752.17,-3.9706470431977786e-07
3753.07,-4.481080252480537e-07
3753.97,-4.9141571308903e-07
3754.87,-5.197851215459326e-07
3755.77,-5.295890050366533e-07
3756.67,-5.168193870065856e-07
3757.57,-4.905027502691381e-07
3758.47,-4.602867174854289e-07
3759.37,-4.341468225090796e-07
3760.27,-4.2542148125980754e-07
3761.17,-4.2574417017096824e-07
3762.07,-4.346135940792495e-07
3762.97,-4.429086040474524e-07
3763.87,-4.470338147698489e-07
3764.77,-4.4936838366822e-07
3765.67,-4.5129890015855256e-07
3766.57,-4.580612862645894e-07
3767.47,-4.682972812027205e-07
3768.37,-4.875297902259511e-07
3769.27,-5.125805354709423e-07
3770.17,-5.374566127808955e-07
3771.07,-5.6595753534784e-07
3771.97,-5.93369840973646e-07
3772.87,-6.143729291863314e-07
3773.77,-6.315477423592894e-07
3774.67,-6.412135741807845e-07
3775.57,-6.460885420708642e-07
3776.47,-6.485263339250768e-07
3777.37,-6.488697051570773e-07
3778.27,-6.553740981282e-07
3779.17,-6.704289469343583e-07
3780.07,-6.833094483551754e-07
3780.97,-6.986532140678794e-07
3781.87,-7.076892323324969e-07
3782.77,-7.155169036445525e-07
3783.67,-7.090376969178728e-07
3784.57,-6.966922585921281e-07
3785.47,-6.66816387183781e-07
3786.38,-6.317216889273545e-07
3787.28,-5.931071674803984e-07
3788.18,-5.587132588029622e-07
3789.08,-5.334218300208561e-07
3789.98,-5.242785780848354e-07
3790.88,-5.223657670573786e-07
3791.78,-5.285980568380343e-07
3792.68,-5.288868962071356e-07
3793.58,-5.266470102131621e-07
3794.48,-5.18439534457989e-07
3795.38,-5.046681795133902e-07
3796.28,-4.909434109983751e-07
3797.18,-4.818613280997632e-07
3798.08,-4.771562424663146e-07
3798.98,-4.783630958895698e-07
3799.88,-4.940927931859791e-07
3800.78,-5.222878772661714e-07
3801.68,-5.615921529770675e-07
3802.58,-6.006879360281995e-07
3803.48,-6.361523232039752e-07
3804.38,-6.612251468992688e-07
3805.28,-6.703319840343238e-07
3806.18,-6.670504142271991e-07
3807.08,-6.622091282841789e-07
3807.98,-6.575416886739858e-07
3808.88,-6.582688419503183e-07
3809.78,-6.638270239075607e-07
3810.68,-6.668919032751124e-07
3811.58,-6.594291383651598e-07
3812.48,-6.411881063319616e-07
3813.38,-6.069175494033468e-07
3814.28,-5.695124453612745e-07
3815.18,-5.316896203026678e-07
3816.08,-5.053464434827874e-07
3816.98,-4.841161792087598e-07
3817.88,-4.707352044090978e-07
3818.78,-4.632753823638238e-07
3819.68,-4.478742942922596e-07
3820.58,-4.367883987280966e-07
3821.48,-4.2686390660628176e-07
3822.38,-4.1844132166785325e-07
3823.28,-4.1125362696254204e-07
3824.18,-4.021436978434603e-07
3825.09,-3.87648489772891e-07
3825.99,-3.728482212411215e-07
3826.89,-3.6119398124290905e-07
3827.79,-3.556209744471465e-07
3828.69,-3.5887788024525954e-07
3829.59,-3.6510152672523446e-07
3830.49,-3.7068078413151046e-07
3831.39,-3.7367514417103407e-07
3832.29,-3.719381058390151e-07
3833.19,-3.697149757667042e-07
3834.09,-3.671466263200726e-07
3834.99,-3.707764907635375e-07
3835.89,-3.7713049619856473e-07
3836.79,-3.829866289278607e-07
3837.69,-3.8340445685404217e-07
3838.59,-3.8509297527669364e-07
3839.49,-3.855406615379639e-07
3840.39,-3.96713429672025e-07
3841.29,-4.199329652766277e-07
3842.19,-4.571855646807204e-07
3843.09,-5.017108029549272e-07
3843.99,-5.443953427580923e-07
3844.89,-5.803476805509726e-07
3845.79,-6.038662378589084e-07
3846.69,-6.211589991627593e-07
3847.59,-6.237277297636119e-07
3848.49,-6.217483548554778e-07
3849.39,-6.141419462859124e-07
3850.29,-6.108078253257963e-07
3851.19,-6.033806707211679e-07
3852.09,-6.031731394803614e-07
3852.99,-5.997080960072449e-07
3853.89,-5.952905651406347e-07
3854.79,-5.877692383637525e-07
3855.69,-5.660027926955441e-07
3856.59,-5.438918441154745e-07
3857.49,-5.191439301539337e-07
3858.39,-4.962155105012473e-07
3859.29,-4.807885677295988e-07
3860.19,-4.7666025954320707e-07
3861.09,-4.91672595465598e-07
3861.99,-5.251715697595812e-07
3862.9,-5.626021870682954e-07
3863.8,-6.007253027137191e-07
3864.7,-6.274486985977339e-07
3865.6,-6.414150380071553e-07
3866.5,-6.45250095546342e-07
3867.4,-6.365724885971266e-07
3868.3,-6.19603161048289e-07
3869.2,-6.02898552514744e-07
3870.1,-5.861798089281832e-07
3871.0,-5.68644541663194e-07
3871.9,-5.595137401857559e-07
3872.8,-5.679378471422723e-07
3873.7,-5.838904154012266e-07
3874.6,-6.134840718756808e-07
3875.5,-6.438063740898224e-07
3876.4,-6.55679448864264e-07
3877.3,-6.55251266347072e-07
3878.2,-6.437212033244732e-07
3879.1,-6.297215749600271e-07
3880.0,-6.199054172372691e-07
3880.9,-6.165826688402863e-07
3881.8,-6.208892764651237e-07
3882.7,-6.305609180658635e-07
3883.6,-6.420202873042352e-07
3884.5,-6.512123330988656e-07
3885.4,-6.505430994439007e-07
3886.3,-6.428160124658973e-07
3887.2,-6.413869142473793e-07
3888.1,-6.487491664749447e-07
3889.0,-6.708317006152865e-07
3889.9,-7.111820695121183e-07
3890.8,-7.634906168858639e-07
3891.7,-8.164394041581607e-07
3892.6,-8.620699063892542e-07
3893.5,-8.945214710159322e-07
3894.4,-9.11893275334758e-07
3895.3,-9.169156723212308e-07
3896.2,-9.170840276089797e-07
3897.1,-9.143470572711278e-07
3898.0,-9.146897030570129e-07
3898.9,-9.113285945973038e-07
3899.8,-9.113724558537075e-07
3900.7,-9.104260957544888e-07
3901.6,-9.073790931097883e-07
3902.51,-9.059035380905724e-07
3903.41,-8.923572033578494e-07
3904.31,-8.797679093332294e-07
3905.21,-8.699582831712153e-07
3906.11,-8.736014057167511e-07
3907.01,-8.970121394800618e-07
3907.91,-9.32124685445617e-07
3908.81,-9.789765503860909e-07
3909.71,-1.0316089962920203e-06
3910.61,-1.0715223039209067e-06
3911.51,-1.1107670217238694e-06
3912.41,-1.1308612035086658e-06
3913.31,-1.149426620916404e-06
3914.21,-1.1519777140036532e-06
3915.11,-1.1409834497669824e-06
3916.01,-1.1251703794064088e-06
3916.91,-1.097678402882959e-06
3917.81,-1.0680509192973517e-06
3918.71,-1.02650446804617e-06
3919.61,-9.795835666532886e-07
3920.51,-9.385177967727088e-07
3921.41,-8.93455129007628e-07
3922.31,-8.691654166754712e-07
3923.21,-8.51648703081855e-07
3924.11,-8.44370031571216e-07
3925.01,-8.320095836912015e-07
3925.91,-8.099030565245912e-07
3926.81,-7.712372873902988e-07
3927.71,-7.163825430279829e-07
3928.61,-6.447426829905789e-07
3929.51,-5.742690141148479e-07
3930.41,-5.0548074662903e-07
3931.31,-4.43170525785928e-07
3932.21,-3.905863449680082e-07
3933.11,-3.5691615325944e-07
3934.01,-3.3727616008896134e-07
3934.91,-3.3991909288824653e-07
3935.81,-3.6243087419892854e-07
3936.71,-4.056955368308618e-07
3937.61,-4.645416476670318e-07
3938.51,-5.366175212738782e-07
3939.42,-6.072833571021145e-07
3940.32,-6.709261020989805e-07
3941.22,-7.243625176973431e-07
3942.12,-7.634296587621019e-07
3943.02,-7.967411384716625e-07
3943.92,-8.275403508737893e-07
3944.82,-8.627218324725646e-07
3945.72,-9.134015465521947e-07
3946.62,-9.6589502645261e-07
3947.52,-1.0315347146231e-06
3948.42,-1.0910653356245605e-06
3949.32,-1.142769496285715e-06
3950.22,-1.194142869410572e-06
3951.12,-1.2292977335020063e-06
3952.02,-1.259789338103324e-06
3952.92,-1.2762549323847994e-06
3953.82,-1.2911653232934778e-06
3954.72,-1.2958961190528178e-06
3955.62,-1.2930347184986933e-06
3956.52,-1.2842119287053898e-06
3957.42,-1.2631435394907411e-06
3958.32,-1.2332390290411088e-06
3959.22,-1.191083901916882e-06
3960.12,-1.1346436288554766e-06
3961.02,-1.0649320572203688e-06
3961.92,-9.772548025070827e-07
3962.82,-8.903620813391694e-07
3963.72,-8.08722768493486e-07
3964.62,-7.354578817196293e-07
3965.52,-6.662619329614896e-07
3966.42,-5.970008804722188e-07
3967.32,-5.350226158551259e-07
3968.22,-4.887127907051203e-07
3969.12,-4.629468680579559e-07
3970.02,-4.648347020927733e-07
3970.92,-5.001187750698971e-07
3971.82,-5.615647698816918e-07
3972.72,-6.467390217730619e-07
3973.62,-7.46277116619965e-07
3974.52,-8.575549158067975e-07
3975.42,-9.647692412154326e-07
3976.32,-1.0707581364272046e-06
3977.22,-1.1796053204503828e-06
3978.13,-1.2845637632302283e-06
3979.03,-1.3774331723761737e-06
3979.93,-1.454881686654944e-06
3980.83,-1.5159892114792041e-06
3981.73,-1.5541534313019277e-06
3982.63,-1.5855772178411719e-06
3983.53,-1.5993036215856856e-06
3984.43,-1.6169116077227863e-06
3985.33,-1.640795317328456e-06
3986.23,-1.6723929358856472e-06
3987.13,-1.7060855594208607e-06
3988.03,-1.7325471794663673e-06
3988.93,-1.7642227116819734e-06
3989.83,-1.7827972736327616e-06
3990.73,-1.8217624745791917e-06
3991.63,-1.8452902270992686e-06
3992.53,-1.8554061770584183e-06
3993.43,-1.8630997787161713e-06
3994.33,-1.8717495991722033e-06
3995.23,-1.8603037414620178e-06
3996.13,-1.8494277874009277e-06
3997.03,-1.850383348099946e-06
3997.93,-1.8558230201175736e-06
3998.83,-1.8643932207452326e-06
3999.73,-1.912000458130535e-06
4000.63,-1.9648877195167537e-06
4001.53,-2.005225388861696e-06
4002.43,-2.0402158582093824e-06
4003.33,-2.0330356870164073e-06
4004.23,-2.0108933887005723e-06
4005.13,-1.9632858509525974e-06
4006.03,-1.931270081971031e-06
4006.93,-1.9143356650613816e-06
4007.83,-1.9217640838761313e-06
4008.73,-1.9630005225863324e-06
4009.63,-2.015054749285656e-06
4010.53,-2.069065634372312e-06
4011.43,-2.1204354261185482e-06
4012.33,-2.167362670778997e-06
4013.23,-2.181722100275324e-06
4014.13,-2.2130031102718216e-06
4015.03,-2.243179954792898e-06
4015.93,-2.247633149663574e-06
4016.84,-2.2595829965453504e-06
4017.74,-2.2684294343843615e-06
4018.64,-2.2766503593982704e-06
4019.54,-2.2920633009208518e-06
4020.44,-2.3054812552441116e-06
4021.34,-2.3118835259422493e-06
4022.24,-2.319250402639909e-06
4023.14,-2.3112207048427543e-06
4024.04,-2.3207420020183973e-06
4024.94,-2.322580646905739e-06
4025.84,-2.3398058414991014e-06
4026.74,-2.3588870255302005e-06
4027.64,-2.382575609881171e-06
4028.54,-2.3557037703316524e-06
4029.44,-2.324308793884773e-06
4030.34,-2.257499136420045e-06
4031.24,-2.1681925693508054e-06
4032.14,-2.071659993210064e-06
4033.04,-2.008037110107804e-06
4033.94,-1.993458488829821e-06
4034.84,-2.030811240101085e-06
4035.74,-2.102461666958214e-06
4036.64,-2.22538632162757e-06
4037.54,-2.334082069713399e-06
4038.44,-2.435642386011219e-06
4039.34,-2.497671329783133e-06
4040.24,-2.5274100874199598e-06
4041.14,-2.5195803182149346e-06
4042.04,-2.4760842936982232e-06
4042.94,-2.3932646391405738e-06
4043.84,-2.2733982726708397e-06
4044.74,-2.1628548429563654e-06
4045.64,-2.0623481454461638e-06
4046.54,-2.028884866674653e-06
4047.44,-2.033266100900817e-06
4048.34,-2.132477946298467e-06
4049.24,-2.252292532943402e-06
4050.14,-2.3794142387909384e-06
4051.04,-2.494900175630906e-06
4051.94,-2.5462770055450674e-06
4052.84,-2.573596633083336e-06
4053.74,-2.5474851347036377e-06
4054.65,-2.516478874578895e-06
4055.55,-2.4665088986660367e-06
4056.45,-2.426207139005596e-06
4057.35,-2.39389593418453e-06
4058.25,-2.3751873074589393e-06
4059.15,-2.3661641027708033e-06
4060.05,-2.3719787224969847e-06
4060.95,-2.3647252974536503e-06
4061.85,-2.332465333099488e-06
4062.75,-2.2860594672601433e-06
4063.65,-2.2450596606929146e-06
4064.55,-2.2010296969844445e-06
4065.45,-2.216926019946351e-06
4066.35,-2.253397251361232e-06
4067.25,-2.3243781801073845e-06
4068.15,-2.4094917785311972e-06
4069.05,-2.4825761122600284e-06
4069.95,-2.5059678801032095e-06
4070.85,-2.5225471257452824e-06
4071.75,-2.514108188722408e-06
4072.65,-2.502588109185197e-06
4073.55,-2.5156706043783277e-06
4074.45,-2.5119058122365678e-06
4075.35,-2.5101653463645808e-06
4076.25,-2.512336922611045e-06
4077.15,-2.4951872110385677e-06
4078.05,-2.510043597277149e-06
4078.95,-2.5524140589383353e-06
4079.85,-2.599891519734403e-06
4080.75,-2.7119898804796364e-06
4081.65,-2.804737909783111e-06
4082.55,-2.8879901498171893e-06
4083.45,-2.929305942118363e-06
4084.35,-2.967050195224428e-06
4085.25,-2.981733215987065e-06
4086.15,-3.0328967633345048e-06
4087.05,-3.093673895937862e-06
4087.95,-3.1672070306946808e-06
4088.85,-3.24699766643101e-06
4089.75,-3.306717631441571e-06
4090.65,-3.321406123481749e-06
4091.55,-3.3145034693223536e-06
4092.45,-3.2957016621425463e-06
4093.36,-3.2428812250972647e-06
4094.26,-3.183706520872164e-06
4095.16,-3.115914274070012e-06
4096.06,-3.0605639773394727e-06
4096.96,-2.972333965544377e-06
4097.86,-2.8934985195215454e-06
4098.76,-2.8114002210036077e-06
4099.66,-2.757472151375536e-06
4100.56,-2.6854188954173947e-06
4101.46,-2.6455254158416385e-06
4102.36,-2.6208498232021105e-06
4103.26,-2.6628079696768074e-06
4104.16,-2.721063271487075e-06
4105.06,-2.830313101717738e-06
4105.96,-2.9533568422937594e-06
4106.86,-3.058291555911953e-06
4107.76,-3.123910008422696e-06
4108.66,-3.1851877866475698e-06
4109.56,-3.1998551435844986e-06
4110.46,-3.1897716767525965e-06
4111.36,-3.2012034521066975e-06
4112.26,-3.22292195257585e-06
4113.16,-3.240892956730726e-06
4114.06,-3.310464481409595e-06
4114.96,-3.363842838847839e-06
4115.86,-3.3910433116320855e-06
4116.76,-3.402389853632559e-06
4117.66,-3.394567774697145e-06
4118.56,-3.390635817782597e-06
4119.46,-3.359928364212343e-06
4120.36,-3.344245348932167e-06
4121.26,-3.338337982209849e-06
4122.16,-3.3600933567370435e-06
4123.06,-3.3719832038636727e-06
4123.96,-3.386360758076109e-06
4124.86,-3.434001178207151e-06
4125.76,-3.461443691824293e-06
4126.66,-3.4572102557785657e-06
4127.56,-3.449096102885654e-06
4128.46,-3.4025399224829737e-06
4129.36,-3.3520494164551955e-06
4130.26,-3.297953744514847e-06
4131.17,-3.2375373179448137e-06
4132.06,-3.1674526590347466e-06
4132.97,-3.124156766210347e-06
4133.87,-3.1302425782426205e-06
4134.77,-3.167237645313751e-06
4135.67,-3.257797269749554e-06
4136.57,-3.379780603125932e-06
4137.47,-3.4892323466001485e-06
4138.37,-3.5728438091076417e-06
4139.27,-3.6265884787196287e-06
4140.17,-3.6489413391947634e-06
4141.07,-3.569233877556205e-06
4141.97,-3.4841922018649854e-06
4142.87,-3.3552131070363613e-06
4143.77,-3.268530072848092e-06
4144.67,-3.2336110003314486e-06
4145.57,-3.227602370330804e-06
4146.47,-3.275470872059335e-06
4147.37,-3.3554772425475354e-06
4148.27,-3.4289197067178486e-06
4149.17,-3.4893404984385855e-06
4150.07,-3.502495556783076e-06
4150.97,-3.504310351547705e-06
4151.87,-3.4916411424749954e-06
4152.77,-3.4858466554661503e-06
4153.67,-3.4756060400351346e-06
4154.57,-3.4630072593725483e-06
4155.47,-3.4714899891473987e-06
4156.37,-3.500946014601944e-06
4157.27,-3.5392696175861273e-06
4158.17,-3.6146203889709635e-06
4159.07,-3.6996612084869785e-06
4159.97,-3.805005097510158e-06
4160.87,-3.907734227993511e-06
4161.77,-3.981307552741288e-06
4162.67,-4.050240309648075e-06
4163.57,-4.071008035789244e-06
4164.47,-4.070358026293546e-06
4165.37,-4.0645055385223375e-06
4166.27,-4.033960101231515e-06
4167.17,-3.964874566200939e-06
4168.07,-3.945556694863293e-06
4168.98,-3.909765303309968e-06
4169.88,-3.868461465042288e-06
4170.78,-3.832740839192761e-06
4171.68,-3.788489793703123e-06
4172.58,-3.730751832914361e-06
4173.48,-3.6638865019855506e-06
4174.38,-3.6198245216632683e-06
4175.28,-3.613433352914604e-06
4176.18,-3.633394483609354e-06
4177.08,-3.692738561213605e-06
4177.98,-3.748847454990973e-06
4178.88,-3.8096319837904245e-06
4179.78,-3.845814371724331e-06
4180.68,-3.911500199009424e-06
4181.58,-3.93857255515835e-06
4182.48,-3.9773842532973956e-06
4183.38,-4.013459824498346e-06
4184.28,-4.044967064575811e-06
4185.18,-4.06986767774163e-06
4186.08,-4.084734005305438e-06
4186.98,-4.080353551619794e-06
4187.88,-4.085588126927548e-06
4188.78,-4.099254104773211e-06
4189.68,-4.12999763683552e-06
4190.58,-4.174625657053167e-06
4191.48,-4.247274638294287e-06
4192.38,-4.3254532596614145e-06
4193.28,-4.351037127658449e-06
4194.18,-4.379656890205276e-06
4195.08,-4.339462377151943e-06
4195.98,-4.248120390792285e-06
4196.88,-4.1387344222053526e-06
4197.78,-4.0435909081466165e-06
4198.68,-3.965081440484726e-06
4199.58,-3.911701410882316e-06
4200.48,-3.90794271093201e-06
4201.38,-3.918558924367379e-06
4202.28,-3.9981927911864115e-06
4203.18,-4.0806693614975115e-06
4204.08,-4.204495695918997e-06
4204.98,-4.348965642273159e-06
4205.88,-4.502094240653512e-06
4206.79,-4.630326193671646e-06
4207.69,-4.766732277775708e-06
4208.59,-4.860826801963713e-06
4209.49,-4.898448411577248e-06
4210.39,-4.934438205121164e-06
4211.29,-4.938109545563242e-06
4212.19,-4.937487009959898e-06
4213.09,-4.870958189201247e-06
4213.99,-4.828480955512728e-06
4214.89,-4.782152214211355e-06
4215.79,-4.778775520568866e-06
4216.69,-4.784521377207059e-06
4217.59,-4.8757843707900385e-06
4218.49,-4.978137092959549e-06
4219.39,-5.117358112091029e-06
4220.29,-5.203771400195914e-06
4221.19,-5.249709925554709e-06
4222.09,-5.171138763460142e-06
4222.99,-4.986846719664813e-06
4223.89,-4.729193219106695e-06
4224.79,-4.385749449761766e-06
4225.69,-4.075285629139767e-06
4226.59,-3.860522440072203e-06
4227.49,-3.746378767380799e-06
4228.39,-3.8048649758195517e-06
4229.29,-4.022468564623709e-06
4230.19,-4.333000451275365e-06
4231.09,-4.6364491685028545e-06
4231.99,-4.86772854165361e-06
4232.89,-5.055190247479171e-06
4233.79,-5.130054094634882e-06
4234.69,-5.109537905995083e-06
4235.59,-5.086178300627322e-06
4236.49,-5.045862070751922e-06
4237.39,-5.046108090639814e-06
4238.29,-5.0896879345518845e-06
4239.19,-5.153452450298009e-06
4240.09,-5.276103655410341e-06
4240.99,-5.42892251372362e-06
4241.89,-5.594342407262959e-06
4242.79,-5.73438516538221e-06
4243.69,-5.876504904723198e-06
4244.59,-5.996766621350423e-06
4245.5,-6.048811108210951e-06
4246.4,-6.00384564038096e-06
4247.3,-5.90891407327886e-06
4248.2,-5.7778863738469125e-06
4249.1,-5.596384364522885e-06
4250.0,-5.437406554638561e-06
4250.9,-5.316698965702929e-06
4251.8,-5.240313800166033e-06
4252.7,-5.234296267154179e-06
4253.6,-5.273221357851496e-06
4254.5,-5.325538805722833e-06
4255.4,-5.397226960334491e-06
4256.3,-5.485685145048987e-06
4257.2,-5.554631276869699e-06
4258.1,-5.5743004959978784e-06
4259.0,-5.581848404383616e-06
4259.9,-5.548106035220589e-06
4260.8,-5.561268928469595e-06
4261.7,-5.622091090878507e-06
4262.6,-5.795616994039793e-06
4263.5,-6.00932728815765e-06
4264.4,-6.233531157866018e-06
4265.3,-6.422742020288176e-06
4266.2,-6.538025417782347e-06
4267.1,-6.550492355906559e-06
4268.0,-6.4590205038673506e-06
4268.9,-6.220556566023736e-06
4269.8,-5.952091862458491e-06
4270.7,-5.62342622553563e-06
4271.6,-5.356351127473414e-06
4272.5,-5.0981747283843196e-06
4273.4,-4.974510176584045e-06
4274.3,-5.0067478565700055e-06
4275.2,-5.153723956025994e-06
4276.1,-5.437784929769446e-06
4277.0,-5.707168944437886e-06
4277.9,-5.965811924751643e-06
