wave,flux
3700.85,-4.49878087849213e-07
3701.75,-4.4522271819680723e-07
3702.65,-4.3355364554928213e-07
3703.55,-4.1563123227969795e-07
3704.45,-3.9580047328558267e-07
3705.35,-3.815923148789851e-07
3706.25,-3.7048314199697364e-07
3707.15,-3.664025363872009e-07
3708.05,-3.7032294961185187e-07
3708.96,-3.757835205086327e-07
3709.86,-3.8289122557457305e-07
3710.76,-3.9187478836678076e-07
3711.66,-4.041257587533225e-07
3712.56,-4.1663163793530744e-07
3713.46,-4.3446978574028235e-07
3714.36,-4.5002643720824486e-07
3715.26,-4.6298761071050283e-07
3716.16,-4.6971043134647985e-07
3717.06,-4.6780967180745187e-07
3717.96,-4.564350137537471e-07
3718.86,-4.3675986767381195e-07
3719.76,-4.092073470401618e-07
3720.66,-3.828929631372099e-07
3721.56,-3.64399795539676e-07
3722.46,-3.5817641616540903e-07
3723.36,-3.6528599865430166e-07
3724.26,-3.8358997803609555e-07
3725.16,-4.053710212190059e-07
3726.06,-4.2587137374635307e-07
3726.96,-4.41549587398695e-07
3727.86,-4.469064382027853e-07
3728.76,-4.506626723021709e-07
3729.66,-4.4519443417543076e-07
3730.56,-4.3914104157859314e-07
3731.46,-4.237165233878829e-07
3732.36,-4.0001045188178617e-07
3733.26,-3.7420586125089913e-07
3734.16,-3.4952174539515935e-07
3735.06,-3.2879931666128364e-07
3735.96,-3.2331148301515854e-07
3736.86,-3.300169026821544e-07
3737.76,-3.5027047549152104e-07
3738.66,-3.783740988909139e-07
3739.56,-4.093030134416664e-07
3740.46,-4.3512312433607435e-07
3741.36,-4.5378607266743844e-07
3742.26,-4.605673603029274e-07
3743.16,-4.556628928794938e-07
3744.06,-4.448192684736008e-07
3744.96,-4.274498160837908e-07
3745.86,-4.088176411431771e-07
3746.76,-3.8739475388628314e-07
3747.67,-3.6699232007736114e-07
3748.57,-3.4723649647892696e-07
3749.47,-3.3711432257449744e-07
3750.37,-3.3449685157176624e-07
3751.27,-3.500864711501977e-07
3752.17,-3.7584634346826347e-07
3753.07,-4.072650293148814e-07
3753.97,-4.432188064875683e-07
3754.87,-4.7153910338042587e-07
3755.77,-4.870645189163941e-07
3756.67,-4.912746094084461e-07
3757.57,-4.852946974164006e-07
3758.47,-4.7435476294108116e-07
3759.37,-4.632533238592539e-07
3760.27,-4.5600776834844666e-07
3761.17,-4.6078735865408613e-07
3762.07,-4.6975510480045034e-07
3762.97,-4.7542022194359683e-07
3763.87,-4.802293326983389e-07
3764.77,-4.831582010929981e-07
3765.67,-4.789710452251407e-07
3766.57,-4.71095708272273e-07
3767.47,-4.586013200720706e-07
3768.37,-4.48511807610018e-07
3769.27,-4.3518131528364255e-07
3770.17,-4.2672965509119154e-07
3771.07,-4.259948248307388e-07
3771.97,-4.333234421388093e-07
3772.87,-4.4841130062737357e-07
3773.77,-4.667501087776944e-07
3774.67,-4.863236487949336e-07
3775.57,-5.025323970928144e-07
3776.47,-5.215185785901583e-07
3777.37,-5.354428794733536e-07
3778.27,-5.488937485507511e-07
3779.17,-5.648751601724386e-07
3780.07,-5.806223844179269e-07
3780.97,-5.948726223391755e-07
3781.87,-6.039109177848064e-07
3782.77,-6.08803134736256e-07
3783.67,-6.122800571412609e-07
3784.57,-6.0573481144535e-07
3785.47,-5.960341292039542e-07
3786.38,-5.780331931719598e-07
3787.28,-5.597022321846632e-07
3788.18,-5.438935824167319e-07
3789.08,-5.315287050763245e-07
3789.98,-5.239701907240628e-07
3790.88,-5.180707732891973e-07
3791.78,-5.089705479348193e-07
3792.68,-5.015961756256362e-07
3793.58,-4.862591373584716e-07
3794.48,-4.6980117527671636e-07
3795.38,-4.4823090612072405e-07
3796.28,-4.2431148958104636e-07
3797.18,-4.0618813613433215e-07
3798.08,-3.9594983559236903e-07
3798.98,-3.951710232358444e-07
3799.88,-4.0807153900344435e-07
3800.78,-4.3401803214973046e-07
3801.68,-4.660521272626574e-07
3802.58,-5.024705284914405e-07
3803.48,-5.332123259507364e-07
3804.38,-5.578581692968994e-07
3805.28,-5.720531623232272e-07
3806.18,-5.849655416440402e-07
3807.08,-5.894787349802315e-07
3807.98,-5.916355893100089e-07
3808.88,-6.03004324695202e-07
3809.78,-6.124715096939899e-07
3810.68,-6.192056050843411e-07
3811.58,-6.171112731216342e-07
3812.48,-6.103171479599466e-07
3813.38,-5.97723733546488e-07
3814.28,-5.838290015889725e-07
3815.18,-5.688199370701871e-07
3816.08,-5.620508219584223e-07
3816.98,-5.599996351426738e-07
3817.88,-5.616695257198623e-07
3818.78,-5.604739635612125e-07
3819.68,-5.62078252535228e-07
3820.58,-5.566385249128929e-07
3821.48,-5.495724884819405e-07
3822.38,-5.449057494972246e-07
3823.28,-5.387072079567776e-07
3824.18,-5.287479935618609e-07
3825.09,-5.171673135757151e-07
3825.99,-5.021891168217093e-07
3826.89,-4.878304544449271e-07
3827.79,-4.786414347044217e-07
3828.69,-4.6991816330655845e-07
3829.59,-4.604330082501282e-07
3830.49,-4.492993700157746e-07
3831.39,-4.3377373759607503e-07
3832.29,-4.153948499515619e-07
3833.19,-3.9421034987376174e-07
3834.09,-3.729036228629173e-07
3834.99,-3.582914371049974e-07
3835.89,-3.499336071528022e-07
3836.79,-3.5053184475294116e-07
3837.69,-3.6105745222956213e-07
3838.59,-3.7412430900030094e-07
3839.49,-3.945094699314904e-07
3840.39,-4.1853349320763053e-07
3841.29,-4.498673126452577e-07
3842.19,-4.778037001077034e-07
3843.09,-5.125943861212399e-07
3843.99,-5.418018112231164e-07
3844.89,-5.66336175259956e-07
3845.79,-5.851738860628993e-07
3846.69,-6.021068320863071e-07
3847.59,-6.119264013424397e-07
3848.49,-6.211583166124157e-07
3849.39,-6.263209893865162e-07
3850.29,-6.30618413502981e-07
3851.19,-6.365465061376001e-07
3852.09,-6.430642991881384e-07
3852.99,-6.468362092214709e-07
3853.89,-6.486614183954912e-07
3854.79,-6.448228973871022e-07
3855.69,-6.417567781593184e-07
3856.59,-6.34568724039395e-07
3857.49,-6.23531493857709e-07
3858.39,-6.145068424115697e-07
3859.29,-6.109586787513879e-07
3860.19,-6.091272205090512e-07
3861.09,-6.148772582781109e-07
3861.99,-6.297709973353015e-07
3862.9,-6.445840428847495e-07
3863.8,-6.606470743623641e-07
3864.7,-6.686107593331253e-07
3865.6,-6.750560112087959e-07
3866.5,-6.765377234110227e-07
3867.4,-6.756539213440049e-07
3868.3,-6.744807723343471e-07
3869.2,-6.658866247019794e-07
3870.1,-6.596649266306721e-07
3871.0,-6.450486388387889e-07
3871.9,-6.356237422722382e-07
3872.8,-6.263830553876263e-07
3873.7,-6.212700739164205e-07
3874.6,-6.17578429850568e-07
3875.5,-6.213748964952243e-07
3876.4,-6.231358387524415e-07
3877.3,-6.17230980798772e-07
3878.2,-6.126932427656802e-07
3879.1,-6.056487145113241e-07
3880.0,-6.006113635406928e-07
3880.9,-5.98023268369299e-07
3881.8,-5.92240576781397e-07
3882.7,-5.856304880599388e-07
3883.6,-5.724420791218421e-07
3884.5,-5.562496922878913e-07
3885.4,-5.340484457284671e-07
3886.3,-5.095379677607738e-07
3887.2,-4.836784325631944e-07
3888.1,-4.6288636886442173e-07
3889.0,-4.4968473985357366e-07
3889.9,-4.492638461969879e-07
3890.8,-4.618943860719967e-07
3891.7,-4.823602886416903e-07
3892.6,-5.12730210836409e-07
3893.5,-5.369506736588703e-07
3894.4,-5.626909969436813e-07
3895.3,-5.795889413875212e-07
3896.2,-5.980106742532526e-07
3897.1,-6.140546880616989e-07
3898.0,-6.242936669616059e-07
3898.9,-6.35321955646294e-07
3899.8,-6.434476767589869e-07
3900.7,-6.518553334445616e-07
3901.6,-6.57959515640318e-07
3902.51,-6.645872527931959e-07
3903.41,-6.624791263086428e-07
3904.31,-6.635860468057834e-07
3905.21,-6.588465164024227e-07
3906.11,-6.610860845390006e-07
3907.01,-6.674844247624061e-07
3907.91,-6.81060112448188e-07
3908.81,-6.942263347957437e-07
3909.71,-7.156149857194075e-07
3910.61,-7.289269146567227e-07
3911.51,-7.452362535943474e-07
3912.41,-7.517158828356549e-07
3913.31,-7.522346775956324e-07
3914.21,-7.466555232120292e-07
3915.11,-7.404324577252744e-07
3916.01,-7.332921495989725e-07
3916.91,-7.28025527249062e-07
3917.81,-7.196351259629991e-07
3918.71,-7.112588556393957e-07
3919.61,-7.001257669083299e-07
3920.51,-6.924876895741222e-07
3921.41,-6.852141570297442e-07
3922.31,-6.811153346150483e-07
3923.21,-6.745766190407258e-07
3924.11,-6.750383526693401e-07
3925.01,-6.643847723897546e-07
3925.91,-6.458616290241242e-07
3926.81,-6.183332683859735e-07
3927.71,-5.862332592949709e-07
3928.61,-5.392627732479985e-07
3929.51,-4.902001124326411e-07
3930.41,-4.357320156717229e-07
3931.31,-3.826638565857851e-07
3932.21,-3.335309530521253e-07
3933.11,-2.951469056294172e-07
3934.01,-2.718762346604103e-07
3934.91,-2.6763821134759347e-07
3935.81,-2.8391833430821026e-07
3936.71,-3.185855389585581e-07
3937.61,-3.658135638260185e-07
3938.51,-4.2168449266352277e-07
3939.42,-4.7614996937284705e-07
3940.32,-5.245707835745713e-07
3941.22,-5.667948734048051e-07
3942.12,-5.961087969307792e-07
3943.02,-6.213348996838163e-07
3943.92,-6.398061923988771e-07
3944.82,-6.558091729795047e-07
3945.72,-6.695702347207191e-07
3946.62,-6.865801672188347e-07
3947.52,-7.037618147660872e-07
3948.42,-7.127686574498599e-07
3949.32,-7.270390324860473e-07
3950.22,-7.292997482168203e-07
3951.12,-7.362892218390573e-07
3952.02,-7.414120569695271e-07
3952.92,-7.444592066052495e-07
3953.82,-7.463818954684449e-07
3954.72,-7.463446071009969e-07
3955.62,-7.452063788704214e-07
3956.52,-7.399116936125608e-07
3957.42,-7.342285699261118e-07
3958.32,-7.242938223129629e-07
3959.22,-7.123044639248576e-07
3960.12,-6.95617234876504e-07
3961.02,-6.725906656122697e-07
3961.92,-6.449790863553497e-07
3962.82,-6.016672156643704e-07
3963.72,-5.607305847816564e-07
3964.62,-5.144483946243827e-07
3965.52,-4.6371094953982767e-07
3966.42,-4.152304651148568e-07
3967.32,-3.625529035066778e-07
3968.22,-3.2014469286711507e-07
3969.12,-2.9567147055755164e-07
3970.02,-2.8696591094422846e-07
3970.92,-2.9833734340368426e-07
3971.82,-3.303701534214624e-07
3972.72,-3.7382513417807357e-07
3973.62,-4.26652206546447e-07
3974.52,-4.821920425528449e-07
3975.42,-5.333268478613157e-07
3976.32,-5.853449104785736e-07
3977.22,-6.272831473004189e-07
3978.13,-6.708360710662922e-07
3979.03,-7.068124539282019e-07
3979.93,-7.326497170781344e-07
3980.83,-7.562112189008355e-07
3981.73,-7.720786516994167e-07
3982.63,-7.837390252741768e-07
3983.53,-7.897398972035708e-07
3984.43,-7.948443368398772e-07
3985.33,-8.056171884607916e-07
3986.23,-8.155333751032561e-07
3987.13,-8.288957625879881e-07
3988.03,-8.365586856631546e-07
3988.93,-8.505022662975744e-07
3989.83,-8.61408633119886e-07
3990.73,-8.687472735982691e-07
3991.63,-8.808003752994547e-07
3992.53,-8.875001721422994e-07
3993.43,-8.910229230936419e-07
3994.33,-8.879382673824917e-07
3995.23,-8.878456749286056e-07
3996.13,-8.802406312330687e-07
3997.03,-8.727354580482644e-07
3997.93,-8.674994921776012e-07
3998.83,-8.749999278323348e-07
3999.73,-8.849834705709053e-07
4000.63,-8.940625194699278e-07
4001.53,-9.113394612038584e-07
4002.43,-9.160678018204018e-07
4003.33,-9.153839917465333e-07
4004.23,-9.141689044803287e-07
4005.13,-9.008640594119758e-07
4006.03,-8.913782237354406e-07
4006.93,-8.884926297657456e-07
4007.83,-8.949658561463604e-07
4008.73,-9.065864233429497e-07
4009.63,-9.196757880218922e-07
4010.53,-9.314239446733915e-07
4011.43,-9.395102239270843e-07
4012.33,-9.48195150222065e-07
4013.23,-9.511346193696152e-07
4014.13,-9.599126668247072e-07
4015.03,-9.602239959746743e-07
4015.93,-9.632985208192578e-07
4016.84,-9.644103655336856e-07
4017.74,-9.701612970095297e-07
4018.64,-9.715725232659617e-07
4019.54,-9.762303210201067e-07
4020.44,-9.78910682587238e-07
4021.34,-9.83886149107989e-07
4022.24,-9.873193394912107e-07
4023.14,-9.810043569495459e-07
4024.04,-9.852845202114472e-07
4024.94,-9.83536109216605e-07
4025.84,-9.84152988876922e-07
4026.74,-9.893271892130506e-07
4027.64,-9.933575459014122e-07
4028.54,-9.943738176933837e-07
4029.44,-9.887148300366858e-07
4030.34,-9.727394434993489e-07
4031.24,-9.496010297362163e-07
4032.14,-9.352259599828761e-07
4033.04,-9.285991440969183e-07
4033.94,-9.233757835814191e-07
4034.84,-9.363043530568353e-07
4035.74,-9.579621560260295e-07
4036.64,-9.761171126976573e-07
4037.54,-1.0004062591197393e-06
4038.44,-1.0196986068556528e-06
4039.34,-1.0281769582999719e-06
4040.24,-1.0298142000501642e-06
4041.14,-1.025209897519023e-06
4042.04,-1.012985941025251e-06
4042.94,-9.990316716354745e-07
4043.84,-9.751827010516053e-07
4044.74,-9.602143087650223e-07
4045.64,-9.416042709409851e-07
4046.54,-9.346526948862228e-07
4047.44,-9.412114039181842e-07
4048.34,-9.599152902659157e-07
4049.24,-9.81829404399936e-07
4050.14,-1.0040453704205545e-06
4051.04,-1.0148825094893972e-06
4051.94,-1.02034576415343e-06
4052.84,-1.0181380632775343e-06
4053.74,-1.0080280989209452e-06
4054.65,-9.990428858164327e-07
4055.55,-9.92229747865251e-07
4056.45,-9.820633919972711e-07
4057.35,-9.746243653999162e-07
4058.25,-9.731963075640933e-07
4059.15,-9.764113670259918e-07
4060.05,-9.858274377146007e-07
4060.95,-9.8645935433809e-07
4061.85,-9.85386035835334e-07
4062.75,-9.728159614811054e-07
4063.65,-9.655418323707438e-07
4064.55,-9.608630727064433e-07
4065.45,-9.585047521622342e-07
4066.35,-9.599401673937122e-07
4067.25,-9.74925651187499e-07
4068.15,-9.829994450917402e-07
4069.05,-9.954473985341316e-07
4069.95,-9.997946848497394e-07
4070.85,-9.99622108705925e-07
4071.75,-1.0034827302489659e-06
4072.65,-9.976371525381491e-07
4073.55,-9.937916838295342e-07
4074.45,-9.864624711387996e-07
4075.35,-9.735342297329366e-07
4076.25,-9.604374462710622e-07
4077.15,-9.45723769441393e-07
4078.05,-9.372254466879165e-07
4078.95,-9.390081208514556e-07
4079.85,-9.463330080463711e-07
4080.75,-9.657479177482755e-07
4081.65,-9.826311291424933e-07
4082.55,-9.983956053432483e-07
4083.45,-1.0093487930921096e-06
4084.35,-1.0121801673374338e-06
4085.25,-1.0131951161975261e-06
4086.15,-1.018181999298223e-06
4087.05,-1.0259419096937258e-06
4087.95,-1.0396475271245432e-06
4088.85,-1.0476046487077058e-06
4089.75,-1.05557640932125e-06
4090.65,-1.062293298288369e-06
4091.55,-1.0548443053916214e-06
4092.45,-1.0456356432217759e-06
4093.36,-1.0339639703593875e-06
4094.26,-1.0161765560398247e-06
4095.16,-9.949823695702295e-07
4096.06,-9.653002318653284e-07
4096.96,-9.402708236314595e-07
4097.86,-9.110065953586463e-07
4098.76,-8.694819572459047e-07
4099.66,-8.302933780169637e-07
4100.56,-7.963990072206134e-07
4101.46,-7.674840753240118e-07
4102.36,-7.457303952869573e-07
4103.26,-7.491938163846936e-07
4104.16,-7.698141481674578e-07
4105.06,-7.983761487114074e-07
4105.96,-8.405633441129759e-07
4106.86,-8.811155608561177e-07
4107.76,-9.150954551494262e-07
4108.66,-9.404496816545714e-07
4109.56,-9.65556384983681e-07
4110.46,-9.7837180513606e-07
4111.36,-9.902470651142095e-07
4112.26,-1.0005853524819563e-06
4113.16,-1.0214603255992606e-06
4114.06,-1.036516228246347e-06
4114.96,-1.0494409987414087e-06
4115.86,-1.0596506570402155e-06
4116.76,-1.0705136664892142e-06
4117.66,-1.0706977289206568e-06
4118.56,-1.0642087831058983e-06
4119.46,-1.0633003401909458e-06
4120.36,-1.0604791626595846e-06
4121.26,-1.0559083660685743e-06
4122.16,-1.0633741279376927e-06
4123.06,-1.0612748617403871e-06
4123.96,-1.0749629438645555e-06
4124.86,-1.0733209380182545e-06
4125.76,-1.0821482940984172e-06
4126.66,-1.0824317299553496e-06
4127.56,-1.0781285701442997e-06
4128.46,-1.0751386471730785e-06
4129.36,-1.0699484299527403e-06
4130.26,-1.0573648814604797e-06
4131.17,-1.0542412126726583e-06
4132.06,-1.045682364203661e-06
4132.97,-1.0476084042773033e-06
4133.87,-1.0455923199926934e-06
4134.77,-1.0556885797800005e-06
4135.67,-1.07119232630629e-06
4136.57,-1.0895273405881987e-06
4137.47,-1.112590622734936e-06
4138.37,-1.1261689962124662e-06
4139.27,-1.1409582713725807e-06
4140.17,-1.1438933910063917e-06
4141.07,-1.1339626926724925e-06
4141.97,-1.120925041701827e-06
4142.87,-1.1006453942517323e-06
4143.77,-1.0851082328603053e-06
4144.67,-1.0807112569399531e-06
4145.57,-1.0822328743277323e-06
4146.47,-1.0873593528677578e-06
4147.37,-1.104740824222504e-06
4148.27,-1.1158240041500705e-06
4149.17,-1.1202231828495627e-06
4150.07,-1.1250943451213182e-06
4150.97,-1.123101250870694e-06
4151.87,-1.1183321194037074e-06
4152.77,-1.1129902075998598e-06
4153.67,-1.1064136410796337e-06
4154.57,-1.1073258525881957e-06
4155.47,-1.0979080050735595e-06
4156.37,-1.0998246558233893e-06
4157.27,-1.1072805430766728e-06
4158.17,-1.1181650655645762e-06
4159.07,-1.1325078562681993e-06
4159.97,-1.1433391719485806e-06
4160.87,-1.157126565925703e-06
4161.77,-1.1649064703526997e-06
4162.67,-1.17348518286565e-06
4163.57,-1.1817265807356398e-06
4164.47,-1.1821830424378663e-06
4165.37,-1.1836818699359383e-06
4166.27,-1.1814422592144542e-06
4167.17,-1.1766749377091842e-06
4168.07,-1.164776374322595e-06
4168.98,-1.1594214950643375e-06
4169.88,-1.1478560267819755e-06
4170.78,-1.1277398581699936e-06
4171.68,-1.114276781470326e-06
4172.58,-1.0972775517952175e-06
4173.48,-1.0804621844127745e-06
4174.38,-1.0774767466415754e-06
4175.28,-1.0684802091107346e-06
4176.18,-1.0831082506903985e-06
4177.08,-1.0876642556038617e-06
4177.98,-1.098210727682049e-06
4178.88,-1.1125697368924624e-06
4179.78,-1.1157072981653664e-06
4180.68,-1.133530337778068e-06
4181.58,-1.135551973944042e-06
4182.48,-1.1472559347487776e-06
4183.38,-1.1500356001995184e-06
4184.28,-1.1485429618081285e-06
4185.18,-1.1572368208567764e-06
4186.08,-1.153795012949416e-06
4186.98,-1.1594483688477362e-06
4187.88,-1.1553147319065494e-06
4188.78,-1.155772822768658e-06
4189.68,-1.1605939088112533e-06
4190.58,-1.168638474169653e-06
4191.48,-1.177831469657174e-06
4192.38,-1.192835886272405e-06
4193.28,-1.1931464465655685e-06
4194.18,-1.197597753187456e-06
4195.08,-1.1929944954888652e-06
4195.98,-1.1850658206955267e-06
4196.88,-1.1665741229895644e-06
4197.78,-1.146801621434685e-06
4198.68,-1.1321502101995802e-06
4199.58,-1.1255348944490249e-06
4200.48,-1.1227688574316394e-06
4201.38,-1.1235975914477626e-06
4202.28,-1.1286462582244273e-06
4203.18,-1.1321664527075874e-06
4204.08,-1.1411311187140532e-06
4204.98,-1.158350264602101e-06
4205.88,-1.170976103140408e-06
4206.79,-1.1902671413201945e-06
4207.69,-1.203854752051426e-06
4208.59,-1.2175509667426855e-06
4209.49,-1.2269173826858276e-06
4210.39,-1.2371074506085164e-06
4211.29,-1.23629109262406e-06
4212.19,-1.2371700982283016e-06
4213.09,-1.2361015062181725e-06
4213.99,-1.2298842895145403e-06
4214.89,-1.2125008903008207e-06
4215.79,-1.2066408155633935e-06
4216.69,-1.2073441225105648e-06
4217.59,-1.2086728114573238e-06
4218.49,-1.224495131526121e-06
4219.39,-1.2380103438657426e-06
4220.29,-1.2491906135643956e-06
4221.19,-1.2477809783110423e-06
4222.09,-1.2478958034445194e-06
4222.99,-1.2269072461397622e-06
4223.89,-1.1978416559904975e-06
4224.79,-1.1593310250178847e-06
4225.69,-1.1212469664247528e-06
4226.59,-1.0921330019214734e-06
4227.49,-1.0815145367998116e-06
4228.39,-1.0925672132748155e-06
4229.29,-1.1239421541341816e-06
4230.19,-1.155463471111136e-06
4231.09,-1.1910010935507499e-06
4231.99,-1.2170628933684874e-06
4232.89,-1.2284082218827824e-06
4233.79,-1.2284710610799291e-06
4234.69,-1.2260491519514589e-06
4235.59,-1.2183086257018804e-06
4236.49,-1.2111685260406789e-06
4237.39,-1.2087616657905345e-06
4238.29,-1.2072229406050027e-06
4239.19,-1.210160826576683e-06
4240.09,-1.2188275417767842e-06
4240.99,-1.2275748081040908e-06
4241.89,-1.2468463792228676e-06
4242.79,-1.2603716481770389e-06
4243.69,-1.271993131139616e-06
4244.59,-1.2727111720985086e-06
4245.5,-1.2746256141622585e-06
4246.4,-1.2663121435427962e-06
4247.3,-1.2560217278579515e-06
4248.2,-1.2461406707903927e-06
4249.1,-1.2321398291864474e-06
4250.0,-1.220874026001832e-06
4250.9,-1.2220142084493965e-06
4251.8,-1.2254061039585162e-06
4252.7,-1.2318146066865615e-06
4253.6,-1.2365871861392658e-06
4254.5,-1.2462517247603534e-06
4255.4,-1.2538490575600806e-06
4256.3,-1.2621131014326002e-06
4257.2,-1.2575706361599863e-06
4258.1,-1.2608628618843347e-06
4259.0,-1.254693789519344e-06
4259.9,-1.2428341474766056e-06
4260.8,-1.2394083195090428e-06
4261.7,-1.2417506855105473e-06
4262.6,-1.2579821264065453e-06
4263.5,-1.2768103023202954e-06
4264.4,-1.2980674635784665e-06
4265.3,-1.3162470755104654e-06
4266.2,-1.3290748466684438e-06
4267.1,-1.3282581040755298e-06
4268.0,-1.3117504314196031e-06
4268.9,-1.297899238200263e-06
4269.8,-1.2657380372386408e-06
4270.7,-1.2412903384468607e-06
4271.6,-1.2143144674448916e-06
4272.5,-1.185312170113924e-06
4273.4,-1.1818762838422746e-06
4274.3,-1.1848454641126887e-06
4275.2,-1.202013551534789e-06
4276.1,-1.2197934943933357e-06
4277.0,-1.2474685024248702e-06
