wave,flux
3700.85,-4.204159171096395e-05
3701.75,-4.141658882585328e-05
3702.65,-3.951687786144771e-05
3703.55,-3.696003673503552e-05
3704.45,-3.370668166796607e-05
3705.35,-3.087160320199016e-05
3706.25,-2.8643070538169967e-05
3707.15,-2.730707005173185e-05
3708.05,-2.7085679598948394e-05
3708.96,-2.82543346112327e-05
3709.86,-3.0270819314651954e-05
3710.76,-3.346689314776441e-05
3711.66,-3.7111677298389e-05
3712.56,-4.0940258335278006e-05
3713.46,-4.387498338312912e-05
3714.36,-4.560770397401954e-05
3715.26,-4.559227404240899e-05
3716.16,-4.381626904857364e-05
3717.06,-4.108999740750363e-05
3717.96,-3.7190183191881696e-05
3718.86,-3.2640720750665455e-05
3719.76,-2.8628774283407434e-05
3720.66,-2.5456272013202898e-05
3721.56,-2.4048041407987977e-05
3722.46,-2.4427107837436116e-05
3723.36,-2.6385727260935304e-05
3724.26,-2.922202649768876e-05
3725.16,-3.2126602711672844e-05
3726.06,-3.442137888104601e-05
3726.96,-3.559281462860421e-05
3727.86,-3.598800990725485e-05
3728.76,-3.588821652454671e-05
3729.66,-3.537939361519939e-05
3730.56,-3.44047948756624e-05
3731.46,-3.2674989376578696e-05
3732.36,-3.0196908727782195e-05
3733.26,-2.7181915605333443e-05
3734.16,-2.402728291762255e-05
3735.06,-2.1681600606493496e-05
3735.96,-2.0483543098102037e-05
3736.86,-2.0779631483229625e-05
3737.76,-2.252230643818989e-05
3738.66,-2.5568686256055895e-05
3739.56,-2.9078455438604637e-05
3740.46,-3.220248182822457e-05
3741.36,-3.429654301322401e-05
3742.26,-3.459314231000074e-05
3743.16,-3.3203408011032736e-05
3744.06,-3.0972910591436544e-05
3744.96,-2.8502775392075165e-05
3745.86,-2.6087008269433067e-05
3746.76,-2.407221573080142e-05
3747.67,-2.295483825410787e-05
3748.57,-2.2731677637420755e-05
3749.47,-2.3653142062842818e-05
3750.37,-2.5726778418316808e-05
3751.27,-2.931361008642439e-05
3752.17,-3.365550241721586e-05
3753.07,-3.8251750938049655e-05
3753.97,-4.229107385210981e-05
3754.87,-4.506950926213652e-05
3755.77,-4.55805181089739e-05
3756.67,-4.4687826852762373e-05
3757.57,-4.219633484611501e-05
3758.47,-3.9649517118417924e-05
3759.37,-3.7482475210892356e-05
3760.27,-3.6651624055865766e-05
3761.17,-3.679779555169439e-05
3762.07,-3.7493686928592914e-05
3762.97,-3.805374328657531e-05
3763.87,-3.837436861393994e-05
3764.77,-3.897997941382897e-05
3765.67,-3.931072298384621e-05
3766.57,-4.019884752898275e-05
3767.47,-4.138855912678102e-05
3768.37,-4.345146148468047e-05
3769.27,-4.6287720368951345e-05
3770.17,-4.920085492431654e-05
3771.07,-5.232310985030918e-05
3771.97,-5.506969859415813e-05
3772.87,-5.721431933430214e-05
3773.77,-5.89491943315052e-05
3774.67,-5.972125117568775e-05
3775.57,-5.9988635942551924e-05
3776.47,-6.0206141293239064e-05
3777.37,-6.055272445740528e-05
3778.27,-6.117658047475602e-05
3779.17,-6.233587754460558e-05
3780.07,-6.368187680183803e-05
3780.97,-6.513646790685114e-05
3781.87,-6.651400874115212e-05
3782.77,-6.720608086900265e-05
3783.67,-6.708785451606487e-05
3784.57,-6.528879429957073e-05
3785.47,-6.298665128807047e-05
3786.38,-5.92113661376684e-05
3787.28,-5.510346137465539e-05
3788.18,-5.180952253189271e-05
3789.08,-4.9679845367198345e-05
3789.98,-4.8719057983499084e-05
3790.88,-4.859542038693601e-05
3791.78,-4.940873564618789e-05
3792.68,-5.0064668186701025e-05
3793.58,-4.988593436553962e-05
3794.48,-4.920409706217873e-05
3795.38,-4.802578912768203e-05
3796.28,-4.710108667000438e-05
3797.18,-4.61816244435766e-05
3798.08,-4.581566907220732e-05
3798.98,-4.618038126971583e-05
3799.88,-4.785517757782574e-05
3800.78,-5.0458988124934256e-05
3801.68,-5.429050980952676e-05
3802.58,-5.841979440024664e-05
3803.48,-6.21511438006269e-05
3804.38,-6.45970214034604e-05
3805.28,-6.564122382634212e-05
3806.18,-6.551477975600314e-05
3807.08,-6.467613927400627e-05
3807.98,-6.449860437172896e-05
3808.88,-6.462657998043953e-05
3809.78,-6.509708924248512e-05
3810.68,-6.568702609954566e-05
3811.58,-6.508679123016989e-05
3812.48,-6.292693285050184e-05
3813.38,-5.974839206065999e-05
3814.28,-5.5893472155071275e-05
3815.18,-5.206288129128628e-05
3816.08,-4.921560916744679e-05
3816.98,-4.695989005366605e-05
3817.88,-4.5858985176674195e-05
3818.78,-4.4782053840575796e-05
3819.68,-4.3603752683373876e-05
3820.58,-4.210879788372827e-05
3821.48,-4.119972351675995e-05
3822.38,-4.0585534824506126e-05
3823.28,-4.0074773940427516e-05
3824.18,-3.9265531670200444e-05
3825.09,-3.796372369499937e-05
3825.99,-3.667950382557166e-05
3826.89,-3.578522115597633e-05
3827.79,-3.563397287954453e-05
3828.69,-3.6263265729865034e-05
3829.59,-3.7035837103885064e-05
3830.49,-3.798851970738722e-05
3831.39,-3.832806150379774e-05
3832.29,-3.854550306861718e-05
3833.19,-3.8653565470708355e-05
3834.09,-3.876367002896075e-05
3834.99,-3.927909160287854e-05
3835.89,-4.018967542234942e-05
3836.79,-4.086393888822554e-05
3837.69,-4.130736571635258e-05
3838.59,-4.125074717175457e-05
3839.49,-4.120008149043345e-05
3840.39,-4.2377171644643314e-05
3841.29,-4.482390419351438e-05
3842.19,-4.8928335788110496e-05
3843.09,-5.362885894279683e-05
3843.99,-5.846151287703877e-05
3844.89,-6.216997801745327e-05
3845.79,-6.523389595039001e-05
3846.69,-6.69257282358261e-05
3847.59,-6.729481041862222e-05
3848.49,-6.704525469969243e-05
3849.39,-6.631151063437163e-05
3850.29,-6.564364167026432e-05
3851.19,-6.498710501474369e-05
3852.09,-6.518059589465242e-05
3852.99,-6.508231705076208e-05
3853.89,-6.445855564835667e-05
3854.79,-6.349039131716933e-05
3855.69,-6.117868807774013e-05
3856.59,-5.8602188459501117e-05
3857.49,-5.613011035951417e-05
3858.39,-5.3699681996808435e-05
3859.29,-5.216502812672479e-05
3860.19,-5.197825430258844e-05
3861.09,-5.3788212873548176e-05
3861.99,-5.764439812227937e-05
3862.9,-6.29192995272401e-05
3863.8,-6.679940358142094e-05
3864.7,-7.027943597324227e-05
3865.6,-7.20917163311461e-05
3866.5,-7.247778834318098e-05
3867.4,-7.159131057109838e-05
3868.3,-7.058238553469372e-05
3869.2,-6.877186198536715e-05
3870.1,-6.692470223763898e-05
3871.0,-6.502173683592496e-05
3871.9,-6.438811177412164e-05
3872.8,-6.56629536788685e-05
3873.7,-6.879357688590412e-05
3874.6,-7.278583355491308e-05
3875.5,-7.628564012382074e-05
3876.4,-7.826081564124875e-05
3877.3,-7.836841546816923e-05
3878.2,-7.723673858390346e-05
3879.1,-7.553351387976072e-05
3880.0,-7.414509641234485e-05
3880.9,-7.392364688758152e-05
3881.8,-7.47943765338194e-05
3882.7,-7.65445519300254e-05
3883.6,-7.829512324873276e-05
3884.5,-7.995677474481293e-05
3885.4,-8.062827353441226e-05
3886.3,-8.060413567402573e-05
3887.2,-8.080813544004876e-05
3888.1,-8.22352082901434e-05
3889.0,-8.610800623372138e-05
3889.9,-9.217896121482025e-05
3890.8,-9.946191335239052e-05
3891.7,-0.00010778005116851051
3892.6,-0.00011431319350599113
3893.5,-0.0001192102420584737
3894.4,-0.00012132014264571604
3895.3,-0.00012189671136292753
3896.2,-0.00012145144084102696
3897.1,-0.00012113280605272038
3898.0,-0.0001210932348727986
3898.9,-0.00012031407332490965
3899.8,-0.00012063619923624115
3900.7,-0.00012082555406084603
3901.6,-0.00012011693174296708
3902.51,-0.00011991385160565331
3903.41,-0.00011885869444402417
3904.31,-0.00011786572553259375
3905.21,-0.00011709936601755677
3906.11,-0.00011799440344577048
3907.01,-0.0001221876608403069
3907.91,-0.00012776497396320576
3908.81,-0.00013499231956216095
3909.71,-0.00014291399447932966
3910.61,-0.0001494581695219147
3911.51,-0.00015517064229163407
3912.41,-0.00015936373378633143
3913.31,-0.00016228029531660719
3914.21,-0.0001639929926066031
3915.11,-0.00016241454210103409
3916.01,-0.00015976393901442944
3916.91,-0.00015711131664570099
3917.81,-0.00015258533165972318
3918.71,-0.00014608888358881952
3919.61,-0.0001393208032619338
3920.51,-0.00013308283797459593
3921.41,-0.00012661973312055476
3922.31,-0.0001228613769498417
3923.21,-0.00012112189572775418
3924.11,-0.00012016012545609312
3925.01,-0.00011913317798976945
3925.91,-0.00011656272583621509
3926.81,-0.00011175855087774787
3927.71,-0.00010406478850951061
3928.61,-9.477373795829927e-05
3929.51,-8.481578569178639e-05
3930.41,-7.495815005608474e-05
3931.31,-6.61738976761928e-05
3932.21,-5.8943702338155456e-05
3933.11,-5.407537958658606e-05
3934.01,-5.1775007421662194e-05
3934.91,-5.215026684481618e-05
3935.81,-5.6043210970135986e-05
3936.71,-6.292515421917923e-05
3937.61,-7.230446228013216e-05
3938.51,-8.31749327995912e-05
3939.42,-9.392608028908438e-05
3940.32,-0.00010411172198179671
3941.22,-0.00011192183048330704
3942.12,-0.0001180349668044621
3943.02,-0.000122464188842021
3943.92,-0.00012696661108503078
3944.82,-0.0001334415595109561
3945.72,-0.00014106546469747725
3946.62,-0.00015049312067337193
3947.52,-0.00016112289229065196
3948.42,-0.00017121732030216092
3949.32,-0.0001813018542466853
3950.22,-0.0001899375011364778
3951.12,-0.00019675556162908415
3952.02,-0.00020271453979517942
3952.92,-0.0002072520882899611
3953.82,-0.00020904915267903166
3954.72,-0.000210890135218658
3955.62,-0.00021098107950188116
3956.52,-0.00020900127562000276
3957.42,-0.0002055660687647013
3958.32,-0.0002016980213958697
3959.22,-0.00019471157137794534
3960.12,-0.00018615961956225838
3961.02,-0.00017327251745462914
3961.92,-0.000158962919876637
3962.82,-0.0001455555581234508
3963.72,-0.00013292184476204489
3964.62,-0.00012204345838890272
3965.52,-0.00011139629168209803
3966.42,-0.00010121928348922265
3967.32,-9.15844464429664e-05
3968.22,-8.393936379165118e-05
3969.12,-8.062976125726529e-05
3970.02,-8.167511254985535e-05
3970.92,-8.8512660663978e-05
3971.82,-9.966017391235085e-05
3972.72,-0.00011490403637813134
3973.62,-0.0001323845987220498
3974.52,-0.00015206352521491209
3975.42,-0.00017183706233774934
3976.32,-0.0001914736920637492
3977.22,-0.00021148185544505726
3978.13,-0.00023063986141770825
3979.03,-0.0002495186693152407
3979.93,-0.0002635164760537461
3980.83,-0.00027456037228961496
3981.73,-0.0002841028834773122
3982.63,-0.0002899870580106423
3983.53,-0.0002926683371345224
3984.43,-0.00029829292059801
3985.33,-0.0003026159700514065
3986.23,-0.00030840656641964426
3987.13,-0.0003158402819606142
3988.03,-0.0003223944985449259
3988.93,-0.0003307248323419903
3989.83,-0.0003359254201201606
3990.73,-0.0003404128066688111
3991.63,-0.00034470934210153233
3992.53,-0.00035079652360357495
3993.43,-0.00035422681373480444
3994.33,-0.0003569326549284517
3995.23,-0.0003563031527206219
3996.13,-0.00035686976669234487
3997.03,-0.00035576859057285555
3997.93,-0.0003573646953618316
3998.83,-0.00036378806086158555
3999.73,-0.0003738279676164223
4000.63,-0.0003841648474414345
4001.53,-0.0003963115381909886
4002.43,-0.0004015872591159777
4003.33,-0.0004038904210949258
4004.23,-0.0003975354138823396
4005.13,-0.000391111668891016
4006.03,-0.00038379588238006656
4006.93,-0.00038143264250754366
4007.83,-0.0003865734246328149
4008.73,-0.0003960280284068833
4009.63,-0.0004080661066988635
4010.53,-0.00042173682827728435
4011.43,-0.00043403090087361726
4012.33,-0.00044741186944797937
4013.23,-0.0004531629017486987
4014.13,-0.00046133738271166805
4015.03,-0.0004664381313513356
4015.93,-0.00047057317621186434
4016.84,-0.0004764469089569683
4017.74,-0.0004802424677681213
4018.64,-0.0004836290833151173
4019.54,-0.0004895732307007371
4020.44,-0.0004924537594924664
4021.34,-0.0004940295185861472
4022.24,-0.0005000282535190622
4023.14,-0.0004996676802836651
4024.04,-0.0004997093495592639
4024.94,-0.0005022252622149855
4025.84,-0.0005070222299145784
4026.74,-0.000513378461593714
4027.64,-0.0005164165669355807
4028.54,-0.000519503239662147
4029.44,-0.0005092753217240448
4030.34,-0.0004916926442554194
4031.24,-0.0004715933486073996
4032.14,-0.0004511977654263379
4033.04,-0.0004357895046170168
4033.94,-0.0004315539688037075
4034.84,-0.0004423612088891431
4035.74,-0.00046365885137203167
4036.64,-0.0004915209041822105
4037.54,-0.0005234213989278158
4038.44,-0.0005504221691339471
4039.34,-0.0005689960875053589
4040.24,-0.0005793365909530167
4041.14,-0.0005789451046037947
4042.04,-0.0005678985856783348
4042.94,-0.0005511223877248907
4043.84,-0.0005251519817778548
4044.74,-0.0004964672172410703
4045.64,-0.0004748088306034429
4046.54,-0.0004634587253244749
4047.44,-0.00046886339503906675
4048.34,-0.0004900190775908564
4049.24,-0.0005243471388632979
4050.14,-0.0005613358217137813
4051.04,-0.0005903608587750879
4051.94,-0.0006115080743497605
4052.84,-0.000617754638822712
4053.74,-0.0006179319990058544
4054.65,-0.0006096238110743968
4055.55,-0.0006011955824897848
4056.45,-0.0005848642998715155
4057.35,-0.0005808952601499392
4058.25,-0.0005793787557353684
4059.15,-0.000580531081188945
4060.05,-0.0005797638009144662
4060.95,-0.0005787158840427696
4061.85,-0.0005741951626265165
4062.75,-0.0005622344254561831
4063.65,-0.0005504065088016239
4064.55,-0.0005447077505060755
4065.45,-0.0005458595626248119
4066.35,-0.0005632255272671376
4067.25,-0.0005840506822556633
4068.15,-0.0006070674096249886
4069.05,-0.0006272940286865658
4069.95,-0.0006415875512926101
4070.85,-0.0006483402118751808
4071.75,-0.000644744241819963
4072.65,-0.0006490002281744626
4073.55,-0.0006487436193169882
4074.45,-0.0006518913278944502
4075.35,-0.000656884038027528
4076.25,-0.0006578316720479797
4077.15,-0.0006602001023023726
4078.05,-0.0006664789590768965
4078.95,-0.0006805423213578616
4079.85,-0.0007072996741430355
4080.75,-0.0007399959695987693
4081.65,-0.0007675915488579211
4082.55,-0.0007954438639223913
4083.45,-0.0008105461903365795
4084.35,-0.0008243631230735483
4085.25,-0.0008327113531658098
4086.15,-0.0008477448645460326
4087.05,-0.0008704144200566093
4087.95,-0.0009006326112227338
4088.85,-0.000922413277145324
4089.75,-0.0009422319734446337
4090.65,-0.0009517603467577592
4091.55,-0.0009520472547180397
4092.45,-0.0009465592837892939
4093.36,-0.0009338527186586935
4094.26,-0.0009199769718892773
4095.16,-0.0009014337559455812
4096.06,-0.0008838667046804233
4096.96,-0.0008638944080870849
4097.86,-0.0008415258946118174
4098.76,-0.0008209594714436393
4099.66,-0.0008083155121249474
4100.56,-0.0007960150555194452
4101.46,-0.000789061251030839
4102.36,-0.0007888394242760886
4103.26,-0.0008008714285353721
4104.16,-0.0008293431764362575
4105.06,-0.0008618293611515897
4105.96,-0.0009022387868108713
4106.86,-0.0009317317097010313
4107.76,-0.0009569970541569091
4108.66,-0.0009745799084031308
4109.56,-0.0009815447715122835
4110.46,-0.0009841191587979829
4111.36,-0.0009876425725729079
4112.26,-0.0009939704241438809
4113.16,-0.0010081769606936919
4114.06,-0.0010251991353410017
4114.96,-0.001045124642132173
4115.86,-0.0010670507329279156
4116.76,-0.001073943700658109
4117.66,-0.0010799094971519817
4118.56,-0.0010789230923603887
4119.46,-0.0010699328200106319
4120.36,-0.0010698273035541577
4121.26,-0.0010746005151140224
4122.16,-0.0010814843933564845
4123.06,-0.0010895450523939832
4123.96,-0.0011061461499918292
4124.86,-0.001127394145117874
4125.76,-0.0011385980619452334
4126.66,-0.0011425605181003397
4127.56,-0.0011389973090624016
4128.46,-0.001129171413560999
4129.36,-0.0011188388072042004
4130.26,-0.0011009922791053127
4131.17,-0.0010795648718861736
4132.06,-0.001064107157058937
4132.97,-0.00105349195019298
4133.87,-0.0010556090381149583
4134.77,-0.001067724124505853
4135.67,-0.0011134395446539187
4136.57,-0.0011546149483731007
4137.47,-0.0011950603382322072
4138.37,-0.001240112557552285
4139.27,-0.001263085250099101
4140.17,-0.00126790975579992
4141.07,-0.0012448447272379193
4141.97,-0.0012147072804123856
4142.87,-0.0011727932508108873
4143.77,-0.001149235597684641
4144.67,-0.0011326911269776258
4145.57,-0.0011364595007358014
4146.47,-0.0011646806601845199
4147.37,-0.0011974534516162206
4148.27,-0.0012313498341184588
4149.17,-0.0012559371374081714
4150.07,-0.0012714654731960848
4150.97,-0.0012796913189573587
4151.87,-0.0012739174138686367
4152.77,-0.0012709525966446756
4153.67,-0.001273701080171881
4154.57,-0.0012771607825664817
4155.47,-0.0012859364615107212
4156.37,-0.0013030564100366385
4157.27,-0.0013287725266150413
4158.17,-0.0013632643638156776
4159.07,-0.0014095112320406198
4159.97,-0.0014535723043030717
4160.87,-0.0015013291499051307
4161.77,-0.001545274175077579
4162.67,-0.0015780261575765126
4163.57,-0.0015960811561973806
4164.47,-0.0016055030805766477
4165.37,-0.0015978221721971507
4166.27,-0.0015884361282245073
4167.17,-0.0015763618949146956
4168.07,-0.0015629548463183074
4168.98,-0.0015556984521837055
4169.88,-0.0015533696848428569
4170.78,-0.0015504442603180835
4171.68,-0.0015351411709802613
4172.58,-0.001521381914529052
4173.48,-0.0014963190513015837
4174.38,-0.0014849941896933666
4175.28,-0.0014860956187975813
4176.18,-0.0015032628270001062
4177.08,-0.001531157109590001
4177.98,-0.0015639864888484243
4178.88,-0.0015812512895089764
4179.78,-0.0016171656160364185
4180.68,-0.0016499533420177802
4181.58,-0.00166911883203202
4182.48,-0.001693211002777758
4183.38,-0.001723484684244899
4184.28,-0.0017489046853019833
4185.18,-0.0017810144517570541
4186.08,-0.0017893566553500878
4186.98,-0.0017990603808434621
4187.88,-0.0018044594467936336
4188.78,-0.001820089498665504
4189.68,-0.0018295428066621186
4190.58,-0.0018723749441389847
4191.48,-0.001907676210863922
4192.38,-0.001954319137106311
4193.28,-0.00197884960302074
4194.18,-0.001988537362045526
4195.08,-0.001979354285314802
4195.98,-0.0019562606719264065
4196.88,-0.0019153600241576829
4197.78,-0.001867165756851311
4198.68,-0.0018365851996872673
4199.58,-0.0018109992872104427
4200.48,-0.0018178139454304782
4201.38,-0.0018425053298568173
4202.28,-0.0018941948743046995
4203.18,-0.0019428094909176563
4204.08,-0.0020199027710812345
4204.98,-0.002104555637777953
4205.88,-0.002194924160756573
4206.79,-0.0022877540554115047
4207.69,-0.0023629516689435952
4208.59,-0.0024126533354188787
4209.49,-0.0024514383344637946
4210.39,-0.0024750917671504972
4211.29,-0.0024769194554694444
4212.19,-0.0024694671764182515
4213.09,-0.002463265447176217
4213.99,-0.0024437472474917346
4214.89,-0.002421749987142916
4215.79,-0.0024269766017387144
4216.69,-0.0024495156857660735
4217.59,-0.0025242785984708836
4218.49,-0.0026061367947807896
4219.39,-0.0026879498700137327
4220.29,-0.002754418760062767
4221.19,-0.0027774616858258707
4222.09,-0.0027408623192270317
4222.99,-0.002654101245624076
4223.89,-0.002514320632554128
4224.79,-0.0023393139304848554
4225.69,-0.0021613703667232205
4226.59,-0.002037545134312283
4227.49,-0.001984643791690574
4228.39,-0.0020385461180574766
4229.29,-0.0021737270861773433
4230.19,-0.0023514322367107466
4231.09,-0.0025357155950138806
4231.99,-0.0027099035906316465
4232.89,-0.0028357297255881112
4233.79,-0.0028893196425081365
4234.69,-0.0029108685822878235
4235.59,-0.00290931377926614
4236.49,-0.0029145986353849374
4237.39,-0.0029293812122689568
4238.29,-0.002966085439779002
4239.19,-0.0030506197647901753
4240.09,-0.0031383683473316503
4240.99,-0.0032498432437438893
4241.89,-0.0033702484638363736
4242.79,-0.0034929765518742404
4243.69,-0.003609272793662375
4244.59,-0.003707202287676866
4245.5,-0.003752988826495075
4246.4,-0.0037655599549663086
4247.3,-0.003735245606595055
4248.2,-0.003646966953462608
4249.1,-0.0035210020677131576
4250.0,-0.003426854290319091
4250.9,-0.0033367706027261352
4251.8,-0.0033114960709295085
4252.7,-0.0033057318873406325
4253.6,-0.0033459888632280106
4254.5,-0.0033782403619434234
4255.4,-0.003452255341309498
4256.3,-0.003538522540872136
4257.2,-0.003600148075837016
4258.1,-0.0036703247442040157
4259.0,-0.003690004532021504
4259.9,-0.0037050033609655887
4260.8,-0.0037277631326879048
4261.7,-0.0037826948413273013
4262.6,-0.003920227397769776
4263.5,-0.0041092226444647125
4264.4,-0.004294336975451978
4265.3,-0.004490576619546893
4266.2,-0.004604784445288629
4267.1,-0.004615610134148865
4268.0,-0.004571445458069561
4268.9,-0.004444545695071686
4269.8,-0.004232211234192027
4270.7,-0.0039965621503081855
4271.6,-0.00377310704118083
4272.5,-0.003607551392796878
4273.4,-0.003531518575769357
4274.3,-0.0035877408632553737
4275.2,-0.003709356482866291
4276.1,-0.00392716133082567
4277.0,-0.004193925644308953
4277.9,-0.004436474807216004
4278.8,-0.004672541918858118
4279.7,-0.004846598834055957
4280.6,-0.0049498573051239845
4281.5,-0.0049917166800605975
