wave,flux
3700.85,0.009765244400823147
3701.75,0.009682587951400007
3702.65,0.00943018448908765
3703.55,0.008978823981669184
3704.45,0.008353715030978188
3705.35,0.007808269934974341
3706.25,0.007368806251529214
3707.15,0.007159329930202561
3708.05,0.007174562440842945
3708.96,0.007466531893754844
3709.86,0.007949538925000279
3710.76,0.008703337737306258
3711.66,0.009562203362135825
3712.56,0.010400739931304262
3713.46,0.011209468351747204
3714.36,0.011702049828990676
3715.26,0.011888416804045851
3716.16,0.011790525193938814
3717.06,0.011313264538214827
3717.96,0.01058224167463582
3718.86,0.009673087275038053
3719.76,0.008727592266701542
3720.66,0.007966939764511141
3721.56,0.007559629615750486
3722.46,0.007672313007498869
3723.36,0.008221693699730387
3724.26,0.009024211833853516
3725.16,0.009893459098717132
3726.06,0.010641168121367716
3726.96,0.011007265242946589
3727.86,0.011171520204080949
3728.76,0.011289251234207166
3729.66,0.011330714386371052
3730.56,0.011180789197794009
3731.46,0.010784930512066623
3732.36,0.010160822432978117
3733.26,0.009321117398093505
3734.16,0.008512455193280736
3735.06,0.007864855274792052
3735.96,0.007570572644243847
3736.86,0.007734666299773199
3737.76,0.008325837527231345
3738.66,0.00934579369965464
3739.56,0.010539377254524002
3740.46,0.011699313713870186
3741.36,0.012519586867042748
3742.26,0.012749077419680765
3743.16,0.012510883686904796
3744.06,0.011931749995676299
3744.96,0.011217349968393332
3745.86,0.01046182192496752
3746.76,0.009868950010938665
3747.67,0.009445884033994226
3748.57,0.009330237403793382
3749.47,0.009578285504668283
3750.37,0.010234079348637057
3751.27,0.011507850130795062
3752.17,0.013033573512956401
3753.07,0.014644420643442404
3753.97,0.016275929470617654
3754.87,0.017413271993991366
3755.77,0.017931380004326147
3756.67,0.01784628454349342
3757.57,0.017161028921717215
3758.47,0.016383577454796735
3759.37,0.01575927635335623
3760.27,0.015628387642518483
3761.17,0.015770725790701174
3762.07,0.016161673850111465
3762.97,0.01675869946250057
3763.87,0.017078029398706344
3764.77,0.01741719990450032
3765.67,0.017685582107952007
3766.57,0.018007487770114464
3767.47,0.01840301190339723
3768.37,0.01905299764477971
3769.27,0.019862441258820532
3770.17,0.020956830931467118
3771.07,0.022115248885865097
3771.97,0.02327215925952585
3772.87,0.02430666879250368
3773.77,0.02533946763108478
3774.67,0.026195103311119013
3775.57,0.02671420928191309
3776.47,0.027196958594952622
3777.37,0.027674478239951086
3778.27,0.0284015838518225
3779.17,0.029186909237977645
3780.07,0.030092600864393467
3780.97,0.03129982876619795
3781.87,0.032167997584172915
3782.77,0.03284637894059303
3783.67,0.0330459030810783
3784.57,0.0328145217299164
3785.47,0.031991605441362946
3786.38,0.030783400785883847
3787.28,0.029354591777209556
3788.18,0.028234953672247595
3789.08,0.027348920797547933
3789.98,0.026945844727908345
3790.88,0.027355530892440846
3791.78,0.02773194573834757
3792.68,0.028101637706511362
3793.58,0.028046083739698392
3794.48,0.02803223660451313
3795.38,0.02766547038475942
3796.28,0.027066188789540195
3797.18,0.026884239027343586
3798.08,0.026843614771300674
3798.98,0.02723338968177423
3799.88,0.02842127972647503
3800.78,0.030350859193018352
3801.68,0.03297755256109837
3802.58,0.03570917414184373
3803.48,0.038207275242084164
3804.38,0.04010723368094782
3805.28,0.04129391462341253
3806.18,0.041647155437182164
3807.08,0.04195737659389702
3807.98,0.04238280865871778
3808.88,0.043063573432628656
3809.78,0.044131835650745785
3810.68,0.04493964808402774
3811.58,0.04505850822277221
3812.48,0.04437184011203556
3813.38,0.04290465037072347
3814.28,0.04082271349224168
3815.18,0.03911340574118462
3816.08,0.03762784014310707
3816.98,0.036889319955465814
3817.88,0.03661120472395784
3818.78,0.03642299314291209
3819.68,0.036059308858835834
3820.58,0.03557574822886018
3821.48,0.035343696876720676
3822.38,0.03521609594238234
3823.28,0.03522130252397523
3824.18,0.03484403767784282
3825.09,0.03397135135193689
3825.99,0.03306185367412379
3826.89,0.03242393934260103
3827.79,0.03231228036350786
3828.69,0.032621069413616643
3829.59,0.03351096700484034
3830.49,0.034206879424916535
3831.39,0.03458444631299831
3832.29,0.034640324787117635
3833.19,0.03435241585324238
3834.09,0.03453203272941107
3834.99,0.035293925178554404
3835.89,0.03614139759342149
3836.79,0.036878090888590474
3837.69,0.03770225933548606
3838.59,0.038206123650068716
3839.49,0.039180967701576794
3840.39,0.041080888426776825
3841.29,0.04421707868636191
3842.19,0.04836331772013552
3843.09,0.05367252194144193
3843.99,0.058678782470909
3844.89,0.06310959834724322
3845.79,0.06644545903224598
3846.69,0.06926329393846216
3847.59,0.07085792781721276
3848.49,0.07179758374056021
3849.39,0.07219649745170245
3850.29,0.07229574149196147
3851.19,0.07288961311262497
3852.09,0.0738813750557307
3852.99,0.07463310766825976
3853.89,0.07508099939327464
3854.79,0.07468521511377788
3855.69,0.07368849911536532
3856.59,0.07243184968967
3857.49,0.07022351539513527
3858.39,0.06855890236772705
3859.29,0.0678130940755205
3860.19,0.06773273526960584
3861.09,0.07072151633001317
3861.99,0.07554521315232382
3862.9,0.08160105018724106
3863.8,0.08771343996106898
3864.7,0.09274058191194681
3865.6,0.09577780616701793
3866.5,0.09711762317150342
3867.4,0.09725172254326238
3868.3,0.09666080650213363
3869.2,0.09568687723139883
3870.1,0.093315752154246
3871.0,0.09169225408993274
3871.9,0.09154233160307322
3872.8,0.0933366918320396
3873.7,0.09735004910697281
3874.6,0.10244497098079422
3875.5,0.10830087577091181
3876.4,0.1118018671671874
3877.3,0.1135479956442158
3878.2,0.11359444115538778
3879.1,0.11264499285913662
3880.0,0.11229871724096242
3880.9,0.11346313548940838
3881.8,0.11496571380412814
3882.7,0.11772224817138817
3883.6,0.12114057759479714
3884.5,0.12281358125764946
3885.4,0.12387652092978622
3886.3,0.12445507857237081
3887.2,0.12471441912643715
3888.1,0.12668304040729314
3889.0,0.1306251727503412
3889.9,0.13860497202654404
3890.8,0.1493396697210949
3891.7,0.1624602245379669
3892.6,0.17363541032125207
3893.5,0.1818739489435181
3894.4,0.1883589310629663
3895.3,0.19373799133551595
3896.2,0.19621961257077697
3897.1,0.19891899363543733
3898.0,0.20352915307053213
3898.9,0.20686186931779021
3899.8,0.20930424531007738
3900.7,0.21294415776676062
3901.6,0.2153454709158338
3902.51,0.21631569070335285
3903.41,0.21691908588388942
3904.31,0.2164233044800594
3905.21,0.21836741524135125
3906.11,0.2204006381701211
3907.01,0.22769105801762002
3907.91,0.23907645838852443
3908.81,0.2531733767484265
3909.71,0.26813953893447484
3910.61,0.28233262498619466
3911.51,0.2944849303533612
3912.41,0.30190518793944304
3913.31,0.31018828338189347
3914.21,0.31362261760195687
3915.11,0.3139986963170254
3916.01,0.3150573013917774
3916.91,0.3124936652513138
3917.81,0.30923581008512735
3918.71,0.30119587208671417
3919.61,0.292377844328118
3920.51,0.2846513537759483
3921.41,0.2777498729072467
3922.31,0.2734312772729532
3923.21,0.27244554292767614
3924.11,0.2724007595637712
3925.01,0.2711672533606183
3925.91,0.2655827563802205
3926.81,0.25451225553945195
3927.71,0.2401017371191583
3928.61,0.21793320714863854
3929.51,0.19531760633958495
3930.41,0.17325789434881037
3931.31,0.15292883711251626
3932.21,0.1357240805630809
3933.11,0.12327155317331617
3934.01,0.11696332355600972
3934.91,0.11847712824009382
3935.81,0.1278413289334001
3936.71,0.14514095300195642
3937.61,0.16838851333779076
3938.51,0.19650125294721543
3939.42,0.22619658713616986
3940.32,0.25461215488846534
3941.22,0.2776561069891197
3942.12,0.29713048571696943
3943.02,0.3123604427426283
3943.92,0.3272326933118764
3944.82,0.34579641824398694
3945.72,0.36730665177308935
3946.62,0.3901127192686146
3947.52,0.4152135716107341
3948.42,0.4405049787248351
3949.32,0.4661418920329495
3950.22,0.4870437579118083
3951.12,0.5059175875577648
3952.02,0.5200000013926367
3952.92,0.530455240973208
3953.82,0.538502674062158
3954.72,0.5417003969062884
3955.62,0.5496722650413544
3956.52,0.5477356169523615
3957.42,0.5451108109451946
3958.32,0.5376039386825296
3959.22,0.5272564224657368
3960.12,0.5053035960493149
3961.02,0.47893652714898427
3961.92,0.4466204441245403
3962.82,0.4119877959023792
3963.72,0.3766123409681694
3964.62,0.3429066473230708
3965.52,0.3090911501928777
3966.42,0.2779219085036099
3967.32,0.2493243831883925
3968.22,0.226211357780005
3969.12,0.21336918383258613
3970.02,0.21409890958800734
3970.92,0.23099213521397594
3971.82,0.26123547818190035
3972.72,0.3002108007406356
3973.62,0.3488455558808184
3974.52,0.39923958674728993
3975.42,0.4542799580727219
3976.32,0.5051394943644135
3977.22,0.5551289961301292
3978.13,0.6043866288314295
3979.03,0.6506688562448071
3979.93,0.6878619931372368
3980.83,0.7204500806527931
3981.73,0.7390247903914544
3982.63,0.7555747704712543
3983.53,0.7653284409135143
3984.43,0.7743221113090866
3985.33,0.7860724805980494
3986.23,0.7998048274982281
3987.13,0.8188860199157929
3988.03,0.8313758068675557
3988.93,0.8482691788295591
3989.83,0.8644280544890087
3990.73,0.8775708226716528
3991.63,0.886063411149205
3992.53,0.8939612374608006
3993.43,0.9031682534399654
3994.33,0.9096309024818372
3995.23,0.9015361572052777
3996.13,0.8995992277245378
3997.03,0.8978401589415611
3997.93,0.8985195325549962
3998.83,0.9081385733441968
3999.73,0.9314737883994503
4000.63,0.9495728500470659
4001.53,0.9675801027954131
4002.43,0.9816254972431679
4003.33,0.9772819808579466
4004.23,0.9659898107589262
4005.13,0.9519957931285925
4006.03,0.9299534807088798
4006.93,0.9250355727281463
4007.83,0.929917781454405
4008.73,0.9455408698438248
4009.63,0.9665067630376588
4010.53,0.9902679144802637
4011.43,1.0130504779607918
4012.33,1.022506529100832
4013.23,1.0368270965977906
4014.13,1.0489152060712579
4015.03,1.050501742304125
4015.93,1.0593030995507522
4016.84,1.061398145852129
4017.74,1.063971164328737
4018.64,1.0630535448428393
4019.54,1.0680804198181781
4020.44,1.0733663128038728
4021.34,1.0745102957612616
4022.24,1.0746866377110553
4023.14,1.072099288209614
4024.04,1.0663374362792546
4024.94,1.0691675815012198
4025.84,1.0694845233602057
4026.74,1.0749754691857532
4027.64,1.0816382166514664
4028.54,1.074169609345947
4029.44,1.0551800372691367
4030.34,1.0214730598116777
4031.24,0.9877060509872125
4032.14,0.9454498919767237
4033.04,0.9160865478996209
4033.94,0.906502733452491
4034.84,0.917192627895289
4035.74,0.947744250070453
4036.64,0.9891434473614875
4037.54,1.0340963340270042
4038.44,1.0723664839031268
4039.34,1.099454140539201
4040.24,1.1026029407193727
4041.14,1.095327997233898
4042.04,1.075678437651782
4042.94,1.0310820957389908
4043.84,0.9916374462355699
4044.74,0.9416623085129666
4045.64,0.9019914924228455
4046.54,0.8811833717022094
4047.44,0.889491984537938
4048.34,0.9200282262949389
4049.24,0.9603738722449243
4050.14,1.011000938045933
4051.04,1.0467421595049506
4051.94,1.05737211904386
4052.84,1.0599249647384592
4053.74,1.0523034008575085
4054.65,1.028998254934137
4055.55,1.0075823915716184
4056.45,0.9874790384350846
4057.35,0.9720908033103126
4058.25,0.961329405701335
4059.15,0.9597188119716035
4060.05,0.9573744588477618
4060.95,0.9555111197314212
4061.85,0.9400747028176798
4062.75,0.9214253955848146
4063.65,0.9010226871952042
4064.55,0.8868507244251135
4065.45,0.8805886601407157
4066.35,0.8969497587655296
4067.25,0.9167440695615447
4068.15,0.946475197198231
4069.05,0.961304633457471
4069.95,0.9721798856212062
4070.85,0.9762227822194958
4071.75,0.9679182776169397
4072.65,0.9606679183509483
4073.55,0.9587116912846512
4074.45,0.9539615113048557
4075.35,0.9469029579806403
4076.25,0.9388990105663088
4077.15,0.9247642849724366
4078.05,0.9244508377576324
4078.95,0.9352206186267601
4079.85,0.9576891854963464
4080.75,0.9895253231718187
4081.65,1.01710918158751
4082.55,1.0424374758832904
4083.45,1.0531233575334915
4084.35,1.0569755591170409
4085.25,1.0601957544939689
4086.15,1.0746003625320961
4087.05,1.0896293666060022
4087.95,1.111776424852482
4088.85,1.1288413099235033
4089.75,1.1434438211968745
4090.65,1.1470516752460718
4091.55,1.1365237097572174
4092.45,1.1246760433666085
4093.36,1.1077950671275956
4094.26,1.0861391120551878
4095.16,1.0619944202913074
4096.06,1.0332371925642374
4096.96,1.0000311928092673
4097.86,0.9732450188032131
4098.76,0.9404377576780426
4099.66,0.914513756885397
4100.56,0.8892530594625935
4101.46,0.8670896439724027
4102.36,0.8581494052148683
4103.26,0.8592751846506371
4104.16,0.8850488064160118
4105.06,0.9158318339297546
4105.96,0.9495804101082054
4106.86,0.9790818803931983
4107.76,1.007397939589159
4108.66,1.0191013858530886
4109.56,1.0225879817629433
4110.46,1.024206035687454
4111.36,1.02481818678699
4112.26,1.026458841818265
4113.16,1.0350702030822123
4114.06,1.0447051496109248
4114.96,1.0576295917265892
4115.86,1.0654813859755292
4116.76,1.070607566841128
4117.66,1.0634055718220299
4118.56,1.0563751415945963
4119.46,1.0464721309994545
4120.36,1.0390049229583556
4121.26,1.0296017101708523
4122.16,1.030433996898115
4123.06,1.0347880522644186
4123.96,1.037046521286483
4124.86,1.043527242092217
4125.76,1.0433903154842648
4126.66,1.0431873415446427
4127.56,1.0377727890659751
4128.46,1.0220823390114553
4129.36,1.005002972022523
4130.26,0.9880929971787835
4131.17,0.9644935877774199
4132.06,0.9465186934303104
4132.97,0.9339306996412131
4133.87,0.9281324448198072
4134.77,0.9432248295808562
4135.67,0.9614424896094711
4136.57,0.9869150095263787
4137.47,1.0161369118322525
4138.37,1.0411615925582334
4139.27,1.0533407661669045
4140.17,1.047998812340909
4141.07,1.032068480558749
4141.97,1.002742671242344
4142.87,0.9722532368872273
4143.77,0.9480032521099703
4144.67,0.9320970946747115
4145.57,0.9267969984728469
4146.47,0.9357690401404011
4147.37,0.9539497896620759
4148.27,0.973934645187937
4149.17,0.9831698442420416
4150.07,0.9866434571035979
4150.97,0.9801405823673863
4151.87,0.9711464466153132
4152.77,0.9634044426613961
4153.67,0.9567591114026841
4154.57,0.9516002311111795
4155.47,0.9540171519261876
4156.37,0.9539420094128114
4157.27,0.9633203556470279
4158.17,0.9767684662231364
4159.07,1.0006933206197854
4159.97,1.0209598854587816
4160.87,1.0410829207174859
4161.77,1.0592645313754687
4162.67,1.0711261717243714
4163.57,1.0787746356786005
4164.47,1.075559756951807
4165.37,1.068671353113693
4166.27,1.0561501754527298
4167.17,1.0390882390532137
4168.07,1.0296142210235035
4168.98,1.0180278669538891
4169.88,1.00862873124291
4170.78,0.9919429238647369
4171.68,0.9742333549174897
4172.58,0.957065500943928
4173.48,0.942086026798269
4174.38,0.9290610244628102
4175.28,0.9234023939980418
4176.18,0.9279389294616509
4177.08,0.9353813752901486
4177.98,0.9456532968330797
4178.88,0.9554594176413697
4179.78,0.9655060163992515
4180.68,0.9732013733708644
4181.58,0.9812928082809713
4182.48,0.983809244555155
4183.38,0.9902554754077127
4184.28,1.0029925427917226
4185.18,1.0015815456311652
4186.08,0.9999322284489466
4186.98,0.9986740411920632
4187.88,0.9966264772652292
4188.78,0.9944973388278355
4189.68,1.0009452157500893
4190.58,1.0046379605441693
4191.48,1.0192768572774118
4192.38,1.03021694621075
4193.28,1.0392674398883637
4194.18,1.0395707527104847
4195.08,1.026785246240183
4195.98,1.0065006724928827
4196.88,0.984941978673077
4197.78,0.9595843644939133
4198.68,0.9391825763182213
4199.58,0.9223980230413258
4200.48,0.9138894035274888
4201.38,0.9181604376824548
4202.28,0.9248756136600792
4203.18,0.9442219416684053
4204.08,0.9659387619466089
4204.98,0.9862354422602367
4205.88,1.0178292496197034
4206.79,1.0450828197366417
4207.69,1.0649868999337362
4208.59,1.0828343287725395
4209.49,1.0929332641820348
4210.39,1.0921969001651692
4211.29,1.0965126820197866
4212.19,1.087379261539598
4213.09,1.0757054549957497
4213.99,1.0612533732827278
4214.89,1.0528012116465695
4215.79,1.0434695325924914
4216.69,1.0450442029951414
4217.59,1.0531767385635404
4218.49,1.0749876958158455
4219.39,1.0996397767052881
4220.29,1.110834011617938
4221.19,1.1120493650531933
4222.09,1.0979052338571713
4222.99,1.0653941188707337
4223.89,1.0090564996050264
4224.79,0.9405258307802791
4225.69,0.8791875555073481
4226.59,0.8317691187316689
4227.49,0.8114029065556747
4228.39,0.8233866145291119
4229.29,0.8592508009386807
4230.19,0.9106842147980106
4231.09,0.9632865152247955
4231.99,1.0099383182768369
4232.89,1.0351395943621124
4233.79,1.0437197165844367
4234.69,1.039320518264156
4235.59,1.0296939272112893
4236.49,1.0196630710539596
4237.39,1.0174474334656323
4238.29,1.0184602593880285
4239.19,1.02862494815959
4240.09,1.0421700657562034
4240.99,1.0662791805731646
4241.89,1.0894969766196518
4242.79,1.113559615435315
4243.69,1.1319952213638913
4244.59,1.144333480359172
4245.5,1.1483663950784218
4246.4,1.1442646388458326
4247.3,1.1237553867454293
4248.2,1.0934727180685675
4249.1,1.0627220502010177
4250.0,1.027252565680622
4250.9,1.0088774071665716
4251.8,1.0001820797222714
4252.7,0.9938402027698937
4253.6,1.0010949213754934
4254.5,1.0017282315399434
4255.4,1.0130347797392747
4256.3,1.0191348730527585
4257.2,1.0311833016192296
4258.1,1.0270415907178752
4259.0,1.01590883480961
4259.9,1.0164554041548903
4260.8,1.007740311550352
4261.7,1.011004981800097
4262.6,1.0317900350405633
4263.5,1.0650600237202446
4264.4,1.0975773499281547
4265.3,1.130904678190435
4266.2,1.1406654411902537
4267.1,1.1384541964361117
4268.0,1.11742410142571
4268.9,1.081118777107585
4269.8,1.0308136495759972
4270.7,0.9796998880720583
4271.6,0.9308944074918825
4272.5,0.8896845372569142
4273.4,0.8691176254004048
4274.3,0.8697748262390577
4275.2,0.889904919489516
4276.1,0.9225630493532815
4277.0,0.9673336356359226
4277.9,1.0062944540494858
4278.8,1.0391465873955477
4279.7,1.056929741366018
4280.6,1.0628461017469388
4281.5,1.0636417072481066
4282.4,1.0530776106411754
4283.31,1.0497552029148682
4284.21,1.0390374045503359
4285.11,1.032018366841791
4286.01,1.011152456121771
4286.91,0.9969175957122072
4287.81,0.9773957011865326
4288.71,0.948765807231345
4289.61,0.9325912588015587
4290.51,0.9165102091386633
4291.41,0.914753711609602
4292.31,0.9229257044991568
4293.21,0.9293904958921207
4294.11,0.9446049237803019
4295.01,0.9496409274382087
4295.91,0.9461262851492726
4296.81,0.9267077101118999
4297.71,0.8956126142041589
4298.61,0.8568248405392667
4299.51,0.8102933084591674
4300.41,0.7760453116985107
4301.31,0.752840320512574
4302.21,0.734249019734034
4303.11,0.7273713999579412
4304.01,0.7198360399841569
4304.91,0.7160686345792248
4305.81,0.7109384500607758
4306.71,0.7009308954400167
4307.61,0.6885113950514715
4308.51,0.6807630654470804
4309.41,0.6833886636043316
4310.31,0.6958435934002626
4311.21,0.7223401313872326
4312.11,0.7651585809003695
4313.01,0.8213163150498971
4313.91,0.8889540044529687
4314.81,0.9593963889871971
4315.71,1.032631524791542
4316.61,1.1058255060356084
4317.51,1.1588846995730517
4318.41,1.2060247031768345
4319.31,1.2160569135649306
4320.21,1.2120167186908213
4321.12,1.188556450928049
4322.02,1.146741399662238
4322.92,1.0919245306825767
4323.82,1.0317260588866985
4324.72,0.9788653077188145
4325.62,0.9429163668087702
4326.52,0.9303295288577952
4327.42,0.9464946659090068
4328.32,0.9826836059654344
4329.22,1.0363362600173296
4330.12,1.0883062122078662
4331.02,1.130019285557247
4331.92,1.1567966270539856
4332.82,1.1808073084927828
4333.72,1.1913460010307755
4334.62,1.1852136597366412
4335.52,1.164429947651508
4336.42,1.130570639700301
4337.32,1.087651639159592
4338.22,1.032908066774059
4339.12,0.981254409785777
4340.02,0.9409965756728234
4340.92,0.9156664736881398
4341.82,0.91706941856933
4342.72,0.9356667036398066
4343.62,0.961047004220819
4344.52,1.0028614183822366
4345.42,1.0426986611589621
4346.32,1.0726175203971284
4347.22,1.1066221960237679
4348.12,1.1144763889398623
4349.02,1.1282351581494574
4349.92,1.1128044129334844
4350.82,1.0938889532209874
4351.72,1.069394949155361
4352.62,1.05304507339989
4353.52,1.0368078010837403
4354.42,1.0292268521942405
4355.32,1.0394242234872293
4356.22,1.0539142436127904
4357.12,1.0673080389921272
4358.02,1.0846930329952993
4358.92,1.0922186549748911
4359.83,1.1025420802537498
4360.73,1.1122925305064182
