wave,flux
3700.85,-5.430200562572903e-05
3701.75,-5.325713573841471e-05
3702.65,-5.1559083671125874e-05
3703.55,-4.8625341295020256e-05
3704.45,-4.5208288180755265e-05
3705.35,-4.198221683631338e-05
3706.25,-3.942328551399505e-05
3707.15,-3.819358624677353e-05
3708.05,-3.8090988820655297e-05
3708.96,-3.9247073867514216e-05
3709.86,-4.1444248030708844e-05
3710.76,-4.472045951803951e-05
3711.66,-4.869144999738261e-05
3712.56,-5.278729963002879e-05
3713.46,-5.61411629652099e-05
3714.36,-5.863108205113541e-05
3715.26,-5.9064291998245884e-05
3716.16,-5.796367122062688e-05
3717.06,-5.560628522537697e-05
3717.96,-5.144749743918328e-05
3718.86,-4.66562547430554e-05
3719.76,-4.204594770582143e-05
3720.66,-3.831028961813225e-05
3721.56,-3.6225245626283974e-05
3722.46,-3.632912707804972e-05
3723.36,-3.8590911485603596e-05
3724.26,-4.203535897546752e-05
3725.16,-4.572356828589816e-05
3726.06,-4.855738758655607e-05
3726.96,-5.0270612626891895e-05
3727.86,-5.088225397599025e-05
3728.76,-5.08635470435197e-05
3729.66,-5.052386427468635e-05
3730.56,-4.936687382289197e-05
3731.46,-4.73794764478344e-05
3732.36,-4.4275734761790384e-05
3733.26,-4.041939406216286e-05
3734.16,-3.6555214439449126e-05
3735.06,-3.3563516274307515e-05
3735.96,-3.210959476442525e-05
3736.86,-3.2446564294804996e-05
3737.76,-3.4850807501120996e-05
3738.66,-3.883026117930988e-05
3739.56,-4.347826518106843e-05
3740.46,-4.7468551454118704e-05
3741.36,-5.0302039086786536e-05
3742.26,-5.097364477092017e-05
3743.16,-4.97532646486609e-05
3744.06,-4.72260539999148e-05
3744.96,-4.394801205222948e-05
3745.86,-4.07017641872998e-05
3746.76,-3.815746571403833e-05
3747.67,-3.6417848399435164e-05
3748.57,-3.54149142346708e-05
3749.47,-3.6255090132065945e-05
3750.37,-3.845330727345005e-05
3751.27,-4.2458353275661646e-05
3752.17,-4.7729411410045717e-05
3753.07,-5.386673785466085e-05
3753.97,-5.885625052611236e-05
3754.87,-6.235746586059154e-05
3755.77,-6.395451823470217e-05
3756.67,-6.279886264960845e-05
3757.57,-6.0205036144868894e-05
3758.47,-5.696441966103497e-05
3759.37,-5.45792512051989e-05
3760.27,-5.3476211714245664e-05
3761.17,-5.3819346122752564e-05
3762.07,-5.514796410260042e-05
3762.97,-5.6026289872540544e-05
3763.87,-5.6755609824889155e-05
3764.77,-5.745379909656708e-05
3765.67,-5.787051430422127e-05
3766.57,-5.8511644097110285e-05
3767.47,-5.919248515338464e-05
3768.37,-6.106587314487408e-05
3769.27,-6.342181287798822e-05
3770.17,-6.55766837000644e-05
3771.07,-6.853405350418689e-05
3771.97,-7.147621555222977e-05
3772.87,-7.434299092675748e-05
3773.77,-7.646398761558609e-05
3774.67,-7.861110735992501e-05
3775.57,-7.979758950292225e-05
3776.47,-8.044089845587106e-05
3777.37,-8.102105169623676e-05
3778.27,-8.227960989774876e-05
3779.17,-8.43017864813395e-05
3780.07,-8.614764939149358e-05
3780.97,-8.818021209382555e-05
3781.87,-9.02380418395241e-05
3782.77,-9.119815884567941e-05
3783.67,-9.129950175623475e-05
3784.57,-8.979497407557672e-05
3785.47,-8.705590822299468e-05
3786.38,-8.338885059486407e-05
3787.28,-7.905037429354967e-05
3788.18,-7.459659519918092e-05
3789.08,-7.198054383452782e-05
3789.98,-7.071709240040662e-05
3790.88,-7.098454660820459e-05
3791.78,-7.154188800870323e-05
3792.68,-7.199130575664798e-05
3793.58,-7.140813940361958e-05
3794.48,-7.051092425059556e-05
3795.38,-6.849715928380292e-05
3796.28,-6.66293418435097e-05
3797.18,-6.53791773561008e-05
3798.08,-6.485624035787949e-05
3798.98,-6.51777948283273e-05
3799.88,-6.749579585597132e-05
3800.78,-7.138164013631548e-05
3801.68,-7.66282490920545e-05
3802.58,-8.211158466016983e-05
3803.48,-8.743401761426017e-05
3804.38,-9.077305378842548e-05
3805.28,-9.26135054160073e-05
3806.18,-9.321136879523137e-05
3807.08,-9.305208174415814e-05
3807.98,-9.319629991819262e-05
3808.88,-9.346089866745498e-05
3809.78,-9.422711717547079e-05
3810.68,-9.499811174923352e-05
3811.58,-9.463543469241615e-05
3812.48,-9.239332111626102e-05
3813.38,-8.86537505198911e-05
3814.28,-8.395263455182971e-05
3815.18,-7.944634437582779e-05
3816.08,-7.566360369913252e-05
3816.98,-7.388820018659874e-05
3817.88,-7.215126788692156e-05
3818.78,-7.163135289933677e-05
3819.68,-7.022751127336878e-05
3820.58,-6.885236158079488e-05
3821.48,-6.767323707737906e-05
3822.38,-6.663715264804139e-05
3823.28,-6.593021757147447e-05
3824.18,-6.480024232762197e-05
3825.09,-6.295292264099083e-05
3825.99,-6.0702512341510955e-05
3826.89,-5.88758926515871e-05
3827.79,-5.7765935247361354e-05
3828.69,-5.8202256378622755e-05
3829.59,-5.873206828908597e-05
3830.49,-5.944231154725432e-05
3831.39,-5.974389190175255e-05
3832.29,-5.8842054536973465e-05
3833.19,-5.8289483838600475e-05
3834.09,-5.775079267082637e-05
3834.99,-5.821238366929711e-05
3835.89,-5.9080982273579915e-05
3836.79,-5.9530157344890366e-05
3837.69,-6.04648021886762e-05
3838.59,-6.087932324363856e-05
3839.49,-6.163844368401721e-05
3840.39,-6.413577609455934e-05
3841.29,-6.81951891970252e-05
3842.19,-7.438039813722668e-05
3843.09,-8.115635689146046e-05
3843.99,-8.797568676221944e-05
3844.89,-9.38552700852869e-05
3845.79,-9.813508750580693e-05
3846.69,-0.00010084165025458243
3847.59,-0.00010191036262761643
3848.49,-0.00010216930617621339
3849.39,-0.00010178638273374226
3850.29,-0.00010153448094666697
3851.19,-0.00010114420472265337
3852.09,-0.00010109803970289714
3852.99,-0.00010166593390376759
3853.89,-0.00010123881044273997
3854.79,-9.960299791305587e-05
3855.69,-9.80397055489013e-05
3856.59,-9.4704337580154e-05
3857.49,-9.087867630372471e-05
3858.39,-8.753806891195785e-05
3859.29,-8.565323783908098e-05
3860.19,-8.506914148005724e-05
3861.09,-8.79446316101915e-05
3861.99,-9.310916734980444e-05
3862.9,-9.929273021605866e-05
3863.8,-0.00010542479134321821
3864.7,-0.00011008589199987358
3865.6,-0.00011273125960784714
3866.5,-0.00011329995209060683
3867.4,-0.00011257555496177525
3868.3,-0.00011082997679033222
3869.2,-0.00010830978757959094
3870.1,-0.00010507247643271275
3871.0,-0.00010222947128817351
3871.9,-0.00010117590815275202
3872.8,-0.00010141807635964098
3873.7,-0.00010479641832045955
3874.6,-0.00010887074168664032
3875.5,-0.00011295222615804813
3876.4,-0.00011623827362023066
3877.3,-0.00011667016923883504
3878.2,-0.00011544162595681724
3879.1,-0.00011345412714924753
3880.0,-0.00011181257496688787
3880.9,-0.00011200896449492084
3881.8,-0.0001126965518750035
3882.7,-0.00011436783086459496
3883.6,-0.00011543659691644028
3884.5,-0.00011606347916780319
3885.4,-0.00011622594036818136
3886.3,-0.00011461252712579505
3887.2,-0.00011401088243987928
3888.1,-0.00011423717697488414
3889.0,-0.00011730639786195404
3889.9,-0.00012280493803904996
3890.8,-0.000130784392677034
3891.7,-0.00013988998642251404
3892.6,-0.0001480836013702834
3893.5,-0.00015450807686841694
3894.4,-0.00015779611033089669
3895.3,-0.00015982969493463932
3896.2,-0.00016181691880995651
3897.1,-0.00016291254032456095
3898.0,-0.00016355851426064205
3898.9,-0.0001652593362863168
3899.8,-0.00016546818811256176
3900.7,-0.00016652248784688664
3901.6,-0.00016688765314895338
3902.51,-0.00016586775247420037
3903.41,-0.00016468485363391273
3904.31,-0.00016393702257578175
3905.21,-0.00016254860948904942
3906.11,-0.00016308587489108134
3907.01,-0.00016681544662165555
3907.91,-0.00017353037070238188
3908.81,-0.00018185519514997216
3909.71,-0.00019030779793609523
3910.61,-0.00019859769382554173
3911.51,-0.0002051406930001997
3912.41,-0.00020936699990939514
3913.31,-0.0002120578455005351
3914.21,-0.00021385051665515162
3915.11,-0.00021340897603089028
3916.01,-0.00021025975985482172
3916.91,-0.00020757999311834827
3917.81,-0.00020126558981829135
3918.71,-0.00019574313021874886
3919.61,-0.00018937185514925178
3920.51,-0.00018302562618094278
3921.41,-0.00017674761652499563
3922.31,-0.000173093559222465
3923.21,-0.00017066670203323854
3924.11,-0.00016892726703759685
3925.01,-0.000166785534646972
3925.91,-0.0001626626690687545
3926.81,-0.0001552475859445741
3927.71,-0.00014425203873500488
3928.61,-0.00013034358467522983
3929.51,-0.00011667567510746752
3930.41,-0.00010268263855206855
3931.31,-8.989427715083878e-05
3932.21,-7.881138558453548e-05
3933.11,-7.105190456098453e-05
3934.01,-6.701554986718735e-05
3934.91,-6.74157087040273e-05
3935.81,-7.219425728221271e-05
3936.71,-8.100840452848538e-05
3937.61,-9.420482542524132e-05
3938.51,-0.00010883080855098696
3939.42,-0.0001250488700355578
3940.32,-0.0001397038309026958
3941.22,-0.0001512052933751348
3942.12,-0.00016105010952788975
3943.02,-0.00016874460910086935
3943.92,-0.00017616067502035097
3944.82,-0.00018469363646585573
3945.72,-0.00019495525206115276
3946.62,-0.00020582959869824553
3947.52,-0.00021837214689513106
3948.42,-0.00022950266988215845
3949.32,-0.0002414285664841104
3950.22,-0.0002506547621413615
3951.12,-0.0002577901480928109
3952.02,-0.0002638413321015956
3952.92,-0.00026917797920813016
3953.82,-0.00027130474302745346
3954.72,-0.0002743008027292269
3955.62,-0.0002739674277905114
3956.52,-0.00027368322397997854
3957.42,-0.00027155873324539304
3958.32,-0.0002667257950863138
3959.22,-0.0002606618449095279
3960.12,-0.0002512972129123878
3961.02,-0.00023604041726058735
3961.92,-0.00021949100148476922
3962.82,-0.00020246500826231532
3963.72,-0.0001852479082408901
3964.62,-0.00016796004683071878
3965.52,-0.00015198585588901248
3966.42,-0.00013657445778330674
3967.32,-0.00012105809438041369
3968.22,-0.00010977587613720483
3969.12,-0.00010335508102262873
3970.02,-0.0001040640418090672
3970.92,-0.00011147128038428345
3971.82,-0.00012567644843462065
3972.72,-0.0001451697438269685
3973.62,-0.0001688589113465797
3974.52,-0.0001934855040897561
3975.42,-0.00021912562871145754
3976.32,-0.00024463717620387736
3977.22,-0.0002687635396425409
3978.13,-0.00029083898291920563
3979.03,-0.0003134699929928794
3979.93,-0.00033141800979042627
3980.83,-0.0003460297621497184
3981.73,-0.0003551647370800781
3982.63,-0.0003618925795659358
3983.53,-0.0003687293623175532
3984.43,-0.00037215140648616833
3985.33,-0.0003808893447438463
3986.23,-0.00038732128878815733
3987.13,-0.00039499517380220595
3988.03,-0.00040363898579646947
3988.93,-0.0004116367855395543
3989.83,-0.00041804113671498234
3990.73,-0.0004283865975161073
3991.63,-0.00043230214326008004
3992.53,-0.0004404809176047625
3993.43,-0.0004426924876726311
3994.33,-0.0004462672916641604
3995.23,-0.0004452129538897301
3996.13,-0.0004429178564049512
3997.03,-0.00044466780555766093
3997.93,-0.00044638502328755563
3998.83,-0.00045304863166286026
3999.73,-0.000463511333097325
4000.63,-0.0004767565408172657
4001.53,-0.00048727277466049327
4002.43,-0.0004938610733717048
4003.33,-0.0004962383080172367
4004.23,-0.0004927068866449492
4005.13,-0.00048494378583852695
4006.03,-0.00047899176049618145
4006.93,-0.00047720936273455244
4007.83,-0.00048431107772513586
4008.73,-0.0004920869080565461
4009.63,-0.0005069213888829906
4010.53,-0.0005208482908333449
4011.43,-0.0005341536112561233
4012.33,-0.0005449358420246458
4013.23,-0.0005529230923113267
4014.13,-0.0005594382251275051
4015.03,-0.0005650783010547978
4015.93,-0.0005742870770924172
4016.84,-0.0005769243529539702
4017.74,-0.0005795784446884609
4018.64,-0.000585693560562159
4019.54,-0.0005917752679511552
4020.44,-0.0005957265000598919
4021.34,-0.0006021926155202961
4022.24,-0.0006039084842890169
4023.14,-0.0006016342507873839
4024.04,-0.0006104011366659705
4024.94,-0.0006135335965294111
4025.84,-0.0006183321590948049
4026.74,-0.0006263418607122646
4027.64,-0.0006330108249784091
4028.54,-0.0006344561089702839
4029.44,-0.0006268408729804508
4030.34,-0.0006113361995944097
4031.24,-0.0005926761431732095
4032.14,-0.0005735403922756939
4033.04,-0.0005615866165852696
4033.94,-0.0005604079740047498
4034.84,-0.000569963637576434
4035.74,-0.0005936500391964626
4036.64,-0.0006227760499224281
4037.54,-0.0006541728348016617
4038.44,-0.0006829892692191661
4039.34,-0.0007000661022540121
4040.24,-0.0007097451704117491
4041.14,-0.0007091610913202499
4042.04,-0.000699252381221049
4042.94,-0.0006780147330271794
4043.84,-0.0006549115633111334
4044.74,-0.0006301863776964728
4045.64,-0.0006062229134339316
4046.54,-0.0006008428916544349
4047.44,-0.0006065186869410105
4048.34,-0.0006304086121285606
4049.24,-0.0006678083677346285
4050.14,-0.000701279430898694
4051.04,-0.0007334850785793983
4051.94,-0.000749619760977422
4052.84,-0.0007577072711145276
4053.74,-0.0007569838795072512
4054.65,-0.0007458822926748602
4055.55,-0.0007370204946575664
4056.45,-0.0007311138202322106
4057.35,-0.0007236856378187262
4058.25,-0.0007206957761464734
4059.15,-0.0007219882118042338
4060.05,-0.0007267754375892994
4060.95,-0.0007276277904519767
4061.85,-0.0007271928347069388
4062.75,-0.0007174544481022611
4063.65,-0.0007065219052234493
4064.55,-0.0006994912278852798
4065.45,-0.0007033618729999947
4066.35,-0.000717704751953935
4067.25,-0.000741017559665084
4068.15,-0.0007674231605208584
4069.05,-0.0007895368381501797
4069.95,-0.0008055769034830037
4070.85,-0.0008128287212363735
4071.75,-0.000813092855782277
4072.65,-0.0008115333948185028
4073.55,-0.0008129744821583391
4074.45,-0.0008162904187112015
4075.35,-0.0008175760889067394
4076.25,-0.0008154407774347534
4077.15,-0.0008110267131924418
4078.05,-0.0008155078532816132
4078.95,-0.000829869641610698
4079.85,-0.0008584787519088658
4080.75,-0.0008881175256130945
4081.65,-0.0009237612190732302
4082.55,-0.0009495146251654564
4083.45,-0.0009716913559543412
4084.35,-0.0009840914726034907
4085.25,-0.0009971585446299247
4086.15,-0.0010079163588455717
4087.05,-0.0010349933338760207
4087.95,-0.0010618679608651227
4088.85,-0.0010889240728454781
4089.75,-0.0011093814199902557
4090.65,-0.0011229366178844155
4091.55,-0.001131038856785019
4092.45,-0.0011264812845942144
4093.36,-0.0011154885974499818
4094.26,-0.0011010117052699289
4095.16,-0.0010835622913598186
4096.06,-0.001064073160848227
4096.96,-0.001044506559749371
4097.86,-0.0010207433293856422
4098.76,-0.0009954057972593692
4099.66,-0.0009711077362801052
4100.56,-0.0009501092012683698
4101.46,-0.0009356872440545859
4102.36,-0.0009338278885017992
4103.26,-0.0009436648811701343
4104.16,-0.0009721742381483635
4105.06,-0.0010129915658479835
4105.96,-0.0010632411762264034
4106.86,-0.0011076690367051783
4107.76,-0.0011439565301272286
4108.66,-0.0011659593719535982
4109.56,-0.001177609099750316
4110.46,-0.001191143905616597
4111.36,-0.0011986372876720405
4112.26,-0.001210151282930106
4113.16,-0.0012262490667231932
4114.06,-0.0012491378462000165
4114.96,-0.0012803163983043423
4115.86,-0.001293231026046981
4116.76,-0.001308920840474227
4117.66,-0.0013153116615540266
4118.56,-0.0013168666036065158
4119.46,-0.0013109751268915548
4120.36,-0.0013053386837261853
4121.26,-0.0013128672042995336
4122.16,-0.0013187063291561002
4123.06,-0.0013367377786379084
4123.96,-0.0013523782420195231
4124.86,-0.0013693395565830436
4125.76,-0.0013794259154921078
4126.66,-0.001386517706753867
4127.56,-0.0013845544749812643
4128.46,-0.0013806634639015238
4129.36,-0.0013744762315620526
4130.26,-0.0013569693439481076
4131.17,-0.001341671195594172
4132.06,-0.0013221889328637775
4132.97,-0.0013102931714413615
4133.87,-0.0013230752617260661
4134.77,-0.0013493919470157387
4135.67,-0.0013872584405778662
4136.57,-0.0014361253601802373
4137.47,-0.0014856630548444431
4138.37,-0.0015263970655285098
4139.27,-0.0015552896189209094
4140.17,-0.0015645782412585297
4141.07,-0.0015510586183739273
4141.97,-0.0015213293250258564
4142.87,-0.0014857221954558098
4143.77,-0.0014506006652970917
4144.67,-0.0014430148954682211
4145.57,-0.0014474310487217553
4146.47,-0.0014744028366069865
4147.37,-0.0015206586764358455
4148.27,-0.0015543145516408983
4149.17,-0.0015834093334835236
4150.07,-0.0016073165355751364
4150.97,-0.0016033866044619567
4151.87,-0.0016098122458850393
4152.77,-0.0016025052092798677
4153.67,-0.0016124585872953612
4154.57,-0.001611071799248092
4155.47,-0.0016256830559972877
4156.37,-0.001634029964554401
4157.27,-0.001673339864436536
4158.17,-0.0017099909831706085
4159.07,-0.0017485208781129866
4159.97,-0.0018009218207860147
4160.87,-0.0018408677560873585
4161.77,-0.0018889130879855142
4162.67,-0.0019298397412020605
4163.57,-0.00194432528931446
4164.47,-0.0019647851761722427
4165.37,-0.001963067842807936
4166.27,-0.0019554297658886163
4167.17,-0.0019519095722618054
4168.07,-0.0019400864344626609
4168.98,-0.0019387854760701212
4169.88,-0.0019287627075108703
4170.78,-0.0019164720087717745
4171.68,-0.0018987486428690603
4172.58,-0.0018789179721747883
4173.48,-0.0018555102074924543
4174.38,-0.0018520328195382474
4175.28,-0.00185659431611025
4176.18,-0.0018844459537895632
4177.08,-0.0019054595819585633
4177.98,-0.001947763268205972
4178.88,-0.0019866587060113675
4179.78,-0.0020172110211617703
4180.68,-0.002053871918165396
4181.58,-0.0020775937293565413
4182.48,-0.0021144222041629334
4183.38,-0.002137923584523712
4184.28,-0.0021602951395233716
4185.18,-0.0021895718048279356
4186.08,-0.0021965776251635224
4186.98,-0.002212306075217562
4187.88,-0.0022263710247305817
4188.78,-0.0022349281390815533
4189.68,-0.002267592520172748
4190.58,-0.0023039733565673026
4191.48,-0.0023476804452636645
4192.38,-0.0023923420784728363
4193.28,-0.0024219517328948445
4194.18,-0.0024387960211836573
4195.08,-0.0024417925702118993
4195.98,-0.0024168869995055673
4196.88,-0.0023791692371882586
4197.78,-0.002334808688184828
4198.68,-0.0023077962537459244
4199.58,-0.0022939770982911348
4200.48,-0.002292876534018
4201.38,-0.0023060280661460707
4202.28,-0.002357915539948689
4203.18,-0.002421246692665355
4204.08,-0.002493593822353839
4204.98,-0.002579781253870985
4205.88,-0.0026596409640878213
4206.79,-0.002759037531185476
4207.69,-0.002835613879301879
4208.59,-0.002901600821529388
4209.49,-0.0029433965451663843
4210.39,-0.0029815324755012077
4211.29,-0.0030032510547175393
4212.19,-0.0030099275294715225
4213.09,-0.0030086344987473664
4213.99,-0.003000310513331343
4214.89,-0.0029944241915268815
4215.79,-0.002985945463748976
4216.69,-0.003004230073724771
4217.59,-0.0030676135666613236
4218.49,-0.003153726774484234
4219.39,-0.0032430219807536497
4220.29,-0.0033191469681145623
4221.19,-0.003335004040968272
4222.09,-0.003320235611381827
4222.99,-0.003246080735667601
4223.89,-0.003104540073684413
4224.79,-0.002938740042098881
4225.69,-0.002764597987432808
4226.59,-0.0026298314523663423
4227.49,-0.002587662403742883
4228.39,-0.0026371004267543826
4229.29,-0.002803625282255475
4230.19,-0.002986086836351766
4231.09,-0.0031872701590160055
4231.99,-0.0033507449763838823
4232.89,-0.003464899521512872
4233.79,-0.0035289801195321846
4234.69,-0.003553842497159092
4235.59,-0.003547667246040621
4236.49,-0.0035245600304142297
4237.39,-0.0035516315623760194
4238.29,-0.0035829564589527916
4239.19,-0.0036512705515424214
4240.09,-0.003737727015297021
4240.99,-0.0038539513825861633
4241.89,-0.003953882808758871
4242.79,-0.004108220084315941
4243.69,-0.004191421303824814
4244.59,-0.004294975123805086
4245.5,-0.0043412712674752146
4246.4,-0.004350840109226759
4247.3,-0.004300962459566163
4248.2,-0.004237953835474026
4249.1,-0.0041544876842297815
4250.0,-0.004079531756712575
4250.9,-0.0040459950075365046
4251.8,-0.004027910793302415
4252.7,-0.004062564180746404
4253.6,-0.004083617476638553
4254.5,-0.00417245048409044
4255.4,-0.004232507701636449
4256.3,-0.004312451837407641
4257.2,-0.004370829863808377
4258.1,-0.004419546557948862
4259.0,-0.0044443240806618855
4259.9,-0.004450165549580118
4260.8,-0.004461158844361159
4261.7,-0.0045479485780677035
4262.6,-0.00465341614753764
4263.5,-0.004839208310317898
4264.4,-0.005052418382311753
4265.3,-0.005212470572184433
4266.2,-0.005329168698032514
4267.1,-0.005384981121503303
4268.0,-0.0053322630480544
4268.9,-0.005200520200541414
4269.8,-0.005018425861742208
4270.7,-0.004819666005159966
4271.6,-0.0046359978515927505
4272.5,-0.004469481890187419
4273.4,-0.004420535215857108
4274.3,-0.004465483384657919
4275.2,-0.004621337793747567
4276.1,-0.004812161543543666
4277.0,-0.0050883914379529094
4277.9,-0.005357509224949243
4278.8,-0.005564141066375495
4279.7,-0.005706932013298583
4280.6,-0.005816275466316178
4281.5,-0.005849924582019103
4282.4,-0.00587712753150911
