wave,flux
3700.85,-5.519438280709431e-07
3701.75,-5.410460227177773e-07
3702.65,-5.183865762022754e-07
3703.55,-4.891868476862342e-07
3704.45,-4.5050672669682294e-07
3705.35,-4.158482764263352e-07
3706.25,-3.9043291282948413e-07
3707.15,-3.7643566613109635e-07
3708.05,-3.7448577560130365e-07
3708.96,-3.8414506095945225e-07
3709.86,-4.04157079058162e-07
3710.76,-4.3558036802293924e-07
3711.66,-4.711017879539589e-07
3712.56,-5.079363892254262e-07
3713.46,-5.435114081999389e-07
3714.36,-5.587750451790361e-07
3715.26,-5.651796730712364e-07
3716.16,-5.502086408278322e-07
3717.06,-5.238840103050966e-07
3717.96,-4.846553667784528e-07
3718.86,-4.365527014335274e-07
3719.76,-3.868262443231101e-07
3720.66,-3.508377272917289e-07
3721.56,-3.2999751122980553e-07
3722.46,-3.3075851442953045e-07
3723.36,-3.5205711989274914e-07
3724.26,-3.8345383302468793e-07
3725.16,-4.157151537106675e-07
3726.06,-4.390294926761305e-07
3726.96,-4.513332659464735e-07
3727.86,-4.5672117761865556e-07
3728.76,-4.5594736633956246e-07
3729.66,-4.489070178290008e-07
3730.56,-4.389203219013374e-07
3731.46,-4.1959875016102773e-07
3732.36,-3.9065128800624976e-07
3733.26,-3.5490516022683364e-07
3734.16,-3.1786660393816584e-07
3735.06,-2.883316617937616e-07
3735.96,-2.74689787855766e-07
3736.86,-2.761314721378157e-07
3737.76,-2.9396270138488703e-07
3738.66,-3.2816172884170354e-07
3739.56,-3.666975311528115e-07
3740.46,-3.997508870072291e-07
3741.36,-4.212310220102611e-07
3742.26,-4.2726760602169853e-07
3743.16,-4.1392776484482393e-07
3744.06,-3.9042940709183346e-07
3744.96,-3.6158460909835014e-07
3745.86,-3.3436586304861453e-07
3746.76,-3.1096377221902557e-07
3747.67,-2.965053260905697e-07
3748.57,-2.882768408359128e-07
3749.47,-2.92028425709214e-07
3750.37,-3.102898160422869e-07
3751.27,-3.435435152392455e-07
3752.17,-3.850050808187082e-07
3753.07,-4.3157360838691184e-07
3753.97,-4.6950781720534106e-07
3754.87,-4.955493818059026e-07
3755.77,-5.033885271731977e-07
3756.67,-4.941758638406986e-07
3757.57,-4.692399166253008e-07
3758.47,-4.4403598387662286e-07
3759.37,-4.2080170786567223e-07
3760.27,-4.1263557649239234e-07
3761.17,-4.1507644605383197e-07
3762.07,-4.2132828795207997e-07
3762.97,-4.2951270832510217e-07
3763.87,-4.346720904961804e-07
3764.77,-4.353649277209719e-07
3765.67,-4.3797726422087844e-07
3766.57,-4.418963793086076e-07
3767.47,-4.4880534239514214e-07
3768.37,-4.595400865299018e-07
3769.27,-4.732987698822616e-07
3770.17,-4.904413016877822e-07
3771.07,-5.112449964703333e-07
3771.97,-5.303058707765192e-07
3772.87,-5.453930567806657e-07
3773.77,-5.612718056364974e-07
3774.67,-5.73820530340745e-07
3775.57,-5.74548279953209e-07
3776.47,-5.79939075337538e-07
3777.37,-5.849171788706668e-07
3778.27,-5.933664287820518e-07
3779.17,-5.981955114100515e-07
3780.07,-6.125170564627245e-07
3780.97,-6.233748263503252e-07
3781.87,-6.314206628670255e-07
3782.77,-6.34967404414135e-07
3783.67,-6.351068290599234e-07
3784.57,-6.197114708119828e-07
3785.47,-5.989297649246763e-07
3786.38,-5.679770406593841e-07
3787.28,-5.354377556329279e-07
3788.18,-5.096033626959211e-07
3789.08,-4.898772104714183e-07
3789.98,-4.821964106585038e-07
3790.88,-4.794015236946579e-07
3791.78,-4.804015096262012e-07
3792.68,-4.785075028194971e-07
3793.58,-4.754180245246652e-07
3794.48,-4.669763150903073e-07
3795.38,-4.5500621425181863e-07
3796.28,-4.4060732979304325e-07
3797.18,-4.2922857744957154e-07
3798.08,-4.233067457149112e-07
3798.98,-4.2645962437495796e-07
3799.88,-4.385907014524105e-07
3800.78,-4.620296407750512e-07
3801.68,-4.932024862254031e-07
3802.58,-5.277352645400356e-07
3803.48,-5.58320436796292e-07
3804.38,-5.778150308615857e-07
3805.28,-5.857382512394306e-07
3806.18,-5.838909268741902e-07
3807.08,-5.786336571922647e-07
3807.98,-5.775587139200879e-07
3808.88,-5.733041571872841e-07
3809.78,-5.788348269910429e-07
3810.68,-5.799100835845245e-07
3811.58,-5.741263978045477e-07
3812.48,-5.568177306427496e-07
3813.38,-5.320366269876915e-07
3814.28,-4.969887534727799e-07
3815.18,-4.701644736002451e-07
3816.08,-4.495255656518239e-07
3816.98,-4.340005426173774e-07
3817.88,-4.2452540346303353e-07
3818.78,-4.1750331045932634e-07
3819.68,-4.081630700560451e-07
3820.58,-3.962166522016581e-07
3821.48,-3.868048332638532e-07
3822.38,-3.8143428063684835e-07
3823.28,-3.731663035183194e-07
3824.18,-3.6476837156052974e-07
3825.09,-3.5251052518310663e-07
3825.99,-3.381283657523367e-07
3826.89,-3.2745120195956117e-07
3827.79,-3.20622081425438e-07
3828.69,-3.2084751325300503e-07
3829.59,-3.2544511737773806e-07
3830.49,-3.27480378868284e-07
3831.39,-3.260116727326479e-07
3832.29,-3.2184928501265826e-07
3833.19,-3.1640393513435825e-07
3834.09,-3.1354608947924685e-07
3834.99,-3.1407786438516324e-07
3835.89,-3.160590197484908e-07
3836.79,-3.1957401294619456e-07
3837.69,-3.2168868865079365e-07
3838.59,-3.213771122172761e-07
3839.49,-3.251301332323762e-07
3840.39,-3.3593188404831865e-07
3841.29,-3.560579811671553e-07
3842.19,-3.880801563061468e-07
3843.09,-4.225915246074112e-07
3843.99,-4.5738111863749935e-07
3844.89,-4.85871959797793e-07
3845.79,-5.061956182561984e-07
3846.69,-5.186463457902864e-07
3847.59,-5.228228465947668e-07
3848.49,-5.204594847166838e-07
3849.39,-5.152818273120601e-07
3850.29,-5.083073762255557e-07
3851.19,-5.033085255302435e-07
3852.09,-5.04271218314697e-07
3852.99,-5.015422333475284e-07
3853.89,-4.963224781978804e-07
3854.79,-4.87584594162359e-07
3855.69,-4.7512752893631967e-07
3856.59,-4.53701091311605e-07
3857.49,-4.3581753308913115e-07
3858.39,-4.178282303067058e-07
3859.29,-4.0666244048566595e-07
3860.19,-4.003504938231362e-07
3861.09,-4.108179851221624e-07
3861.99,-4.3149253694851935e-07
3862.9,-4.6080788298307353e-07
3863.8,-4.879647071117456e-07
3864.7,-5.064820056646944e-07
3865.6,-5.181326431740263e-07
3866.5,-5.181863303981487e-07
3867.4,-5.144006285722476e-07
3868.3,-5.040032271841609e-07
3869.2,-4.905449264532098e-07
3870.1,-4.779410526731265e-07
3871.0,-4.632207885015154e-07
3871.9,-4.533498851041649e-07
3872.8,-4.5325012475227054e-07
3873.7,-4.62520860462889e-07
3874.6,-4.7683712992559667e-07
3875.5,-4.911139200150713e-07
3876.4,-4.981431028074617e-07
3877.3,-5.020994325350697e-07
3878.2,-4.917324328314648e-07
3879.1,-4.812716022562911e-07
3880.0,-4.743805252608662e-07
3880.9,-4.735199376415815e-07
3881.8,-4.762436833800013e-07
3882.7,-4.831707006727229e-07
3883.6,-4.851477277860241e-07
3884.5,-4.882265435960435e-07
3885.4,-4.834073423748875e-07
3886.3,-4.7681073654766224e-07
3887.2,-4.6770696832168714e-07
3888.1,-4.663604341509862e-07
3889.0,-4.749993215274068e-07
3889.9,-4.965207095464718e-07
3890.8,-5.247140266690315e-07
3891.7,-5.584152530215734e-07
3892.6,-5.864504877533494e-07
3893.5,-6.056491366838584e-07
3894.4,-6.155887239460953e-07
3895.3,-6.22252316039936e-07
3896.2,-6.233603128772644e-07
3897.1,-6.235855674485732e-07
3898.0,-6.260951173058125e-07
3898.9,-6.233311305469122e-07
3899.8,-6.23326915118096e-07
3900.7,-6.248874885032887e-07
3901.6,-6.19276492877088e-07
3902.51,-6.159653752777618e-07
3903.41,-6.088613343823436e-07
3904.31,-6.010159421531744e-07
3905.21,-5.958020179807363e-07
3906.11,-5.952132229142964e-07
3907.01,-6.078299786760268e-07
3907.91,-6.267087771880954e-07
3908.81,-6.517224038612413e-07
3909.71,-6.790543174404014e-07
3910.61,-7.062525631660232e-07
3911.51,-7.269001157084555e-07
3912.41,-7.407568372124276e-07
3913.31,-7.442854026674222e-07
3914.21,-7.432917968762488e-07
3915.11,-7.37473080702438e-07
3916.01,-7.243248668945277e-07
3916.91,-7.108319536759975e-07
3917.81,-6.876806242225357e-07
3918.71,-6.644475884909236e-07
3919.61,-6.37455210076365e-07
3920.51,-6.119515321404563e-07
3921.41,-5.878627240462142e-07
3922.31,-5.718752173317951e-07
3923.21,-5.596173366401371e-07
3924.11,-5.538163522282284e-07
3925.01,-5.423795493155581e-07
3925.91,-5.266622232782677e-07
3926.81,-4.97675610596318e-07
3927.71,-4.616121053149979e-07
3928.61,-4.154577432350656e-07
3929.51,-3.6772468641434413e-07
3930.41,-3.2191038074063656e-07
3931.31,-2.800581697965043e-07
3932.21,-2.458744104296368e-07
3933.11,-2.2006087003276692e-07
3934.01,-2.0597753523424765e-07
3934.91,-2.0793543776295504e-07
3935.81,-2.2135003266765942e-07
3936.71,-2.4884658501669e-07
3937.61,-2.8537080420793253e-07
3938.51,-3.2809119209661226e-07
3939.42,-3.7393137613044363e-07
3940.32,-4.1569895425283866e-07
3941.22,-4.504123174855242e-07
3942.12,-4.782111920295654e-07
3943.02,-4.981797052924345e-07
3943.92,-5.154720530314044e-07
3944.82,-5.391843349421936e-07
3945.72,-5.655775801285023e-07
3946.62,-5.979492514186026e-07
3947.52,-6.296194348127543e-07
3948.42,-6.610369716020189e-07
3949.32,-6.886511972087214e-07
3950.22,-7.071318135255724e-07
3951.12,-7.266406307436135e-07
3952.02,-7.427760484117487e-07
3952.92,-7.492582079410792e-07
3953.82,-7.541500169928666e-07
3954.72,-7.580823274576833e-07
3955.62,-7.533011544777584e-07
3956.52,-7.472882907779493e-07
3957.42,-7.356519462336603e-07
3958.32,-7.19783358020351e-07
3959.22,-6.955681085945097e-07
3960.12,-6.664001306789077e-07
3961.02,-6.237305342407948e-07
3961.92,-5.779951356143986e-07
3962.82,-5.284229496028933e-07
3963.72,-4.812826691545261e-07
3964.62,-4.3361687952453934e-07
3965.52,-3.9035901849525344e-07
3966.42,-3.484189990024774e-07
3967.32,-3.0912847970855895e-07
3968.22,-2.7993810177059203e-07
3969.12,-2.6113181836659066e-07
3970.02,-2.618548838130063e-07
3970.92,-2.8081847213556795e-07
3971.82,-3.1395814406174667e-07
3972.72,-3.6289506271008623e-07
3973.62,-4.188313076553664e-07
3974.52,-4.7645568934239507e-07
3975.42,-5.350929768930048e-07
3976.32,-5.972305072218171e-07
3977.22,-6.521768285347236e-07
3978.13,-7.045670396863114e-07
3979.03,-7.533770700186945e-07
3979.93,-7.892385631244305e-07
3980.83,-8.175946059140017e-07
3981.73,-8.415447932154593e-07
3982.63,-8.539997432965674e-07
3983.53,-8.608373478549388e-07
3984.43,-8.67728655378214e-07
3985.33,-8.795645495636036e-07
3986.23,-8.907656639425181e-07
3987.13,-9.067096012582036e-07
3988.03,-9.248947545292902e-07
3988.93,-9.344336560140491e-07
3989.83,-9.470423111755897e-07
3990.73,-9.57790257203143e-07
3991.63,-9.646508498456967e-07
3992.53,-9.717017726604875e-07
3993.43,-9.771701897411129e-07
3994.33,-9.725022459482252e-07
3995.23,-9.67930078557495e-07
3996.13,-9.648534622018122e-07
3997.03,-9.520280523951255e-07
3997.93,-9.506584921655662e-07
3998.83,-9.604074964351446e-07
3999.73,-9.74641651902426e-07
4000.63,-9.957309480080179e-07
4001.53,-1.0135680458096681e-06
4002.43,-1.0222550233547532e-06
4003.33,-1.0255190838789412e-06
4004.23,-1.0077467242257533e-06
4005.13,-9.91692979427056e-07
4006.03,-9.716751625605036e-07
4006.93,-9.671336332992463e-07
4007.83,-9.681533071613257e-07
4008.73,-9.889817904354683e-07
4009.63,-1.0070101096124095e-06
4010.53,-1.033028473736366e-06
4011.43,-1.0504567562243138e-06
4012.33,-1.0678419879839147e-06
4013.23,-1.0796252282416342e-06
4014.13,-1.08642325046052e-06
4015.03,-1.0922674870341056e-06
4015.93,-1.0945774983827884e-06
4016.84,-1.095934902100214e-06
4017.74,-1.0938392382117396e-06
4018.64,-1.1015404244110702e-06
4019.54,-1.1024632513829172e-06
4020.44,-1.1044661557526522e-06
4021.34,-1.1051759110650369e-06
4022.24,-1.1038320917654408e-06
4023.14,-1.1030260657549667e-06
4024.04,-1.1023260855435932e-06
4024.94,-1.1089963829307627e-06
4025.84,-1.1130739770362277e-06
4026.74,-1.118679131729164e-06
4027.64,-1.1290777939401724e-06
4028.54,-1.1214304129579603e-06
4029.44,-1.1027663890919969e-06
4030.34,-1.080621292560667e-06
4031.24,-1.037633632803077e-06
4032.14,-9.979835441389367e-07
4033.04,-9.700883973753624e-07
4033.94,-9.667527830026954e-07
4034.84,-9.803452224980207e-07
4035.74,-1.0084683602430307e-06
4036.64,-1.055761490048995e-06
4037.54,-1.0954423187041738e-06
4038.44,-1.142080031005602e-06
4039.34,-1.1587813223313672e-06
4040.24,-1.164276938770474e-06
4041.14,-1.1587557665873713e-06
4042.04,-1.1339092004087616e-06
4042.94,-1.1029281563952174e-06
4043.84,-1.0567393143648845e-06
4044.74,-1.0068214573957142e-06
4045.64,-9.682084584690143e-07
4046.54,-9.518658127120276e-07
4047.44,-9.557587647070226e-07
4048.34,-9.90998568276302e-07
4049.24,-1.0382470383790166e-06
4050.14,-1.0852499244156218e-06
4051.04,-1.1250210091243937e-06
4051.94,-1.1463770682062118e-06
4052.84,-1.1534851934708923e-06
4053.74,-1.1465284915940103e-06
4054.65,-1.1286102468189504e-06
4055.55,-1.1093133120251873e-06
4056.45,-1.0927466468630507e-06
4057.35,-1.079007740238914e-06
4058.25,-1.0698333580101413e-06
4059.15,-1.0687308764026022e-06
4060.05,-1.0703697555259008e-06
4060.95,-1.0647837891921186e-06
4061.85,-1.0520877168903006e-06
4062.75,-1.0335922723305293e-06
4063.65,-1.0061200540395697e-06
4064.55,-9.947427584994831e-07
4065.45,-9.906498914760367e-07
4066.35,-1.0078099698424028e-06
4067.25,-1.0292513076233564e-06
4068.15,-1.0607140894145807e-06
4069.05,-1.082437655272398e-06
4069.95,-1.1003036703610629e-06
4070.85,-1.0989449582498267e-06
4071.75,-1.1003040846266789e-06
4072.65,-1.0926161932891492e-06
4073.55,-1.0849585940552464e-06
4074.45,-1.0867170626453059e-06
4075.35,-1.079266395277526e-06
4076.25,-1.0682773997393186e-06
4077.15,-1.0635188303031029e-06
4078.05,-1.0591057886413371e-06
4078.95,-1.0648136739312535e-06
4079.85,-1.0898004256660551e-06
4080.75,-1.1239141515397005e-06
4081.65,-1.1608530351543345e-06
4082.55,-1.1863683590930778e-06
4083.45,-1.2009808050342898e-06
4084.35,-1.2091590001456671e-06
4085.25,-1.2168899258137601e-06
4086.15,-1.2312237080688883e-06
4087.05,-1.2533362157696242e-06
4087.95,-1.285102659041249e-06
4088.85,-1.3105526139398118e-06
4089.75,-1.3228218185384163e-06
4090.65,-1.3396431658903528e-06
4091.55,-1.331035113598409e-06
4092.45,-1.3165913178534085e-06
4093.36,-1.3009680502600432e-06
4094.26,-1.2812194923733913e-06
4095.16,-1.2567643379744353e-06
4096.06,-1.2264210583648022e-06
4096.96,-1.1946160138951217e-06
4097.86,-1.1594608195384884e-06
4098.76,-1.1302357406508085e-06
4099.66,-1.0960058331880174e-06
4100.56,-1.0633765490128326e-06
4101.46,-1.0473667808357095e-06
4102.36,-1.0318666650557847e-06
4103.26,-1.0387828623640234e-06
4104.16,-1.0623828560590588e-06
4105.06,-1.1002967839110876e-06
4105.96,-1.1382704861013617e-06
4106.86,-1.178773517262156e-06
4107.76,-1.2084722986027826e-06
4108.66,-1.224778754801933e-06
4109.56,-1.2309249216324789e-06
4110.46,-1.2348283955898682e-06
4111.36,-1.236957622872066e-06
4112.26,-1.2415855617608979e-06
4113.16,-1.2518120271339304e-06
4114.06,-1.2697961776283942e-06
4114.96,-1.2834043065156102e-06
4115.86,-1.2896415793431966e-06
4116.76,-1.3005466080679206e-06
4117.66,-1.2985636206698403e-06
4118.56,-1.2810236908677322e-06
4119.46,-1.2689576132730867e-06
4120.36,-1.2609428056719307e-06
4121.26,-1.2611900974476233e-06
4122.16,-1.2621574996760192e-06
4123.06,-1.267333058531286e-06
4123.96,-1.274683403823307e-06
4124.86,-1.2848169583598845e-06
4125.76,-1.2899058313965165e-06
4126.66,-1.285953468613511e-06
4127.56,-1.2792145818014222e-06
4128.46,-1.2716155481372684e-06
4129.36,-1.2448806525283686e-06
4130.26,-1.2219697374027925e-06
4131.17,-1.2018639495177509e-06
4132.06,-1.18393827350768e-06
4132.97,-1.1699993144307193e-06
4133.87,-1.1629511752116828e-06
4134.77,-1.1764097610991204e-06
4135.67,-1.2032461054513333e-06
4136.57,-1.2342428259801958e-06
4137.47,-1.2685085693289743e-06
4138.37,-1.2953861013082834e-06
4139.27,-1.3144871406964087e-06
4140.17,-1.3059574502088124e-06
4141.07,-1.2860145569663576e-06
4141.97,-1.256342701188408e-06
4142.87,-1.2207320513401343e-06
4143.77,-1.1908769380765744e-06
4144.67,-1.1665972440438066e-06
4145.57,-1.1703304864597251e-06
4146.47,-1.1816003432951672e-06
4147.37,-1.2114573045834633e-06
4148.27,-1.23009695361774e-06
4149.17,-1.253196568431262e-06
4150.07,-1.253166914243214e-06
4150.97,-1.2528886062453957e-06
4151.87,-1.2512452920970297e-06
4152.77,-1.2424013196171128e-06
4153.67,-1.2319123727390259e-06
4154.57,-1.230353197346129e-06
4155.47,-1.221858901352821e-06
4156.37,-1.2358549944069433e-06
4157.27,-1.2522710352751067e-06
4158.17,-1.268206188096903e-06
4159.07,-1.289292888112022e-06
4159.97,-1.3169214661956654e-06
4160.87,-1.3387199144983809e-06
4161.77,-1.3628145863267547e-06
4162.67,-1.3732859367670172e-06
4163.57,-1.3903037738999849e-06
4164.47,-1.3852399228281815e-06
4165.37,-1.372367710906436e-06
4166.27,-1.3529233793338561e-06
4167.17,-1.3396149196146527e-06
4168.07,-1.3280455595217192e-06
4168.98,-1.3164669687580278e-06
4169.88,-1.3038396614007665e-06
4170.78,-1.2871389274803035e-06
4171.68,-1.2612374078511408e-06
4172.58,-1.2417107493462627e-06
4173.48,-1.2216759143423154e-06
4174.38,-1.20373478458106e-06
4175.28,-1.2033378490782635e-06
4176.18,-1.210509869797346e-06
4177.08,-1.2234898141758831e-06
4177.98,-1.2385592780293842e-06
4178.88,-1.2571279984863876e-06
4179.78,-1.269562393042854e-06
4180.68,-1.2852035874585478e-06
4181.58,-1.2877306948456228e-06
4182.48,-1.2948734916138e-06
4183.38,-1.3048502220894484e-06
4184.28,-1.314075250636154e-06
4185.18,-1.3109833990092615e-06
4186.08,-1.3130286507934292e-06
4186.98,-1.3033627278221627e-06
4187.88,-1.294192447305674e-06
4188.78,-1.2998357852849928e-06
4189.68,-1.3047145150202284e-06
4190.58,-1.3173554755796236e-06
4191.48,-1.3329952018087143e-06
4192.38,-1.3451684151904826e-06
4193.28,-1.3556794462154358e-06
4194.18,-1.3649126113063627e-06
4195.08,-1.3483208972108296e-06
4195.98,-1.3297460771795832e-06
4196.88,-1.293321797182981e-06
4197.78,-1.2712950334967377e-06
4198.68,-1.236930942706927e-06
4199.58,-1.2282711380026648e-06
4200.48,-1.214825915955704e-06
4201.38,-1.2150296686581559e-06
4202.28,-1.2273649512413209e-06
4203.18,-1.2451599627247805e-06
4204.08,-1.276298435730917e-06
4204.98,-1.307234223255215e-06
4205.88,-1.3510395431322882e-06
4206.79,-1.3819639513438613e-06
4207.69,-1.4088520968410928e-06
4208.59,-1.4309161391062494e-06
4209.49,-1.4418106309842433e-06
4210.39,-1.446916014832593e-06
4211.29,-1.4512373362612841e-06
4212.19,-1.4456444062372672e-06
4213.09,-1.4339482462556977e-06
4213.99,-1.4185168115636716e-06
4214.89,-1.403717495541289e-06
4215.79,-1.389817801192793e-06
4216.69,-1.3857271295948867e-06
4217.59,-1.4026518776960918e-06
4218.49,-1.4218730494798233e-06
4219.39,-1.4543301596485386e-06
4220.29,-1.4688329952454796e-06
4221.19,-1.4762829633150633e-06
4222.09,-1.4493806223996643e-06
4222.99,-1.4024807908714952e-06
4223.89,-1.3389144652604087e-06
4224.79,-1.2512967896982494e-06
4225.69,-1.1662985802926845e-06
4226.59,-1.110574434097677e-06
4227.49,-1.0822334187824487e-06
4228.39,-1.100528896609594e-06
4229.29,-1.1556116400874596e-06
4230.19,-1.222808094491576e-06
4231.09,-1.290608213481625e-06
4231.99,-1.3477675823514206e-06
4232.89,-1.3822399282196584e-06
4233.79,-1.4031000926024031e-06
4234.69,-1.3993269188564832e-06
4235.59,-1.3907957387341303e-06
4236.49,-1.3728741772337445e-06
4237.39,-1.3674253327710666e-06
4238.29,-1.3781607689483933e-06
4239.19,-1.3949106175546694e-06
4240.09,-1.4142833758683914e-06
4240.99,-1.4433849141847183e-06
4241.89,-1.4734991066099354e-06
4242.79,-1.500662488698844e-06
4243.69,-1.5248662773997478e-06
4244.59,-1.5537759900204124e-06
4245.5,-1.5550488507239056e-06
4246.4,-1.5442224552211046e-06
4247.3,-1.523202358340095e-06
4248.2,-1.4821900017107752e-06
4249.1,-1.4444008942142635e-06
4250.0,-1.408052546856012e-06
4250.9,-1.3851545339132339e-06
4251.8,-1.372542185718043e-06
4252.7,-1.3698035519786113e-06
4253.6,-1.3809814845753981e-06
4254.5,-1.3881351617334232e-06
4255.4,-1.3990738093530904e-06
4256.3,-1.4104494175995918e-06
4257.2,-1.421429573227426e-06
4258.1,-1.4260324491713762e-06
4259.0,-1.422986124057952e-06
4259.9,-1.4122679132744984e-06
4260.8,-1.406549314550141e-06
4261.7,-1.416038534831413e-06
4262.6,-1.4455329806587699e-06
4263.5,-1.486417481833477e-06
4264.4,-1.5286421926623493e-06
4265.3,-1.5716502437306933e-06
4266.2,-1.5945351473639972e-06
4267.1,-1.5955514640493961e-06
4268.0,-1.5656354818289742e-06
4268.9,-1.5173622859996837e-06
4269.8,-1.4558900955899249e-06
4270.7,-1.3830413044793932e-06
4271.6,-1.3233586809353134e-06
4272.5,-1.2729815837106091e-06
4273.4,-1.2510750231643309e-06
4274.3,-1.256661921248177e-06
