wave,flux
3700.85,-6.631963595363398e-07
3701.75,-6.55830899864074e-07
3702.65,-6.369852549215176e-07
3703.55,-6.126920828658145e-07
3704.45,-5.852343061864001e-07
3705.35,-5.640182950319325e-07
3706.25,-5.490607539942387e-07
3707.15,-5.462894242071406e-07
3708.05,-5.501686162777786e-07
3708.96,-5.575431359495031e-07
3709.86,-5.693265573563586e-07
3710.76,-5.812614706637174e-07
3711.66,-5.98892753680586e-07
3712.56,-6.191768614932509e-07
3713.46,-6.419459097759433e-07
3714.36,-6.63135501422761e-07
3715.26,-6.829604379874129e-07
3716.16,-6.886998735749715e-07
3717.06,-6.846613458471255e-07
3717.96,-6.657666816987655e-07
3718.86,-6.36900745329207e-07
3719.76,-5.979488712011857e-07
3720.66,-5.598961578942889e-07
3721.56,-5.358831500799982e-07
3722.46,-5.276243301636277e-07
3723.36,-5.413010372258921e-07
3724.26,-5.666721293571579e-07
3725.16,-5.98238272298791e-07
3726.06,-6.279562149577183e-07
3726.96,-6.458036745727561e-07
3727.86,-6.566287935226991e-07
3728.76,-6.616560068228263e-07
3729.66,-6.588698035386251e-07
3730.56,-6.49895083387621e-07
3731.46,-6.290163465099177e-07
3732.36,-6.004351041463711e-07
3733.26,-5.631048682627327e-07
3734.16,-5.2490388932588e-07
3735.06,-4.973132329213553e-07
3735.96,-4.852809101015421e-07
3736.86,-4.936830882604607e-07
3737.76,-5.198865473300823e-07
3738.66,-5.574369449431438e-07
3739.56,-5.967598392750058e-07
3740.46,-6.337270200680435e-07
3741.36,-6.544834334051652e-07
3742.26,-6.678060905335741e-07
3743.16,-6.621437468516652e-07
3744.06,-6.446136880733826e-07
3744.96,-6.234869219904273e-07
3745.86,-5.959535652995965e-07
3746.76,-5.704498653632767e-07
3747.67,-5.406070133442946e-07
3748.57,-5.205771551803257e-07
3749.47,-5.031853383807741e-07
3750.37,-5.072213220484921e-07
3751.27,-5.300637236407443e-07
3752.17,-5.675818040974869e-07
3753.07,-6.107168772345076e-07
3753.97,-6.608499734446222e-07
3754.87,-6.970819553089946e-07
3755.77,-7.179612062688265e-07
3756.67,-7.208439157351782e-07
3757.57,-7.061841395522957e-07
3758.47,-6.920006392973234e-07
3759.37,-6.761431559212065e-07
3760.27,-6.695121999642837e-07
3761.17,-6.705734572153913e-07
3762.07,-6.840756095520205e-07
3762.97,-6.992096670659427e-07
3763.87,-7.053115896484645e-07
3764.77,-7.096290488809776e-07
3765.67,-7.100381056477489e-07
3766.57,-7.06205422157429e-07
3767.47,-6.933198692692807e-07
3768.37,-6.809187481169235e-07
3769.27,-6.670615734413579e-07
3770.17,-6.610458089454053e-07
3771.07,-6.606694736265903e-07
3771.97,-6.724844710486506e-07
3772.87,-6.891460664577359e-07
3773.77,-7.144292264863092e-07
3774.67,-7.365036706408004e-07
3775.57,-7.568029856397225e-07
3776.47,-7.776041862120349e-07
3777.37,-7.939212415626149e-07
3778.27,-8.123666670271775e-07
3779.17,-8.302845843743504e-07
3780.07,-8.463648850983447e-07
3780.97,-8.634561009772279e-07
3781.87,-8.73039375313725e-07
3782.77,-8.753286253140419e-07
3783.67,-8.771054873400425e-07
3784.57,-8.70668932878739e-07
3785.47,-8.542579758374446e-07
3786.38,-8.329806251928931e-07
3787.28,-8.127854493923083e-07
3788.18,-7.964169812853336e-07
3789.08,-7.83272546531929e-07
3789.98,-7.750131164688184e-07
3790.88,-7.69478593259621e-07
3791.78,-7.66629110465721e-07
3792.68,-7.56295269486846e-07
3793.58,-7.426258480870057e-07
3794.48,-7.223872728920162e-07
3795.38,-6.967957197734949e-07
3796.28,-6.700646473682478e-07
3797.18,-6.456145007278911e-07
3798.08,-6.264974114641371e-07
3798.98,-6.287332812262034e-07
3799.88,-6.428923480545263e-07
3800.78,-6.78694542915366e-07
3801.68,-7.254994932728859e-07
3802.58,-7.718153416232272e-07
3803.48,-8.138125347396744e-07
3804.38,-8.409901811574749e-07
3805.28,-8.585331019949822e-07
3806.18,-8.678544345550283e-07
3807.08,-8.717172171195034e-07
3807.98,-8.741443791828027e-07
3808.88,-8.792697357305294e-07
3809.78,-8.86956175922042e-07
3810.68,-8.906553658776354e-07
3811.58,-8.85001238975816e-07
3812.48,-8.707891502998937e-07
3813.38,-8.538439801262357e-07
3814.28,-8.316910807328765e-07
3815.18,-8.13080400721713e-07
3816.08,-7.989909617085131e-07
3816.98,-7.937039508557568e-07
3817.88,-7.975833373920864e-07
3818.78,-7.953945993609409e-07
3819.68,-7.8931000997084e-07
3820.58,-7.846743891666209e-07
3821.48,-7.760826240078886e-07
3822.38,-7.703036208282495e-07
3823.28,-7.623166872153707e-07
3824.18,-7.52799885969011e-07
3825.09,-7.364743732935213e-07
3825.99,-7.182506650133002e-07
3826.89,-7.05922013678161e-07
3827.79,-6.956792323603673e-07
3828.69,-6.8541727392803e-07
3829.59,-6.77150557758711e-07
3830.49,-6.672454123987643e-07
3831.39,-6.483631586267661e-07
3832.29,-6.234352613287838e-07
3833.19,-5.958970735145078e-07
3834.09,-5.691965416583715e-07
3834.99,-5.566748739975129e-07
3835.89,-5.448716421008691e-07
3836.79,-5.469046565027533e-07
3837.69,-5.601368374431605e-07
3838.59,-5.771612989833448e-07
3839.49,-6.023062197199553e-07
3840.39,-6.322656448581503e-07
3841.29,-6.704337649848282e-07
3842.19,-7.121052942013134e-07
3843.09,-7.598800077632965e-07
3843.99,-7.989669224243603e-07
3844.89,-8.315377887303675e-07
3845.79,-8.609211858241403e-07
3846.69,-8.768093429634213e-07
3847.59,-8.847696160308628e-07
3848.49,-8.936955670044569e-07
3849.39,-8.986267128417753e-07
3850.29,-9.018602504501645e-07
3851.19,-9.031905953159779e-07
3852.09,-9.059806423436202e-07
3852.99,-9.076179280817531e-07
3853.89,-9.10365614983046e-07
3854.79,-9.092866299156383e-07
3855.69,-9.002330375072646e-07
3856.59,-8.813142645341041e-07
3857.49,-8.619557153012753e-07
3858.39,-8.442812104571322e-07
3859.29,-8.363981059690907e-07
3860.19,-8.314905451172906e-07
3861.09,-8.40271827592721e-07
3861.99,-8.605453703507507e-07
3862.9,-8.833044772833339e-07
3863.8,-9.078258856539577e-07
3864.7,-9.266376266617772e-07
3865.6,-9.382967284894587e-07
3866.5,-9.452831883427486e-07
3867.4,-9.463585431117659e-07
3868.3,-9.457486053347951e-07
3869.2,-9.379748475310119e-07
3870.1,-9.260385367533617e-07
3871.0,-9.053667431231291e-07
3871.9,-8.837841075776112e-07
3872.8,-8.703765018085708e-07
3873.7,-8.586395633889705e-07
3874.6,-8.573229898170576e-07
3875.5,-8.64087174035885e-07
3876.4,-8.630297342098284e-07
3877.3,-8.63259365853699e-07
3878.2,-8.600811518337356e-07
3879.1,-8.583435118020644e-07
3880.0,-8.533950000579998e-07
3880.9,-8.56254789916973e-07
3881.8,-8.594820563297752e-07
3882.7,-8.548303601068605e-07
3883.6,-8.45704471714426e-07
3884.5,-8.263236724834206e-07
3885.4,-8.009767497379049e-07
3886.3,-7.706363762377427e-07
3887.2,-7.349239592804665e-07
3888.1,-7.09576785865765e-07
3889.0,-6.881499644517064e-07
3889.9,-6.896233933393238e-07
3890.8,-7.073657827047209e-07
3891.7,-7.354541152865289e-07
3892.6,-7.691485859970642e-07
3893.5,-8.012790734958457e-07
3894.4,-8.267487907938664e-07
3895.3,-8.525804869601906e-07
3896.2,-8.654683125243354e-07
3897.1,-8.780636047755019e-07
3898.0,-8.845165224748449e-07
3898.9,-8.988922153078865e-07
3899.8,-9.024189366957328e-07
3900.7,-9.101788451653544e-07
3901.6,-9.105480060067484e-07
3902.51,-9.177558048007069e-07
3903.41,-9.119318036765918e-07
3904.31,-9.059902837811779e-07
3905.21,-9.053458042453152e-07
3906.11,-9.020958320719574e-07
3907.01,-9.108591836501677e-07
3907.91,-9.212885132349987e-07
3908.81,-9.439388264284029e-07
3909.71,-9.67857344717203e-07
3910.61,-9.879227065817042e-07
3911.51,-1.0083987935930917e-06
3912.41,-1.0148462126692944e-06
3913.31,-1.0131143838283197e-06
3914.21,-1.0114858059148166e-06
3915.11,-1.0022912694040602e-06
3916.01,-9.936694255061668e-07
3916.91,-9.796038135809912e-07
3917.81,-9.678239748548475e-07
3918.71,-9.512303649476969e-07
3919.61,-9.371915510732902e-07
3920.51,-9.20806765443638e-07
3921.41,-9.054704529460368e-07
3922.31,-9.00803664172286e-07
3923.21,-8.915303584869277e-07
3924.11,-8.847293418736476e-07
3925.01,-8.693536953902928e-07
3925.91,-8.446201100097121e-07
3926.81,-8.07028044386559e-07
3927.71,-7.551287437817357e-07
3928.61,-6.941034649309556e-07
3929.51,-6.210958989837405e-07
3930.41,-5.489322155086836e-07
3931.31,-4.7323529455835755e-07
3932.21,-4.072284568954162e-07
3933.11,-3.5398812121331675e-07
3934.01,-3.250141262245079e-07
3934.91,-3.1868305819250245e-07
3935.81,-3.432999284603792e-07
3936.71,-3.8967140114404353e-07
3937.61,-4.5809458415035825e-07
3938.51,-5.346958735427806e-07
3939.42,-6.12453222423744e-07
3940.32,-6.822298230048058e-07
3941.22,-7.427687842014926e-07
3942.12,-7.88914368497779e-07
3943.02,-8.216197429768594e-07
3943.92,-8.522859832054399e-07
3944.82,-8.765929091138155e-07
3945.72,-9.008341077343205e-07
3946.62,-9.263947522788005e-07
3947.52,-9.492293192361259e-07
3948.42,-9.64888452516299e-07
3949.32,-9.834660921418187e-07
3950.22,-9.951248632761676e-07
3951.12,-1.0058583408018105e-06
3952.02,-1.0128217069602618e-06
3952.92,-1.022028718397115e-06
3953.82,-1.0250547641841572e-06
3954.72,-1.0326125854138422e-06
3955.62,-1.0273738941063592e-06
3956.52,-1.0217886883451769e-06
3957.42,-1.0166406198606585e-06
3958.32,-1.0054237002777827e-06
3959.22,-9.928935316909207e-07
3960.12,-9.7084087559616e-07
3961.02,-9.4025147183944e-07
3961.92,-8.998624802701826e-07
3962.82,-8.473918379648479e-07
3963.72,-7.868673348689458e-07
3964.62,-7.178710536810209e-07
3965.52,-6.425834867978115e-07
3966.42,-5.677192930836772e-07
3967.32,-4.919151108188089e-07
3968.22,-4.329548132640227e-07
3969.12,-3.943753406396868e-07
3970.02,-3.87114961341454e-07
3970.92,-4.092160894018556e-07
3971.82,-4.606878676502427e-07
3972.72,-5.316417196453215e-07
3973.62,-6.139129848005274e-07
3974.52,-6.975658889493497e-07
3975.42,-7.769217473516246e-07
3976.32,-8.44422599745886e-07
3977.22,-9.081596059852935e-07
3978.13,-9.67444847299576e-07
3979.03,-1.0069969745990656e-06
3979.93,-1.0495495927902192e-06
3980.83,-1.0755832633336832e-06
3981.73,-1.0905125187199328e-06
3982.63,-1.099772441132066e-06
3983.53,-1.112044208432261e-06
3984.43,-1.1175354295317948e-06
3985.33,-1.1268449232295656e-06
3986.23,-1.135535873396687e-06
3987.13,-1.151180440207231e-06
3988.03,-1.1623398894399227e-06
3988.93,-1.1767055840977065e-06
3989.83,-1.185821428026427e-06
3990.73,-1.1940251437744632e-06
3991.63,-1.204625285297441e-06
3992.53,-1.2167564638968902e-06
3993.43,-1.2227405064528663e-06
3994.33,-1.2185402410291676e-06
3995.23,-1.2104826050958416e-06
3996.13,-1.2002492612718523e-06
3997.03,-1.1861982217830737e-06
3997.93,-1.186797478561557e-06
3998.83,-1.1866361065214728e-06
3999.73,-1.195671965876366e-06
4000.63,-1.2091224446152594e-06
4001.53,-1.2248282115574998e-06
4002.43,-1.2323371916632337e-06
4003.33,-1.234331309568664e-06
4004.23,-1.2341502574491893e-06
4005.13,-1.2229493615021908e-06
4006.03,-1.2167395200417004e-06
4006.93,-1.2083917334298272e-06
4007.83,-1.2169864229516898e-06
4008.73,-1.229322899939039e-06
4009.63,-1.2391362198716087e-06
4010.53,-1.2601675133270983e-06
4011.43,-1.271865940156812e-06
4012.33,-1.2792515105000114e-06
4013.23,-1.2862936615560672e-06
4014.13,-1.28668586278074e-06
4015.03,-1.2899359497765274e-06
4015.93,-1.296648086294782e-06
4016.84,-1.2949145973333784e-06
4017.74,-1.2956113982321332e-06
4018.64,-1.3031822418114998e-06
4019.54,-1.3113050471502442e-06
4020.44,-1.3121364652700813e-06
4021.34,-1.315426151531408e-06
4022.24,-1.3129012591595956e-06
4023.14,-1.317877655987842e-06
4024.04,-1.3115612320838807e-06
4024.94,-1.3140167859340476e-06
4025.84,-1.3205114031892143e-06
4026.74,-1.3309360797216288e-06
4027.64,-1.3376987608325134e-06
4028.54,-1.3309435095276446e-06
4029.44,-1.3159519535185939e-06
4030.34,-1.2970577030783836e-06
4031.24,-1.2760062640891456e-06
4032.14,-1.2549136315932268e-06
4033.04,-1.2400915584071743e-06
4033.94,-1.2457125300591472e-06
4034.84,-1.253410796984581e-06
4035.74,-1.2826082481516709e-06
4036.64,-1.3117388464036232e-06
4037.54,-1.3391558339644813e-06
4038.44,-1.364854225346854e-06
4039.34,-1.378808876497361e-06
4040.24,-1.3782339160377563e-06
4041.14,-1.3790648164290464e-06
4042.04,-1.3685605756763039e-06
4042.94,-1.3403099635598747e-06
4043.84,-1.3137231594074286e-06
4044.74,-1.2890508144564751e-06
4045.64,-1.2649452842990572e-06
4046.54,-1.2597557056628468e-06
4047.44,-1.262751736219704e-06
4048.34,-1.2851839644599542e-06
4049.24,-1.315314858509028e-06
4050.14,-1.3430304669177275e-06
4051.04,-1.3630034004726856e-06
4051.94,-1.3766355427387312e-06
4052.84,-1.375416817221839e-06
4053.74,-1.3754976561926938e-06
4054.65,-1.3641031895768396e-06
4055.55,-1.3587009351754029e-06
4056.45,-1.3549050963836826e-06
4057.35,-1.3502912908300088e-06
4058.25,-1.3512784670532106e-06
4059.15,-1.3571339698475426e-06
4060.05,-1.357503035155879e-06
4060.95,-1.3529325140883741e-06
4061.85,-1.3474134563856705e-06
4062.75,-1.3390011892425108e-06
4063.65,-1.3198494078775187e-06
4064.55,-1.3099488319227892e-06
4065.45,-1.3024783698809136e-06
4066.35,-1.3068149473710223e-06
4067.25,-1.3187753619847462e-06
4068.15,-1.3429811213814817e-06
4069.05,-1.3536100956330237e-06
4069.95,-1.3670993482525007e-06
4070.85,-1.3678494832370308e-06
4071.75,-1.3667025684580553e-06
4072.65,-1.3581450634903307e-06
4073.55,-1.3534990986521154e-06
4074.45,-1.3438319443903617e-06
4075.35,-1.3305894368695041e-06
4076.25,-1.3135705705009639e-06
4077.15,-1.3014799819354571e-06
4078.05,-1.283570305699588e-06
4078.95,-1.2845558875349173e-06
4079.85,-1.3043639606953659e-06
4080.75,-1.3289991534626635e-06
4081.65,-1.3534892578283365e-06
4082.55,-1.3800733466319313e-06
4083.45,-1.391208021712304e-06
4084.35,-1.4038377804985175e-06
4085.25,-1.4106512163023638e-06
4086.15,-1.4224229132512549e-06
4087.05,-1.4417391529602809e-06
4087.95,-1.457358898857667e-06
4088.85,-1.4704953837063918e-06
4089.75,-1.4908784945646433e-06
4090.65,-1.4937432784763218e-06
4091.55,-1.4975170442601199e-06
4092.45,-1.4834475346510542e-06
4093.36,-1.479593657891569e-06
4094.26,-1.4580252814437804e-06
4095.16,-1.4393975734652427e-06
4096.06,-1.4135260688296063e-06
4096.96,-1.3777252515034306e-06
4097.86,-1.3428296358553552e-06
4098.76,-1.2962099633516138e-06
4099.66,-1.2486514577026466e-06
4100.56,-1.200673406311531e-06
4101.46,-1.1578907669624428e-06
4102.36,-1.1300584206439112e-06
4103.26,-1.1322689897962057e-06
4104.16,-1.1485641747580436e-06
4105.06,-1.201995715139646e-06
4105.96,-1.2510680781622665e-06
4106.86,-1.304964327840797e-06
4107.76,-1.3466694623947465e-06
4108.66,-1.3713434318036096e-06
4109.56,-1.3881591895923426e-06
4110.46,-1.412326122284014e-06
4111.36,-1.42479013728026e-06
4112.26,-1.4401844338746955e-06
4113.16,-1.4544833781680656e-06
4114.06,-1.4735753883122547e-06
4114.96,-1.4817701462109697e-06
4115.86,-1.4931634923177139e-06
4116.76,-1.4973412024957582e-06
4117.66,-1.4991334941798926e-06
4118.56,-1.4911494753219983e-06
4119.46,-1.4855458711958487e-06
4120.36,-1.4786638346198801e-06
4121.26,-1.4767709924336756e-06
4122.16,-1.4744058726525096e-06
4123.06,-1.4833989937247221e-06
4123.96,-1.4909365021242924e-06
4124.86,-1.4948708331493252e-06
4125.76,-1.504577420895298e-06
4126.66,-1.508194983838463e-06
4127.56,-1.5065789108241013e-06
4128.46,-1.5042189055349176e-06
4129.36,-1.4929688343795404e-06
4130.26,-1.4831777934287497e-06
4131.17,-1.4735173547394064e-06
4132.06,-1.4622522774303793e-06
4132.97,-1.4498471617123587e-06
4133.87,-1.446531602904835e-06
4134.77,-1.4545824318830652e-06
4135.67,-1.473423126677626e-06
4136.57,-1.4969802297205233e-06
4137.47,-1.5162366813170427e-06
4138.37,-1.5396078021392088e-06
4139.27,-1.5524102027291038e-06
4140.17,-1.5600608458455257e-06
4141.07,-1.5528647104443267e-06
4141.97,-1.5268204922472162e-06
4142.87,-1.5093983218475588e-06
4143.77,-1.4915306007212645e-06
4144.67,-1.4808808600330052e-06
4145.57,-1.4831561309421566e-06
4146.47,-1.4961316831019095e-06
4147.37,-1.509955233954008e-06
4148.27,-1.5275835609582203e-06
4149.17,-1.540156213794822e-06
4150.07,-1.5463502957382878e-06
4150.97,-1.550212520652605e-06
4151.87,-1.5395963576375076e-06
4152.77,-1.5364147905515198e-06
4153.67,-1.5354373425434427e-06
4154.57,-1.5232498206379403e-06
4155.47,-1.5259944877190815e-06
4156.37,-1.5278422959545771e-06
4157.27,-1.5319822218482958e-06
4158.17,-1.5487693086126017e-06
4159.07,-1.559887641350903e-06
4159.97,-1.5789597553935873e-06
4160.87,-1.5883162757386061e-06
4161.77,-1.6082185690917091e-06
4162.67,-1.6144094056829854e-06
4163.57,-1.6213098402018416e-06
4164.47,-1.6292016845334865e-06
4165.37,-1.6230376914624753e-06
4166.27,-1.6219753866333386e-06
4167.17,-1.6171222401658376e-06
4168.07,-1.607694748158876e-06
4168.98,-1.5893396038294284e-06
4169.88,-1.5755722803042168e-06
4170.78,-1.5630440606018225e-06
4171.68,-1.5418905475875765e-06
4172.58,-1.5197062705255553e-06
4173.48,-1.4981126162093513e-06
4174.38,-1.489200314247799e-06
4175.28,-1.490671749435803e-06
4176.18,-1.4945533436065962e-06
4177.08,-1.5095735916571364e-06
4177.98,-1.5231319034410313e-06
4178.88,-1.5497172057326287e-06
4179.78,-1.5567259476749574e-06
4180.68,-1.5729303797246828e-06
4181.58,-1.5790472333759765e-06
4182.48,-1.5861735583966481e-06
4183.38,-1.5835312749576981e-06
4184.28,-1.5879579093624636e-06
4185.18,-1.5887435831990446e-06
4186.08,-1.5851613662338255e-06
4186.98,-1.5746177569153927e-06
4187.88,-1.580052737348387e-06
4188.78,-1.5742928495683524e-06
4189.68,-1.5823240413017527e-06
4190.58,-1.5800788425757565e-06
4191.48,-1.5950448207643762e-06
4192.38,-1.6159521620527998e-06
4193.28,-1.616111889136461e-06
4194.18,-1.6323105547778303e-06
4195.08,-1.6293744127672017e-06
4195.98,-1.6238249413601031e-06
4196.88,-1.6028276832712035e-06
4197.78,-1.5820050669136648e-06
4198.68,-1.5627372745307817e-06
4199.58,-1.548081689093665e-06
4200.48,-1.5428539734372364e-06
4201.38,-1.5363765821277385e-06
4202.28,-1.5427155530571968e-06
4203.18,-1.5442497283234844e-06
4204.08,-1.5670419469824425e-06
4204.98,-1.5692590260150697e-06
4205.88,-1.5954858677935383e-06
4206.79,-1.609912776619996e-06
4207.69,-1.6241294789342306e-06
4208.59,-1.644686525307391e-06
4209.49,-1.6579348940338036e-06
4210.39,-1.670105016377887e-06
4211.29,-1.6697809900121405e-06
4212.19,-1.6722557348579817e-06
4213.09,-1.6692746161760974e-06
4213.99,-1.6547655794712334e-06
4214.89,-1.6380085740444805e-06
4215.79,-1.628320625935457e-06
4216.69,-1.6186861316935786e-06
4217.59,-1.6211168431844493e-06
4218.49,-1.6280043006269971e-06
4219.39,-1.646716908381947e-06
4220.29,-1.6628627280668988e-06
4221.19,-1.6683942894604307e-06
4222.09,-1.650686483999582e-06
4222.99,-1.6383125184263053e-06
4223.89,-1.6064995309138302e-06
4224.79,-1.5557871856565064e-06
4225.69,-1.5075906937206982e-06
4226.59,-1.4739000410328242e-06
4227.49,-1.458657012000306e-06
4228.39,-1.462592400894017e-06
4229.29,-1.5026645600299996e-06
4230.19,-1.5465000537508492e-06
4231.09,-1.5948627366621317e-06
4231.99,-1.6268968593093282e-06
4232.89,-1.6471536116068073e-06
4233.79,-1.6518984621891744e-06
4234.69,-1.6456187553430593e-06
4235.59,-1.6351648128469684e-06
4236.49,-1.6278687802011559e-06
4237.39,-1.6307890445332174e-06
4238.29,-1.629616877306865e-06
4239.19,-1.6476554816854098e-06
4240.09,-1.6526531055750796e-06
4240.99,-1.672955297397497e-06
4241.89,-1.689031109816788e-06
4242.79,-1.706815392923995e-06
4243.69,-1.7079945036835457e-06
4244.59,-1.7103970971988786e-06
4245.5,-1.7076979412638368e-06
4246.4,-1.7072696599706213e-06
4247.3,-1.6872203133761822e-06
4248.2,-1.6636005037388576e-06
4249.1,-1.660511641569108e-06
4250.0,-1.6476530763718768e-06
4250.9,-1.6466168082451189e-06
4251.8,-1.6592870703746923e-06
4252.7,-1.6633463527385238e-06
4253.6,-1.6748214816080224e-06
4254.5,-1.6824556329390758e-06
4255.4,-1.6901811430593614e-06
4256.3,-1.7027977183367363e-06
4257.2,-1.7044349938657404e-06
4258.1,-1.7015753459971344e-06
4259.0,-1.6972333196903082e-06
4259.9,-1.6901608759645702e-06
4260.8,-1.681127782064631e-06
4261.7,-1.6873395189942358e-06
4262.6,-1.7017480333841593e-06
4263.5,-1.723909890045646e-06
4264.4,-1.7458807399240164e-06
4265.3,-1.7724298033192713e-06
4266.2,-1.7859594199377752e-06
4267.1,-1.7840795366208712e-06
4268.0,-1.7679983513671787e-06
4268.9,-1.758399620360429e-06
4269.8,-1.7183658224043105e-06
4270.7,-1.688476713071459e-06
4271.6,-1.6482884862488904e-06
4272.5,-1.628591838838225e-06
4273.4,-1.6141408696487142e-06
4274.3,-1.6155358931290322e-06
4275.2,-1.6384388184335852e-06
