wave,flux
3700.85,-5.599192959529278e-07
3701.75,-5.533699162644978e-07
3702.65,-5.329516807549146e-07
3703.55,-5.0265157231491e-07
3704.45,-4.709287662051806e-07
3705.35,-4.4127429545076684e-07
3706.25,-4.175189334548302e-07
3707.15,-4.038299148286038e-07
3708.05,-4.051307713197442e-07
3708.96,-4.1328519733254276e-07
3709.86,-4.3192777156943245e-07
3710.76,-4.576531480400182e-07
3711.66,-4.879417413379584e-07
3712.56,-5.186462489708603e-07
3713.46,-5.456286596327038e-07
3714.36,-5.66726424900526e-07
3715.26,-5.770881632046553e-07
3716.16,-5.69401448755371e-07
3717.06,-5.487027396857524e-07
3717.96,-5.175019898602487e-07
3718.86,-4.774579808537996e-07
3719.76,-4.3223112461312835e-07
3720.66,-3.964593904285182e-07
3721.56,-3.7341485298458996e-07
3722.46,-3.71631977721955e-07
3723.36,-3.9060238232267326e-07
3724.26,-4.192375462643623e-07
3725.16,-4.507366599263158e-07
3726.06,-4.731990060447843e-07
3726.96,-4.876951438537269e-07
3727.86,-4.934574607426402e-07
3728.76,-4.934562473878529e-07
3729.66,-4.868507331659048e-07
3730.56,-4.781822664513129e-07
3731.46,-4.596963107263292e-07
3732.36,-4.3194625440202155e-07
3733.26,-3.944641350630731e-07
3734.16,-3.595639336691961e-07
3735.06,-3.3112372787558964e-07
3735.96,-3.1906948713300366e-07
3736.86,-3.228725515907689e-07
3737.76,-3.420953298390287e-07
3738.66,-3.775282626780148e-07
3739.56,-4.137983864272504e-07
3740.46,-4.4601986182943027e-07
3741.36,-4.682580405261762e-07
3742.26,-4.748620919487329e-07
3743.16,-4.646980703682424e-07
3744.06,-4.4256272644219726e-07
3744.96,-4.167795855927269e-07
3745.86,-3.882369388602895e-07
3746.76,-3.640482727195052e-07
3747.67,-3.4694700141629826e-07
3748.57,-3.3642070227957397e-07
3749.47,-3.35025554018418e-07
3750.37,-3.472162591387236e-07
3751.27,-3.75385007088494e-07
3752.17,-4.16625378946018e-07
3753.07,-4.5982190094125785e-07
3753.97,-4.99419546299555e-07
3754.87,-5.31172613731892e-07
3755.77,-5.406119377035463e-07
3756.67,-5.336120398617535e-07
3757.57,-5.152698309604025e-07
3758.47,-4.874483689670958e-07
3759.37,-4.665719669659129e-07
3760.27,-4.5932992343079895e-07
3761.17,-4.590819623444048e-07
3762.07,-4.694361991745327e-07
3762.97,-4.77314787003937e-07
3763.87,-4.828969213998992e-07
3764.77,-4.876291443334338e-07
3765.67,-4.896929657499751e-07
3766.57,-4.881345744460853e-07
3767.47,-4.876365505562366e-07
3768.37,-4.919750149344671e-07
3769.27,-4.992644645665124e-07
3770.17,-5.079765141696517e-07
3771.07,-5.226924298654889e-07
3771.97,-5.384973713590399e-07
3772.87,-5.570156632353915e-07
3773.77,-5.720672774297669e-07
3774.67,-5.873484185477678e-07
3775.57,-5.975758865111812e-07
3776.47,-6.054820856400579e-07
3777.37,-6.11722438455288e-07
3778.27,-6.196036820909417e-07
3779.17,-6.324953474538715e-07
3780.07,-6.436234934300374e-07
3780.97,-6.578358008683981e-07
3781.87,-6.666539628506667e-07
3782.77,-6.710357234425853e-07
3783.67,-6.699960937671737e-07
3784.57,-6.578818443038149e-07
3785.47,-6.365616418239111e-07
3786.38,-6.095088502491469e-07
3787.28,-5.837887487531163e-07
3788.18,-5.570448324951439e-07
3789.08,-5.396755544614207e-07
3789.98,-5.294900286174601e-07
3790.88,-5.258885680137642e-07
3791.78,-5.249650481669906e-07
3792.68,-5.23212741944438e-07
3793.58,-5.162692968179532e-07
3794.48,-5.036962792115175e-07
3795.38,-4.893180157528212e-07
3796.28,-4.713249306251387e-07
3797.18,-4.5809552144491386e-07
3798.08,-4.5100900380187836e-07
3798.98,-4.518083194940459e-07
3799.88,-4.6628666633985646e-07
3800.78,-4.913708525912996e-07
3801.68,-5.260935015464249e-07
3802.58,-5.630438700359305e-07
3803.48,-5.945234233861348e-07
3804.38,-6.144528297082096e-07
3805.28,-6.264638587051379e-07
3806.18,-6.280211840296171e-07
3807.08,-6.259638353105477e-07
3807.98,-6.23954865972053e-07
3808.88,-6.259330781602038e-07
3809.78,-6.311207780156269e-07
3810.68,-6.35212595156272e-07
3811.58,-6.306229256261711e-07
3812.48,-6.13955265321369e-07
3813.38,-5.91560036420348e-07
3814.28,-5.617322437712178e-07
3815.18,-5.361310277234329e-07
3816.08,-5.160478922806315e-07
3816.98,-5.037319273979319e-07
3817.88,-4.955213615684928e-07
3818.78,-4.896929836214865e-07
3819.68,-4.827496322446373e-07
3820.58,-4.7352469929339926e-07
3821.48,-4.645806591207479e-07
3822.38,-4.583987376183548e-07
3823.28,-4.502927589791546e-07
3824.18,-4.430624018562495e-07
3825.09,-4.275235786890217e-07
3825.99,-4.1198941573674044e-07
3826.89,-3.9863525613376416e-07
3827.79,-3.9074230048544114e-07
3828.69,-3.888985045788387e-07
3829.59,-3.8919033785018096e-07
3830.49,-3.877867154554871e-07
3831.39,-3.839203517501808e-07
3832.29,-3.753804452294535e-07
3833.19,-3.655334846599228e-07
3834.09,-3.568318034752148e-07
3834.99,-3.5325133434673043e-07
3835.89,-3.5326289173116184e-07
3836.79,-3.5563955895105713e-07
3837.69,-3.579824603328853e-07
3838.59,-3.627747018018121e-07
3839.49,-3.7175028019923225e-07
3840.39,-3.868933460944009e-07
3841.29,-4.097775087165509e-07
3842.19,-4.429485199701573e-07
3843.09,-4.799562924317009e-07
3843.99,-5.149093733784943e-07
3844.89,-5.422597391871268e-07
3845.79,-5.653107503912352e-07
3846.69,-5.771128856992659e-07
3847.59,-5.835860420148977e-07
3848.49,-5.856992576285726e-07
3849.39,-5.848626289270122e-07
3850.29,-5.780574171059365e-07
3851.19,-5.768280638770252e-07
3852.09,-5.799832761006546e-07
3852.99,-5.78533139022179e-07
3853.89,-5.762009738974849e-07
3854.79,-5.669356040369178e-07
3855.69,-5.556716550335133e-07
3856.59,-5.374347001598016e-07
3857.49,-5.186018684090931e-07
3858.39,-5.021738425942995e-07
3859.29,-4.890631277233818e-07
3860.19,-4.829610453398644e-07
3861.09,-4.951814677637022e-07
3861.99,-5.149955366527981e-07
3862.9,-5.455118933043771e-07
3863.8,-5.692250631499864e-07
3864.7,-5.914036212288772e-07
3865.6,-5.977228915060485e-07
3866.5,-6.029404263182718e-07
3867.4,-5.953019937309952e-07
3868.3,-5.87370554433061e-07
3869.2,-5.740122436359417e-07
3870.1,-5.592889536613797e-07
3871.0,-5.430572430474651e-07
3871.9,-5.30504888748437e-07
3872.8,-5.265193836752512e-07
3873.7,-5.332484120693445e-07
3874.6,-5.430804628504549e-07
3875.5,-5.59808582827907e-07
3876.4,-5.671923199555589e-07
3877.3,-5.688344318392609e-07
3878.2,-5.623769238951859e-07
3879.1,-5.543856551226945e-07
3880.0,-5.476824543798474e-07
3880.9,-5.424571771905063e-07
3881.8,-5.440541177726252e-07
3882.7,-5.457158381869143e-07
3883.6,-5.455289720762946e-07
3884.5,-5.432447919965263e-07
3885.4,-5.351936297612719e-07
3886.3,-5.214675482180943e-07
3887.2,-5.094149776856255e-07
3888.1,-5.017533586973632e-07
3889.0,-5.043921468721092e-07
3889.9,-5.182427434672577e-07
3890.8,-5.454231495579458e-07
3891.7,-5.732066139985746e-07
3892.6,-6.049255999814895e-07
3893.5,-6.264088751160038e-07
3894.4,-6.440961422782058e-07
3895.3,-6.514458641288008e-07
3896.2,-6.579484813041725e-07
3897.1,-6.651513193151207e-07
3898.0,-6.704711464884468e-07
3898.9,-6.724652687154608e-07
3899.8,-6.767071680955504e-07
3900.7,-6.769816096161718e-07
3901.6,-6.770254756656025e-07
3902.51,-6.733823099249837e-07
3903.41,-6.65277223988225e-07
3904.31,-6.58197549416816e-07
3905.21,-6.538243774478596e-07
3906.11,-6.513542366356255e-07
3907.01,-6.587352301743247e-07
3907.91,-6.756463050430329e-07
3908.81,-7.031591950662457e-07
3909.71,-7.283966865944072e-07
3910.61,-7.549020617028896e-07
3911.51,-7.708552943697246e-07
3912.41,-7.823484560240693e-07
3913.31,-7.875019958757479e-07
3914.21,-7.860063899210569e-07
3915.11,-7.814676929777763e-07
3916.01,-7.668560945147017e-07
3916.91,-7.528613268530059e-07
3917.81,-7.323335411030206e-07
3918.71,-7.140557504737572e-07
3919.61,-6.920440094650277e-07
3920.51,-6.71343252161508e-07
3921.41,-6.503097465530628e-07
3922.31,-6.364216142468232e-07
3923.21,-6.242168467942914e-07
3924.11,-6.191279655194463e-07
3925.01,-6.085373980230712e-07
3925.91,-5.875358824948352e-07
3926.81,-5.58248134519184e-07
3927.71,-5.161449389348197e-07
3928.61,-4.680781571704886e-07
3929.51,-4.1506363541855124e-07
3930.41,-3.638689789930018e-07
3931.31,-3.1588416204666167e-07
3932.21,-2.7379520731531083e-07
3933.11,-2.4173901902520043e-07
3934.01,-2.24863065104501e-07
3934.91,-2.2477240662915817e-07
3935.81,-2.3853406860991914e-07
3936.71,-2.698022061813894e-07
3937.61,-3.118118123427918e-07
3938.51,-3.610000835462624e-07
3939.42,-4.119853262361478e-07
3940.32,-4.5952766404712016e-07
3941.22,-5.00162735030286e-07
3942.12,-5.300070032320809e-07
3943.02,-5.561586002025549e-07
3943.92,-5.762349879381109e-07
3944.82,-6.006209158939393e-07
3945.72,-6.256427356899837e-07
3946.62,-6.570137523703193e-07
3947.52,-6.854208359341434e-07
3948.42,-7.136986277687702e-07
3949.32,-7.354895822829832e-07
3950.22,-7.580476350640979e-07
3951.12,-7.669386676844115e-07
3952.02,-7.82888326464164e-07
3952.92,-7.897517149282515e-07
3953.82,-7.966273032390765e-07
3954.72,-7.968181377671461e-07
3955.62,-7.940837626667158e-07
3956.52,-7.897579172178182e-07
3957.42,-7.829814603085196e-07
3958.32,-7.648258317425218e-07
3959.22,-7.488990558486495e-07
3960.12,-7.221060058642476e-07
3961.02,-6.834972673861567e-07
3961.92,-6.365974077371414e-07
3962.82,-5.863438804957773e-07
3963.72,-5.363406432956609e-07
3964.62,-4.868406720672359e-07
3965.52,-4.3726677563894395e-07
3966.42,-3.862693553085393e-07
3967.32,-3.399259918801591e-07
3968.22,-3.027688059538118e-07
3969.12,-2.829554652066883e-07
3970.02,-2.809797850697315e-07
3970.92,-2.984331181200163e-07
3971.82,-3.3470050115459936e-07
3972.72,-3.863177362355124e-07
3973.62,-4.428483676645218e-07
3974.52,-5.067294332598209e-07
3975.42,-5.670471847068709e-07
3976.32,-6.289586656835023e-07
3977.22,-6.82697583101309e-07
3978.13,-7.399119473068613e-07
3979.03,-7.847395485771788e-07
3979.93,-8.225891384809305e-07
3980.83,-8.496257883369385e-07
3981.73,-8.655061341606936e-07
3982.63,-8.811022234147748e-07
3983.53,-8.902038163788819e-07
3984.43,-8.942366300492661e-07
3985.33,-9.053771166125264e-07
3986.23,-9.176070520810382e-07
3987.13,-9.309924227981434e-07
3988.03,-9.470487966802733e-07
3988.93,-9.597285647124542e-07
3989.83,-9.702217455415836e-07
3990.73,-9.824400612129765e-07
3991.63,-9.894307523255156e-07
3992.53,-9.973834929731407e-07
3993.43,-9.973025596922536e-07
3994.33,-1.0015339189493711e-06
3995.23,-9.931384554229046e-07
3996.13,-9.833285501794367e-07
3997.03,-9.780792723706527e-07
3997.93,-9.754934678802093e-07
3998.83,-9.855198597832582e-07
3999.73,-1.0023894146566693e-06
4000.63,-1.0203114262628847e-06
4001.53,-1.0338568844670856e-06
4002.43,-1.0446125712800241e-06
4003.33,-1.0422625916311561e-06
4004.23,-1.029653882216567e-06
4005.13,-1.0140059821317647e-06
4006.03,-1.00012576156933e-06
4006.93,-9.915528329549741e-07
4007.83,-9.944774475652115e-07
4008.73,-1.0097046339466542e-06
4009.63,-1.0294709898760863e-06
4010.53,-1.0479836249675256e-06
4011.43,-1.0693067351542829e-06
4012.33,-1.0851757652144402e-06
4013.23,-1.091047057698077e-06
4014.13,-1.099842380149972e-06
4015.03,-1.0993855364333184e-06
4015.93,-1.1072306516997564e-06
4016.84,-1.107374328832999e-06
4017.74,-1.1101057026369517e-06
4018.64,-1.111865611631463e-06
4019.54,-1.1134978271505822e-06
4020.44,-1.1191082065426704e-06
4021.34,-1.119509216063513e-06
4022.24,-1.1220651310187136e-06
4023.14,-1.1206379750391718e-06
4024.04,-1.1171137829727446e-06
4024.94,-1.1217678666354607e-06
4025.84,-1.1294451166847864e-06
4026.74,-1.1311000222561143e-06
4027.64,-1.1356467789578084e-06
4028.54,-1.1330364432394756e-06
4029.44,-1.126012139938205e-06
4030.34,-1.0930261942249716e-06
4031.24,-1.0638664444884713e-06
4032.14,-1.0236980254874577e-06
4033.04,-1.00471903453932e-06
4033.94,-1.0034198492191544e-06
4034.84,-1.0130352614259057e-06
4035.74,-1.0377687291600236e-06
4036.64,-1.0803148009519165e-06
4037.54,-1.125462056919595e-06
4038.44,-1.1551519280655615e-06
4039.34,-1.173794743778184e-06
4040.24,-1.1798285972273235e-06
4041.14,-1.172751434931722e-06
4042.04,-1.153192749197637e-06
4042.94,-1.119515541767849e-06
4043.84,-1.0830351537830667e-06
4044.74,-1.0436099801778033e-06
4045.64,-1.008258629232812e-06
4046.54,-9.94476134702583e-07
4047.44,-9.999100536374566e-07
4048.34,-1.0238096539039947e-06
4049.24,-1.0699221115418304e-06
4050.14,-1.114910896501866e-06
4051.04,-1.1459176559540754e-06
4051.94,-1.1662709277507645e-06
4052.84,-1.1653535813970706e-06
4053.74,-1.1568066713256349e-06
4054.65,-1.1325808322632482e-06
4055.55,-1.1192511598787903e-06
4056.45,-1.1045416222397543e-06
4057.35,-1.0969174166081276e-06
4058.25,-1.0883963339453446e-06
4059.15,-1.0901083963096015e-06
4060.05,-1.0902601825035617e-06
4060.95,-1.0900034214134708e-06
4061.85,-1.0838909448750107e-06
4062.75,-1.0652283699055675e-06
4063.65,-1.0433239449457837e-06
4064.55,-1.0299790565075368e-06
4065.45,-1.028224869103036e-06
4066.35,-1.0429508177962199e-06
4067.25,-1.0629073282171773e-06
4068.15,-1.0860534151637016e-06
4069.05,-1.107116358721468e-06
4069.95,-1.1247169656327582e-06
4070.85,-1.1255126155317046e-06
4071.75,-1.120255403396931e-06
4072.65,-1.115125088898572e-06
4073.55,-1.1089503771472556e-06
4074.45,-1.1040738653900575e-06
4075.35,-1.0996706408549085e-06
4076.25,-1.0823329991492196e-06
4077.15,-1.0775531516646016e-06
4078.05,-1.0695778816950812e-06
4078.95,-1.0769056413839402e-06
4079.85,-1.0968049192182816e-06
4080.75,-1.131811845773459e-06
4081.65,-1.1559013652257792e-06
4082.55,-1.1830280670810807e-06
4083.45,-1.200106750923532e-06
4084.35,-1.209618305023187e-06
4085.25,-1.2141229185546322e-06
4086.15,-1.2286235101975142e-06
4087.05,-1.2441297398431633e-06
4087.95,-1.2672227085360174e-06
4088.85,-1.2951222054871258e-06
4089.75,-1.3079993590692626e-06
4090.65,-1.3216722099374324e-06
4091.55,-1.3144359583032957e-06
4092.45,-1.2995204069233867e-06
4093.36,-1.2843778658502784e-06
4094.26,-1.2632736142262248e-06
4095.16,-1.2421280396285644e-06
4096.06,-1.2188940503282898e-06
4096.96,-1.1823316355278305e-06
4097.86,-1.149092973034928e-06
4098.76,-1.1125334467751759e-06
4099.66,-1.082209371450112e-06
4100.56,-1.040407356876957e-06
4101.46,-1.0175507034849715e-06
4102.36,-1.0034611152261003e-06
4103.26,-1.005134576947783e-06
4104.16,-1.0310178325728315e-06
4105.06,-1.0654307024616048e-06
4105.96,-1.1146751300841234e-06
4106.86,-1.1510893374632722e-06
4107.76,-1.1879299971689898e-06
4108.66,-1.2070270360150495e-06
4109.56,-1.2191422110835016e-06
4110.46,-1.220886512235827e-06
4111.36,-1.2290904701455355e-06
4112.26,-1.235442102507822e-06
4113.16,-1.2515813435570876e-06
4114.06,-1.2681104800427539e-06
4114.96,-1.2802770976594428e-06
4115.86,-1.2959266088725048e-06
4116.76,-1.2939979132626194e-06
4117.66,-1.2938703326639575e-06
4118.56,-1.2852101279232062e-06
4119.46,-1.274940173484529e-06
4120.36,-1.2674746523066531e-06
4121.26,-1.2671722444803048e-06
4122.16,-1.2591023641533499e-06
4123.06,-1.2672893918973997e-06
4123.96,-1.2726552325217369e-06
4124.86,-1.2797046357452664e-06
4125.76,-1.2816665503913611e-06
4126.66,-1.2867672774251617e-06
4127.56,-1.2750869551109686e-06
4128.46,-1.2673289514753411e-06
4129.36,-1.2548740463394033e-06
4130.26,-1.2347802150879497e-06
4131.17,-1.2127543543213303e-06
4132.06,-1.1979209565477919e-06
4132.97,-1.181321557494373e-06
4133.87,-1.1840790561337385e-06
4134.77,-1.197949485769815e-06
4135.67,-1.2197986482129063e-06
4136.57,-1.2528928016846323e-06
4137.47,-1.2784507314665972e-06
4138.37,-1.3127715364018187e-06
4139.27,-1.3215806841056303e-06
4140.17,-1.3257443001051007e-06
4141.07,-1.3071029094894224e-06
4141.97,-1.2816038861580354e-06
4142.87,-1.2452943121301266e-06
4143.77,-1.2232496351737956e-06
4144.67,-1.2009383074190945e-06
4145.57,-1.200538038790615e-06
4146.47,-1.2185367047400343e-06
4147.37,-1.2409688881730919e-06
4148.27,-1.2592637500559672e-06
4149.17,-1.2734839281120693e-06
4150.07,-1.276662488588699e-06
4150.97,-1.27101303069046e-06
4151.87,-1.2678243798645923e-06
4152.77,-1.2589283613954341e-06
4153.67,-1.2546688537575272e-06
4154.57,-1.2521285694005248e-06
4155.47,-1.2461222273800714e-06
4156.37,-1.2474821756494085e-06
4157.27,-1.262485403757591e-06
4158.17,-1.2781203655962165e-06
4159.07,-1.2983156069229093e-06
4159.97,-1.3168862028337364e-06
4160.87,-1.3435119788854884e-06
4161.77,-1.3630694762651568e-06
4162.67,-1.3780396945475424e-06
4163.57,-1.386739813252943e-06
4164.47,-1.3848979981122164e-06
4165.37,-1.3771212702296255e-06
4166.27,-1.3659037277434836e-06
4167.17,-1.3538253787724468e-06
4168.07,-1.341112490745569e-06
4168.98,-1.3252588141094324e-06
4169.88,-1.3145540068822916e-06
4170.78,-1.2939620489182087e-06
4171.68,-1.2711856050840178e-06
4172.58,-1.2488235661351991e-06
4173.48,-1.2320160279665667e-06
4174.38,-1.2204721849251301e-06
4175.28,-1.217588804104404e-06
4176.18,-1.2223912358011841e-06
4177.08,-1.240291865441426e-06
4177.98,-1.2520606071736485e-06
4178.88,-1.2707176206590741e-06
4179.78,-1.2813787993689138e-06
4180.68,-1.2970842945026503e-06
4181.58,-1.3005942569926242e-06
4182.48,-1.3122423914971641e-06
4183.38,-1.31771021297869e-06
4184.28,-1.322334108483472e-06
4185.18,-1.3230044897989805e-06
4186.08,-1.324530473485025e-06
4186.98,-1.3167189070825155e-06
4187.88,-1.3110724256387887e-06
4188.78,-1.3187487831349072e-06
4189.68,-1.3197261793032753e-06
4190.58,-1.3331278497150331e-06
4191.48,-1.34381736902958e-06
4192.38,-1.3632949782637723e-06
4193.28,-1.3696445600376708e-06
4194.18,-1.3746720517987287e-06
4195.08,-1.3647900400998875e-06
4195.98,-1.3477355486052254e-06
4196.88,-1.3245889216782986e-06
4197.78,-1.2930485892342994e-06
4198.68,-1.2673573548936257e-06
4199.58,-1.250372991269806e-06
4200.48,-1.2433058670796444e-06
4201.38,-1.2460270791763689e-06
4202.28,-1.2559539838430233e-06
4203.18,-1.2686718650563268e-06
4204.08,-1.2926729991803146e-06
4204.98,-1.3198950086795169e-06
4205.88,-1.3594041923136263e-06
4206.79,-1.3855654654779488e-06
4207.69,-1.406667630600502e-06
4208.59,-1.4253400704769732e-06
4209.49,-1.4388637493036192e-06
4210.39,-1.4542491919360375e-06
4211.29,-1.4508834093484617e-06
4212.19,-1.4470299303283487e-06
4213.09,-1.439804672553038e-06
4213.99,-1.4220641332773926e-06
4214.89,-1.4081386954349779e-06
4215.79,-1.3987624517796044e-06
4216.69,-1.3982898812762067e-06
4217.59,-1.406103548472145e-06
4218.49,-1.4341489621421233e-06
4219.39,-1.4547502301578875e-06
4220.29,-1.474422501712148e-06
4221.19,-1.4751477629597871e-06
4222.09,-1.462368811361192e-06
4222.99,-1.4185615978223995e-06
4223.89,-1.3631613841196496e-06
4224.79,-1.2875368886889191e-06
4225.69,-1.2213419988900346e-06
4226.59,-1.1660675542907836e-06
4227.49,-1.1452546984286176e-06
4228.39,-1.1572142108099685e-06
4229.29,-1.2068519895115438e-06
4230.19,-1.27567798204544e-06
4231.09,-1.3324706358299422e-06
4231.99,-1.379237823269165e-06
4232.89,-1.409239821409757e-06
4233.79,-1.4218534756422322e-06
4234.69,-1.4126817220549733e-06
4235.59,-1.410548821435405e-06
4236.49,-1.3970736640126696e-06
4237.39,-1.388586986531011e-06
4238.29,-1.3904540531714168e-06
4239.19,-1.4019640452458824e-06
4240.09,-1.4197640099516808e-06
4240.99,-1.4454412124347644e-06
4241.89,-1.47488697037998e-06
4242.79,-1.4979375590775985e-06
4243.69,-1.5182173047440683e-06
4244.59,-1.535469263174765e-06
4245.5,-1.5357625896604664e-06
4246.4,-1.5342943009001715e-06
4247.3,-1.5077986217913932e-06
4248.2,-1.4756737395528396e-06
4249.1,-1.4400687420616505e-06
4250.0,-1.4240699848670924e-06
4250.9,-1.402446282785635e-06
4251.8,-1.4020830155063989e-06
4252.7,-1.3957802252494336e-06
4253.6,-1.4082991972596235e-06
4254.5,-1.4122947615940297e-06
4255.4,-1.428543498655258e-06
4256.3,-1.4428083103481535e-06
4257.2,-1.445417991993345e-06
4258.1,-1.4462650201004162e-06
4259.0,-1.4383544731632887e-06
4259.9,-1.4280667715945896e-06
4260.8,-1.4248454370211242e-06
4261.7,-1.4320901388229895e-06
4262.6,-1.4566805119008082e-06
4263.5,-1.4887663239754232e-06
4264.4,-1.5279463068935675e-06
4265.3,-1.5692383183586643e-06
4266.2,-1.5892202646974687e-06
4267.1,-1.5828151954178442e-06
4268.0,-1.5622771137635582e-06
4268.9,-1.521944635823895e-06
4269.8,-1.4703662613015794e-06
4270.7,-1.4087027937267647e-06
4271.6,-1.3555400372150331e-06
4272.5,-1.3157758511850101e-06
4273.4,-1.2932152539239987e-06
4274.3,-1.3010141603685595e-06
4275.2,-1.3227166455783107e-06
