wave,flux
3700.85,-4.329011787839157e-05
3701.75,-4.2655232735427546e-05
3702.65,-4.076769967361897e-05
3703.55,-3.826737531824671e-05
3704.45,-3.52529391191565e-05
3705.35,-3.236349072674576e-05
3706.25,-3.0135779122251235e-05
3707.15,-2.8846907328004495e-05
3708.05,-2.867344400648938e-05
3708.96,-2.970341098568702e-05
3709.86,-3.1805017123261974e-05
3710.76,-3.4867384644927234e-05
3711.66,-3.849861738997493e-05
3712.56,-4.2331148656355195e-05
3713.46,-4.550708687392603e-05
3714.36,-4.705434071826311e-05
3715.26,-4.7120051168518874e-05
3716.16,-4.577056998716777e-05
3717.06,-4.2909101495281396e-05
3717.96,-3.9363552435719155e-05
3718.86,-3.500933010212278e-05
3719.76,-3.1038120492350476e-05
3720.66,-2.779400069033431e-05
3721.56,-2.6208416006467132e-05
3722.46,-2.6374693028098354e-05
3723.36,-2.8378731652906594e-05
3724.26,-3.122343726252964e-05
3725.16,-3.4196379830471155e-05
3726.06,-3.6325201204420375e-05
3726.96,-3.7502121941622294e-05
3727.86,-3.795627305646473e-05
3728.76,-3.7899925032822345e-05
3729.66,-3.7530907236482874e-05
3730.56,-3.647489451341037e-05
3731.46,-3.4827525165670734e-05
3732.36,-3.227196559025179e-05
3733.26,-2.9178631204534594e-05
3734.16,-2.605696353573723e-05
3735.06,-2.3732724009248434e-05
3735.96,-2.254897649028339e-05
3736.86,-2.2866950321373512e-05
3737.76,-2.4764914326428414e-05
3738.66,-2.7950194973376977e-05
3739.56,-3.153926898101212e-05
3740.46,-3.4901204682261086e-05
3741.36,-3.695612659418466e-05
3742.26,-3.7303843825908506e-05
3743.16,-3.614770837087592e-05
3744.06,-3.3886995359483164e-05
3744.96,-3.119681812867056e-05
3745.86,-2.8559261059174887e-05
3746.76,-2.665365339519813e-05
3747.67,-2.5439986142553574e-05
3748.57,-2.4965550925688474e-05
3749.47,-2.590386917396807e-05
3750.37,-2.790490071629809e-05
3751.27,-3.133661456789375e-05
3752.17,-3.5670192996506704e-05
3753.07,-4.052025022132208e-05
3753.97,-4.4657872042787634e-05
3754.87,-4.7553330744283595e-05
3755.77,-4.835142279348461e-05
3756.67,-4.7422638015351496e-05
3757.57,-4.496229061311938e-05
3758.47,-4.2244508303871715e-05
3759.37,-3.9991816048008e-05
3760.27,-3.907776103763763e-05
3761.17,-3.93043432425055e-05
3762.07,-4.002213729385139e-05
3762.97,-4.0616182085701835e-05
3763.87,-4.121810709015518e-05
3764.77,-4.171048809842167e-05
3765.67,-4.1984116218544896e-05
3766.57,-4.244442220090181e-05
3767.47,-4.3892082502481585e-05
3768.37,-4.5541467938977067e-05
3769.27,-4.788256810414457e-05
3770.17,-5.0767497388645364e-05
3771.07,-5.374373833834134e-05
3771.97,-5.644595015074062e-05
3772.87,-5.848632553186555e-05
3773.77,-6.0085103625088285e-05
3774.67,-6.124737088762884e-05
3775.57,-6.149874003585451e-05
3776.47,-6.208503361882093e-05
3777.37,-6.244319067286854e-05
3778.27,-6.350392525466093e-05
3779.17,-6.445620713429818e-05
3780.07,-6.610729071695441e-05
3780.97,-6.760147668081928e-05
3781.87,-6.895666167983676e-05
3782.77,-6.957913899067096e-05
3783.67,-6.947003745773219e-05
3784.57,-6.825100237925292e-05
3785.47,-6.548696367805381e-05
3786.38,-6.189335468944005e-05
3787.28,-5.8010548767740575e-05
3788.18,-5.456498499349757e-05
3789.08,-5.22783424255105e-05
3789.98,-5.128186045151347e-05
3790.88,-5.1115921994402755e-05
3791.78,-5.1695609201981516e-05
3792.68,-5.2305172119564886e-05
3793.58,-5.193867307020109e-05
3794.48,-5.129279329307616e-05
3795.38,-5.012862025589141e-05
3796.28,-4.875115661129311e-05
3797.18,-4.782426857000572e-05
3798.08,-4.756777627383142e-05
3798.98,-4.817052790322241e-05
3799.88,-4.955413467920223e-05
3800.78,-5.247810475827489e-05
3801.68,-5.6415626399533746e-05
3802.58,-6.058917631051711e-05
3803.48,-6.432740019011225e-05
3804.38,-6.676511882987579e-05
3805.28,-6.7961741125678e-05
3806.18,-6.788805904830854e-05
3807.08,-6.740657880030046e-05
3807.98,-6.713108415849745e-05
3808.88,-6.763715566057256e-05
3809.78,-6.82310084866646e-05
3810.68,-6.897534337388813e-05
3811.58,-6.840711840160057e-05
3812.48,-6.648628253843233e-05
3813.38,-6.357419353681957e-05
3814.28,-5.939366801472748e-05
3815.18,-5.535400156445722e-05
3816.08,-5.248182640093111e-05
3816.98,-5.030630642654873e-05
3817.88,-4.9110796175693566e-05
3818.78,-4.792408866433867e-05
3819.68,-4.7011396705241405e-05
3820.58,-4.575606324758786e-05
3821.48,-4.4884568943392763e-05
3822.38,-4.404336179299339e-05
3823.28,-4.362485641951259e-05
3824.18,-4.2753967391024534e-05
3825.09,-4.163021359000784e-05
3825.99,-4.02037525446184e-05
3826.89,-3.9130504384226185e-05
3827.79,-3.8647242082958684e-05
3828.69,-3.9119673823349605e-05
3829.59,-3.9996951969996615e-05
3830.49,-4.080332903889418e-05
3831.39,-4.11796926051279e-05
3832.29,-4.105825334904278e-05
3833.19,-4.086548895842539e-05
3834.09,-4.089609003144855e-05
3834.99,-4.142579785194443e-05
3835.89,-4.22850170588011e-05
3836.79,-4.30686443055698e-05
3837.69,-4.3576458327829435e-05
3838.59,-4.350518699977719e-05
3839.49,-4.387691011976113e-05
3840.39,-4.485413419529839e-05
3841.29,-4.751239504753156e-05
3842.19,-5.148465976529197e-05
3843.09,-5.6334918497800495e-05
3843.99,-6.100690748749599e-05
3844.89,-6.500598880899306e-05
3845.79,-6.75687909158011e-05
3846.69,-6.951766335013652e-05
3847.59,-7.008486296259934e-05
3848.49,-6.954559370265437e-05
3849.39,-6.929126149083769e-05
3850.29,-6.886585219907605e-05
3851.19,-6.834203202465213e-05
3852.09,-6.784027685078224e-05
3852.99,-6.829227224134808e-05
3853.89,-6.787124869083771e-05
3854.79,-6.670934143524611e-05
3855.69,-6.463880636242926e-05
3856.59,-6.265189868131217e-05
3857.49,-6.000189455284518e-05
3858.39,-5.7594416824010235e-05
3859.29,-5.634626578351321e-05
3860.19,-5.599539519815225e-05
3861.09,-5.808146373305628e-05
3861.99,-6.192682920486455e-05
3862.9,-6.681205279134917e-05
3863.8,-7.135932707147578e-05
3864.7,-7.481261514666627e-05
3865.6,-7.655844379959733e-05
3866.5,-7.688026851861238e-05
3867.4,-7.570455273793652e-05
3868.3,-7.455454663822103e-05
3869.2,-7.212672100030031e-05
3870.1,-7.005248227038506e-05
3871.0,-6.811685818159589e-05
3871.9,-6.766573665901295e-05
3872.8,-6.905693307127016e-05
3873.7,-7.206803441841304e-05
3874.6,-7.649352422341533e-05
3875.5,-8.05089413412733e-05
3876.4,-8.233279630720173e-05
3877.3,-8.338170587998883e-05
3878.2,-8.17670324890561e-05
3879.1,-8.001681036679072e-05
3880.0,-7.861146709021054e-05
3880.9,-7.82994675607761e-05
3881.8,-7.870854278333951e-05
3882.7,-8.003349783063994e-05
3883.6,-8.213763334445815e-05
3884.5,-8.363927078991545e-05
3885.4,-8.45131168273539e-05
3886.3,-8.461333443441839e-05
3887.2,-8.426084813730569e-05
3888.1,-8.607872789625027e-05
3889.0,-8.962735261354073e-05
3889.9,-9.493099323770382e-05
3890.8,-0.00010247238178712536
3891.7,-0.00011042175625628973
3892.6,-0.00011689875662746456
3893.5,-0.00012218655213778697
3894.4,-0.00012509439887512964
3895.3,-0.00012618502601591518
3896.2,-0.000126365417707856
3897.1,-0.0001262076347041517
3898.0,-0.0001269943176137708
3898.9,-0.00012633616496890207
3899.8,-0.00012688766045231898
3900.7,-0.0001267892973824438
3901.6,-0.0001268613787682237
3902.51,-0.00012602216009050337
3903.41,-0.00012442668454473098
3904.31,-0.00012315110101306234
3905.21,-0.0001227584513467146
3906.11,-0.00012399711529816778
3907.01,-0.00012685372628696342
3907.91,-0.00013305610615863605
3908.81,-0.0001403962134907632
3909.71,-0.00014774379295871877
3910.61,-0.00015499456126899164
3911.51,-0.00016059555176498857
3912.41,-0.0001648602980822116
3913.31,-0.0001674564866119552
3914.21,-0.00016893626441008517
3915.11,-0.00016829753643070018
3916.01,-0.00016584964663293543
3916.91,-0.00016270509847383528
3917.81,-0.00015806741775799615
3918.71,-0.00015201741149970105
3919.61,-0.00014558313035133424
3920.51,-0.00013877673093630816
3921.41,-0.0001342198219958895
3922.31,-0.00012977469095134012
3923.21,-0.00012851638930456232
3924.11,-0.0001274210141711901
3925.01,-0.00012617782191882835
3925.91,-0.00012355501149506563
3926.81,-0.00011773066703547659
3927.71,-0.00011015524854599964
3928.61,-0.00010032049489536122
3929.51,-8.914167403433282e-05
3930.41,-7.884534414817855e-05
3931.31,-6.916837054237428e-05
3932.21,-6.1008341089744823e-05
3933.11,-5.534461702851648e-05
3934.01,-5.2508470073732095e-05
3934.91,-5.2826014706889486e-05
3935.81,-5.696542650828147e-05
3936.71,-6.418131265265911e-05
3937.61,-7.39370515743456e-05
3938.51,-8.552891498555116e-05
3939.42,-9.78233812621642e-05
3940.32,-0.00010865757203563783
3941.22,-0.00011725968625026603
3942.12,-0.00012395846873629435
3943.02,-0.00012871830986140481
3943.92,-0.00013333530254707685
3944.82,-0.00013987783169624684
3945.72,-0.00014718713171259947
3946.62,-0.00015740649006446927
3947.52,-0.00016820248888289069
3948.42,-0.00017962649426982852
3949.32,-0.00018824628049353604
3950.22,-0.00019720829976806816
3951.12,-0.0002037440760871632
3952.02,-0.00020955560927397366
3952.92,-0.00021382575306524775
3953.82,-0.00021601464008384804
3954.72,-0.00021793027607357586
3955.62,-0.0002167799845431436
3956.52,-0.00021693426400537313
3957.42,-0.00021397740264635052
3958.32,-0.00021011370016505498
3959.22,-0.0002037843057709754
3960.12,-0.00019533852669360803
3961.02,-0.00018229984371858615
3961.92,-0.0001697060037493096
3962.82,-0.00015512301492893253
3963.72,-0.0001412611107078553
3964.62,-0.00012927594320268835
3965.52,-0.00011702409437597784
3966.42,-0.0001058392971172038
3967.32,-9.51506052614681e-05
3968.22,-8.648842579496976e-05
3969.12,-8.191514468047515e-05
3970.02,-8.29700623725891e-05
3970.92,-8.921725455507794e-05
3971.82,-0.00010091115002975686
3972.72,-0.00011617785385429504
3973.62,-0.00013527542672013635
3974.52,-0.0001540000738553878
3975.42,-0.0001748788105520423
3976.32,-0.0001960086879112884
3977.22,-0.00021617108497200534
3978.13,-0.00023552247263142304
3979.03,-0.00025305151777060944
3979.93,-0.0002682426899163119
3980.83,-0.00028004780828823816
3981.73,-0.0002906943339448658
3982.63,-0.00029516626523761825
3983.53,-0.00029981970143949074
3984.43,-0.0003042651625758544
3985.33,-0.00030689662672024707
3986.23,-0.00031379380946241505
3987.13,-0.0003211501097216709
3988.03,-0.0003279744206870357
3988.93,-0.0003348562488864579
3989.83,-0.0003415031778501376
3990.73,-0.000346432660017105
3991.63,-0.0003522393061993055
3992.53,-0.00035759430414586266
3993.43,-0.00035914946519239807
3994.33,-0.00036282850481905455
3995.23,-0.00036352612052185836
3996.13,-0.0003621226202062145
3997.03,-0.00036270532306433457
3997.93,-0.0003649869031045391
3998.83,-0.00037125684874356576
3999.73,-0.0003798460458584182
4000.63,-0.00039254825888435714
4001.53,-0.00040285072249482797
4002.43,-0.0004079966470964149
4003.33,-0.00041063978514334137
4004.23,-0.0004058014011911812
4005.13,-0.00040000062370544424
4006.03,-0.00039418475318966657
4006.93,-0.00039072072350359455
4007.83,-0.0003929940823863638
4008.73,-0.00040352335212689457
4009.63,-0.0004155082136067934
4010.53,-0.00042805613759686035
4011.43,-0.0004388793245220689
4012.33,-0.0004500244245574195
4013.23,-0.00045976507283418134
4014.13,-0.00046392481000582993
4015.03,-0.0004720750568529727
4015.93,-0.0004775882073255167
4016.84,-0.0004823815397647403
4017.74,-0.0004858714297680582
4018.64,-0.0004923076071861333
4019.54,-0.0004957813813522742
4020.44,-0.000499975691761958
4021.34,-0.0005029978046837265
4022.24,-0.0005029047913864432
4023.14,-0.0005041111686222298
4024.04,-0.0005065005456461997
4024.94,-0.0005095234174289866
4025.84,-0.0005108850825901361
4026.74,-0.0005158260938551795
4027.64,-0.0005230052917168667
4028.54,-0.0005200132385486678
4029.44,-0.0005142962654786477
4030.34,-0.0004972046850464051
4031.24,-0.00047656931028140396
4032.14,-0.0004593149749615676
4033.04,-0.00044251122016874704
4033.94,-0.00043977811859479717
4034.84,-0.0004486779068360804
4035.74,-0.00046762468225312615
4036.64,-0.0004998341207862609
4037.54,-0.0005293975865778264
4038.44,-0.0005543269284649714
4039.34,-0.0005729316757835075
4040.24,-0.0005842790326208338
4041.14,-0.0005867126497413806
4042.04,-0.0005748475377972638
4042.94,-0.0005575607874815679
4043.84,-0.0005324530482298976
4044.74,-0.0005070110944495698
4045.64,-0.00048541851937986767
4046.54,-0.00047459054131216295
4047.44,-0.0004779775758912908
4048.34,-0.0005012749690105137
4049.24,-0.0005337955728531748
4050.14,-0.0005671310824212662
4051.04,-0.0005958893433508066
4051.94,-0.0006168897653312354
4052.84,-0.0006211634297994211
4053.74,-0.0006194926423957015
4054.65,-0.0006125165310188872
4055.55,-0.000597865247583216
4056.45,-0.0005872661520523014
4057.35,-0.0005826965996228316
4058.25,-0.0005792043783597832
4059.15,-0.0005796124560163144
4060.05,-0.0005797046329150113
4060.95,-0.0005797808289873125
4061.85,-0.0005741240682234737
4062.75,-0.0005669645209419812
4063.65,-0.000558973983369567
4064.55,-0.0005490113791049812
4065.45,-0.0005540000220285456
4066.35,-0.000565943284717274
4067.25,-0.0005888769008039756
4068.15,-0.0006088285284151027
4069.05,-0.0006334116436918346
4069.95,-0.0006471831189073467
4070.85,-0.0006519514343721021
4071.75,-0.0006512223923268972
4072.65,-0.0006519884925444133
4073.55,-0.0006535510723290147
4074.45,-0.0006575641303983341
4075.35,-0.0006587837010234606
4076.25,-0.00065897974190721
4077.15,-0.0006629764356756653
4078.05,-0.0006636698598959138
4078.95,-0.0006774422843556408
4079.85,-0.0006986590969533564
4080.75,-0.0007336328694270019
4081.65,-0.0007629511992874872
4082.55,-0.0007886623574273188
4083.45,-0.000808081657567956
4084.35,-0.000820322900344526
4085.25,-0.0008291557806395457
4086.15,-0.0008407391168804493
4087.05,-0.000863933701558518
4087.95,-0.0008899659433659468
4088.85,-0.0009140021581009711
4089.75,-0.0009307574159286776
4090.65,-0.0009398367472356853
4091.55,-0.0009420255485178723
4092.45,-0.0009338200618164772
4093.36,-0.0009244834352339573
4094.26,-0.000912142025492016
4095.16,-0.0008880751473932734
4096.06,-0.0008743091354616365
4096.96,-0.0008484667925242412
4097.86,-0.0008309700129152576
4098.76,-0.0008104625549424472
4099.66,-0.0007969485917764151
4100.56,-0.000780093688399351
4101.46,-0.0007743997323159439
4102.36,-0.0007722883533907926
4103.26,-0.000784747716298359
4104.16,-0.0008055177065526534
4105.06,-0.0008408991766966354
4105.96,-0.0008838673715588105
4106.86,-0.0009176356944353085
4107.76,-0.0009448052048468703
4108.66,-0.0009593258765963753
4109.56,-0.0009699853651196423
4110.46,-0.0009730068276979756
4111.36,-0.0009804893133548841
4112.26,-0.0009916879905257211
4113.16,-0.0010018742644861542
4114.06,-0.0010209039715312325
4114.96,-0.0010460999213566273
4115.86,-0.001057545563834367
4116.76,-0.0010743549725794072
4117.66,-0.0010757121033359142
4118.56,-0.0010756599630964703
4119.46,-0.0010651341337851847
4120.36,-0.0010642028143732917
4121.26,-0.0010605888701191793
4122.16,-0.0010689485303698584
4123.06,-0.0010803473925633154
4123.96,-0.0010968091256490576
4124.86,-0.001108691626843761
4125.76,-0.00112007200667021
4126.66,-0.0011259880121306904
4127.56,-0.0011276953849979291
4128.46,-0.001123282275716771
4129.36,-0.0011105655498138414
4130.26,-0.0010935910139801912
4131.17,-0.001073971882467502
4132.06,-0.0010587825267158722
4132.97,-0.0010462870280712596
4133.87,-0.0010544693332821672
4134.77,-0.001067319701996228
4135.67,-0.0011045064824749466
4136.57,-0.0011514632229733589
4137.47,-0.0011981648874885057
4138.37,-0.0012301952171761127
4139.27,-0.0012523604763856559
4140.17,-0.0012593655922204616
4141.07,-0.0012468264196612263
4141.97,-0.0012184842702794184
4142.87,-0.0011820327916889277
4143.77,-0.0011556423750238196
4144.67,-0.0011434154728061977
4145.57,-0.0011431523536173857
4146.47,-0.001167913895430652
4147.37,-0.0011954006971365075
4148.27,-0.0012271857168395927
4149.17,-0.0012505376463307378
4150.07,-0.0012670770660538077
4150.97,-0.001265040131082041
4151.87,-0.0012624920958688788
4152.77,-0.0012619776275181987
4153.67,-0.0012557255291747674
4154.57,-0.0012641931920721172
4155.47,-0.0012716952133355818
4156.37,-0.0012863312157747914
4157.27,-0.0013120251243725093
4158.17,-0.001343651446528043
4159.07,-0.001381925518289988
4159.97,-0.0014292140061134754
4160.87,-0.0014713646886810603
4161.77,-0.001524007563691606
4162.67,-0.0015418689173657921
4163.57,-0.001574739951572221
4164.47,-0.0015822506777889826
4165.37,-0.0015807425237964257
4166.27,-0.0015683840532533027
4167.17,-0.0015569361999685696
4168.07,-0.0015495622730146946
4168.98,-0.0015368510255872256
4169.88,-0.0015358715108836594
4170.78,-0.0015334180759032936
4171.68,-0.0015166210216866736
4172.58,-0.0015036138689378015
4173.48,-0.0014788334619695845
4174.38,-0.0014719990199425815
4175.28,-0.0014729857337024144
4176.18,-0.0014831044001267437
4177.08,-0.001505759033858112
4177.98,-0.0015344489926747162
4178.88,-0.0015618218980082592
4179.78,-0.0015841816102890585
4180.68,-0.0016175152837650437
4181.58,-0.0016413833276690565
4182.48,-0.0016738570905421213
4183.38,-0.0016947065746040135
4184.28,-0.0017205387628358396
4185.18,-0.0017455808200454218
4186.08,-0.0017662547139561699
4186.98,-0.0017839874271066093
4187.88,-0.001788027085512623
4188.78,-0.0018002858903393422
4189.68,-0.0018196967752085935
4190.58,-0.0018551824848182597
4191.48,-0.0018927952794695472
4192.38,-0.0019333225842180597
4193.28,-0.0019615140206192283
4194.18,-0.001974238551377394
4195.08,-0.0019561189063485086
4195.98,-0.0019314695734640752
4196.88,-0.001891819486629566
4197.78,-0.0018490987389189735
4198.68,-0.0018196717488335769
4199.58,-0.0018013618870018062
4200.48,-0.0018086987200119236
4201.38,-0.0018336962141376444
4202.28,-0.0018676110458364014
4203.18,-0.0019243040505646468
4204.08,-0.001992840777707254
4204.98,-0.0020782597621373275
4205.88,-0.0021634448385861754
4206.79,-0.0022570890618340955
4207.69,-0.002320667399872077
4208.59,-0.0023851674632905094
4209.49,-0.0024112190851407972
4210.39,-0.0024428003089362704
4211.29,-0.0024424254832724718
4212.19,-0.0024288130065520507
4213.09,-0.0024101326272558555
4213.99,-0.0024079130166327943
4214.89,-0.0023927777195473176
4215.79,-0.002389859615074462
4216.69,-0.002406406771831564
4217.59,-0.0024753238260227153
4218.49,-0.0025661827153065546
4219.39,-0.002639451006459371
4220.29,-0.0027109292866405246
4221.19,-0.002762474644121491
4222.09,-0.002726211506730079
4222.99,-0.0026447821246784013
4223.89,-0.002516058385793413
4224.79,-0.0023524712022456634
4225.69,-0.0021834652190606684
4226.59,-0.0020747807960587927
4227.49,-0.0020235379154710264
4228.39,-0.0020640407082885394
4229.29,-0.0021915693195000523
4230.19,-0.002376594852195376
4231.09,-0.002562054841317909
4231.99,-0.0027129341338578638
4232.89,-0.0028166801749154326
4233.79,-0.0028772380234576285
4234.69,-0.002884712633612792
4235.59,-0.0028893735057906513
4236.49,-0.002891704757945488
4237.39,-0.0028989519915178586
4238.29,-0.0029225799032790364
4239.19,-0.0029970315321078884
4240.09,-0.0030913297694334487
4240.99,-0.0032019061382917526
4241.89,-0.003322713734637483
4242.79,-0.003438019696322086
4243.69,-0.0035512402859819952
4244.59,-0.00363399645209169
4245.5,-0.003684914615923067
4246.4,-0.003699361345568048
4247.3,-0.0036628208975146765
4248.2,-0.0035842406049647092
4249.1,-0.003472901935227025
4250.0,-0.003379996870270381
4250.9,-0.0033239613457736773
4251.8,-0.0032954564044698313
4252.7,-0.0033014132179393194
4253.6,-0.0033325642294115346
4254.5,-0.003375652855413755
4255.4,-0.0034426992309112598
4256.3,-0.0035198227216578465
4257.2,-0.0035745948398076583
4258.1,-0.0036476248190784556
4259.0,-0.0036565631662133524
4259.9,-0.0036643667613081225
4260.8,-0.003666771590635334
4261.7,-0.003743361988948965
4262.6,-0.0038429829207399947
4263.5,-0.004039796529114788
4264.4,-0.004223067398573657
4265.3,-0.004416369203698859
4266.2,-0.004523161162564262
4267.1,-0.004544068123510937
4268.0,-0.00449303746081508
4268.9,-0.004340199143847817
4269.8,-0.0041792636567829404
4270.7,-0.003955533659240617
4271.6,-0.003734008148797859
4272.5,-0.0035821572422416923
4273.4,-0.003517537375029001
4274.3,-0.003569257371279027
4275.2,-0.0036814447368341894
4276.1,-0.0038982226816607992
4277.0,-0.004136223031690703
4277.9,-0.004392928832465338
4278.8,-0.004598954051661049
4279.7,-0.0047666639085621855
4280.6,-0.004861815810237618
