wave,flux
3700.85,-6.189173012722264e-07
3701.75,-6.120450935986208e-07
3702.65,-5.939944699291216e-07
3703.55,-5.720809753269894e-07
3704.45,-5.430468813876572e-07
3705.35,-5.201906137992433e-07
3706.25,-5.036190819867022e-07
3707.15,-4.987759902869803e-07
3708.05,-5.024789188467302e-07
3708.96,-5.104518098573191e-07
3709.86,-5.232402208399288e-07
3710.76,-5.370949650725599e-07
3711.66,-5.576517138766566e-07
3712.56,-5.774718239233079e-07
3713.46,-5.991016887764232e-07
3714.36,-6.240947325686814e-07
3715.26,-6.37051059768216e-07
3716.16,-6.430032439438072e-07
3717.06,-6.346253806017131e-07
3717.96,-6.163587326103818e-07
3718.86,-5.84882767691241e-07
3719.76,-5.459319507124193e-07
3720.66,-5.140611722017352e-07
3721.56,-4.862159224928141e-07
3722.46,-4.81783050503848e-07
3723.36,-4.95540420793573e-07
3724.26,-5.216031996358289e-07
3725.16,-5.495537486406595e-07
3726.06,-5.793970794281618e-07
3726.96,-5.936586746079823e-07
3727.86,-6.032831046877805e-07
3728.76,-6.056705575601041e-07
3729.66,-6.02975067970094e-07
3730.56,-5.951367081804749e-07
3731.46,-5.746830783390108e-07
3732.36,-5.483500858565548e-07
3733.26,-5.122699819189464e-07
3734.16,-4.804913606912779e-07
3735.06,-4.5273293808184543e-07
3735.96,-4.392431480893491e-07
3736.86,-4.4480182797528117e-07
3737.76,-4.668775653868416e-07
3738.66,-5.035970364878329e-07
3739.56,-5.416896662330428e-07
3740.46,-5.753629126112186e-07
3741.36,-5.97540256895257e-07
3742.26,-6.087994645043026e-07
3743.16,-6.007684143899491e-07
3744.06,-5.880314577108931e-07
3744.96,-5.636268617483739e-07
3745.86,-5.353714697849189e-07
3746.76,-5.120509846369522e-07
3747.67,-4.875161581751645e-07
3748.57,-4.672671092709934e-07
3749.47,-4.548720639991418e-07
3750.37,-4.6005803157762206e-07
3751.27,-4.826550738617785e-07
3752.17,-5.218210276029808e-07
3753.07,-5.647965157319062e-07
3753.97,-6.074699255935851e-07
3754.87,-6.401193108463412e-07
3755.77,-6.605342755350746e-07
3756.67,-6.574705402227398e-07
3757.57,-6.462701949871681e-07
3758.47,-6.260070584205007e-07
3759.37,-6.11041985213784e-07
3760.27,-6.028672887538389e-07
3761.17,-6.074662479567025e-07
3762.07,-6.15559752691558e-07
3762.97,-6.303123849275201e-07
3763.87,-6.417418264340522e-07
3764.77,-6.451457036890652e-07
3765.67,-6.449122794095681e-07
3766.57,-6.423750896451829e-07
3767.47,-6.33542153554579e-07
3768.37,-6.24885135814052e-07
3769.27,-6.137104957912305e-07
3770.17,-6.114232578120097e-07
3771.07,-6.145774914119198e-07
3771.97,-6.237185536288337e-07
3772.87,-6.446081670035357e-07
3773.77,-6.651968293378674e-07
3774.67,-6.851451034672482e-07
3775.57,-7.038702641881392e-07
3776.47,-7.192368813068639e-07
3777.37,-7.307993139585297e-07
3778.27,-7.481103708631299e-07
3779.17,-7.632172201157969e-07
3780.07,-7.783022780330774e-07
3780.97,-7.924406182327955e-07
3781.87,-8.018295032711145e-07
3782.77,-8.087966791767497e-07
3783.67,-8.103582697021333e-07
3784.57,-7.999045490937638e-07
3785.47,-7.836127197754868e-07
3786.38,-7.634811873931899e-07
3787.28,-7.436966816374487e-07
3788.18,-7.251015912156476e-07
3789.08,-7.12361237029259e-07
3789.98,-7.017585509920014e-07
3790.88,-7.017062762784929e-07
3791.78,-6.955024864484089e-07
3792.68,-6.877601729667585e-07
3793.58,-6.752215577338723e-07
3794.48,-6.579229464896814e-07
3795.38,-6.342216536246911e-07
3796.28,-6.07511045314937e-07
3797.18,-5.891624982532239e-07
3798.08,-5.765742176514282e-07
3798.98,-5.780890279857648e-07
3799.88,-5.933980977109196e-07
3800.78,-6.265611589147146e-07
3801.68,-6.645554129521731e-07
3802.58,-7.091350898488897e-07
3803.48,-7.470237082614651e-07
3804.38,-7.753622329339359e-07
3805.28,-7.933763091056586e-07
3806.18,-7.973930040928387e-07
3807.08,-8.000172500163479e-07
3807.98,-8.025957366737912e-07
3808.88,-8.054287179700988e-07
3809.78,-8.108219212848962e-07
3810.68,-8.123624775670344e-07
3811.58,-8.098892511906873e-07
3812.48,-7.956030667049586e-07
3813.38,-7.746014616488494e-07
3814.28,-7.49987071782058e-07
3815.18,-7.314741645465963e-07
3816.08,-7.176674339083762e-07
3816.98,-7.129711836178434e-07
3817.88,-7.149853105905207e-07
3818.78,-7.109344962882971e-07
3819.68,-7.041932830197415e-07
3820.58,-6.968313849660104e-07
3821.48,-6.887964100200394e-07
3822.38,-6.823704026318857e-07
3823.28,-6.754750235901611e-07
3824.18,-6.652616557706833e-07
3825.09,-6.52084080105224e-07
3825.99,-6.338322924049228e-07
3826.89,-6.206962568562422e-07
3827.79,-6.088116016805604e-07
3828.69,-6.032385676999885e-07
3829.59,-5.974504461921115e-07
3830.49,-5.878134421362388e-07
3831.39,-5.713975334596601e-07
3832.29,-5.532594428180066e-07
3833.19,-5.296486563452476e-07
3834.09,-5.092710389889348e-07
3834.99,-4.973481388873406e-07
3835.89,-4.896788724272638e-07
3836.79,-4.923829318928141e-07
3837.69,-5.011691178419759e-07
3838.59,-5.138252292495744e-07
3839.49,-5.34033656605233e-07
3840.39,-5.619185147460843e-07
3841.29,-5.97873376422388e-07
3842.19,-6.378811897656595e-07
3843.09,-6.808127286975103e-07
3843.99,-7.192571913265214e-07
3844.89,-7.50034595207894e-07
3845.79,-7.744751061036e-07
3846.69,-7.943299813634785e-07
3847.59,-8.017760264092381e-07
3848.49,-8.090267461170014e-07
3849.39,-8.059614251409639e-07
3850.29,-8.10408712342272e-07
3851.19,-8.081218844099455e-07
3852.09,-8.173384450590287e-07
3852.99,-8.167281568821497e-07
3853.89,-8.146488432334475e-07
3854.79,-8.148206896804982e-07
3855.69,-8.038618378954253e-07
3856.59,-7.869966331870589e-07
3857.49,-7.673121327071311e-07
3858.39,-7.468011847006727e-07
3859.29,-7.343671186095749e-07
3860.19,-7.336188801062351e-07
3861.09,-7.402069676256386e-07
3861.99,-7.592772566225673e-07
3862.9,-7.907136354401807e-07
3863.8,-8.140469949605171e-07
3864.7,-8.31276209362413e-07
3865.6,-8.413766585316662e-07
3866.5,-8.471421423571304e-07
3867.4,-8.478699023733417e-07
3868.3,-8.422695854727717e-07
3869.2,-8.369245388621451e-07
3870.1,-8.196872296821419e-07
3871.0,-8.052974304373343e-07
3871.9,-7.845816698156917e-07
3872.8,-7.69757801574413e-07
3873.7,-7.631417699817728e-07
3874.6,-7.642745861557953e-07
3875.5,-7.726419553247496e-07
3876.4,-7.742136364221442e-07
3877.3,-7.760560881272443e-07
3878.2,-7.705946661020304e-07
3879.1,-7.659830435843204e-07
3880.0,-7.662066789948754e-07
3880.9,-7.699321106508065e-07
3881.8,-7.689724327038278e-07
3882.7,-7.62289112278674e-07
3883.6,-7.590505072434131e-07
3884.5,-7.417459139754144e-07
3885.4,-7.207824068410146e-07
3886.3,-6.959331595650641e-07
3887.2,-6.670789710300937e-07
3888.1,-6.432184916965245e-07
3889.0,-6.32840470573784e-07
3889.9,-6.356561712709209e-07
3890.8,-6.52954099773507e-07
3891.7,-6.795447355498436e-07
3892.6,-7.084743806162852e-07
3893.5,-7.360381871165148e-07
3894.4,-7.602110402243941e-07
3895.3,-7.774292986725078e-07
3896.2,-7.891512666753563e-07
3897.1,-8.016066140283656e-07
3898.0,-8.121106115381049e-07
3898.9,-8.191210903963282e-07
3899.8,-8.209802953535132e-07
3900.7,-8.330695090319337e-07
3901.6,-8.285598960367966e-07
3902.51,-8.307704855416837e-07
3903.41,-8.274622170731337e-07
3904.31,-8.244783747942132e-07
3905.21,-8.154671592279628e-07
3906.11,-8.148430622299349e-07
3907.01,-8.242898143251178e-07
3907.91,-8.362463732720171e-07
3908.81,-8.578723578782099e-07
3909.71,-8.817024586127112e-07
3910.61,-8.999102339458337e-07
3911.51,-9.174284876350261e-07
3912.41,-9.283559861322487e-07
3913.31,-9.2704804243663e-07
3914.21,-9.211091820093416e-07
3915.11,-9.192326936605408e-07
3916.01,-9.07967405168467e-07
3916.91,-8.953385739239516e-07
3917.81,-8.772569389744271e-07
3918.71,-8.654709566008793e-07
3919.61,-8.488964616962515e-07
3920.51,-8.308312814603922e-07
3921.41,-8.200344906136346e-07
3922.31,-8.130966356831438e-07
3923.21,-8.008550118276808e-07
3924.11,-7.941105005386617e-07
3925.01,-7.78613252731759e-07
3925.91,-7.550160052317886e-07
3926.81,-7.188898828093109e-07
3927.71,-6.724049799913278e-07
3928.61,-6.122497937941494e-07
3929.51,-5.481749264504468e-07
3930.41,-4.790524927314447e-07
3931.31,-4.129956876342029e-07
3932.21,-3.54347661174335e-07
3933.11,-3.073370220689136e-07
3934.01,-2.8123365885278856e-07
3934.91,-2.7760598960917425e-07
3935.81,-2.984045525026371e-07
3936.71,-3.396114784159652e-07
3937.61,-3.995930895643147e-07
3938.51,-4.6641126568287673e-07
3939.42,-5.367768182551551e-07
3940.32,-5.996955114106255e-07
3941.22,-6.526108727329542e-07
3942.12,-6.95925112690665e-07
3943.02,-7.325985029155708e-07
3943.92,-7.573794484153317e-07
3944.82,-7.835877514844421e-07
3945.72,-8.075402426441814e-07
3946.62,-8.326904508611145e-07
3947.52,-8.568483516771986e-07
3948.42,-8.765446686896259e-07
3949.32,-8.910728491404655e-07
3950.22,-9.011128820638737e-07
3951.12,-9.158060970736686e-07
3952.02,-9.240312828115532e-07
3952.92,-9.328517473002126e-07
3953.82,-9.368077326243033e-07
3954.72,-9.364088967575101e-07
3955.62,-9.429938004254133e-07
3956.52,-9.354322303600002e-07
3957.42,-9.252314253504441e-07
3958.32,-9.200309330943482e-07
3959.22,-9.03484820684888e-07
3960.12,-8.810585446609233e-07
3961.02,-8.457108719783627e-07
3961.92,-8.096514935890181e-07
3962.82,-7.591545723684318e-07
3963.72,-7.005781672675543e-07
3964.62,-6.366612554432579e-07
3965.52,-5.699120292761472e-07
3966.42,-4.986448059055368e-07
3967.32,-4.357281682578192e-07
3968.22,-3.823124325736736e-07
3969.12,-3.490572016610144e-07
3970.02,-3.435480625029778e-07
3970.92,-3.6614161028706115e-07
3971.82,-4.11589012695983e-07
3972.72,-4.7674302247727614e-07
3973.62,-5.517416799890109e-07
3974.52,-6.257832398361152e-07
3975.42,-7.014915636414484e-07
3976.32,-7.68062898940368e-07
3977.22,-8.281505185840321e-07
3978.13,-8.767985636749522e-07
3979.03,-9.208166252133103e-07
3979.93,-9.551845261629437e-07
3980.83,-9.842975359173277e-07
3981.73,-1.0014404746338251e-06
3982.63,-1.0092739047914276e-06
3983.53,-1.021616686421304e-06
3984.43,-1.0281627810533702e-06
3985.33,-1.0371825958511703e-06
3986.23,-1.04663951185767e-06
3987.13,-1.061528339177643e-06
3988.03,-1.0747584509018232e-06
3988.93,-1.0796342752227512e-06
3989.83,-1.0957408592264475e-06
3990.73,-1.1097030953430727e-06
3991.63,-1.114019146093292e-06
3992.53,-1.1204603259783354e-06
3993.43,-1.1253988359491127e-06
3994.33,-1.128466659226634e-06
3995.23,-1.1140639934821593e-06
3996.13,-1.1055853706931386e-06
3997.03,-1.0930166647640884e-06
3997.93,-1.0896119352321657e-06
3998.83,-1.0914381882002037e-06
3999.73,-1.1040583644982516e-06
4000.63,-1.1195089022635138e-06
4001.53,-1.1387140898892884e-06
4002.43,-1.144198186838683e-06
4003.33,-1.14657072964379e-06
4004.23,-1.1405546833503915e-06
4005.13,-1.1241026963953895e-06
4006.03,-1.1176225908911874e-06
4006.93,-1.1155524987955503e-06
4007.83,-1.1253454218752393e-06
4008.73,-1.13743351578615e-06
4009.63,-1.1497286405354518e-06
4010.53,-1.16839802696148e-06
4011.43,-1.1827196424796578e-06
4012.33,-1.1901478772981774e-06
4013.23,-1.1906011614145203e-06
4014.13,-1.1951399855450533e-06
4015.03,-1.1917556165095137e-06
4015.93,-1.195124116052174e-06
4016.84,-1.1993179115353525e-06
4017.74,-1.1989700353855896e-06
4018.64,-1.206146615034787e-06
4019.54,-1.2082309139812078e-06
4020.44,-1.2136834379284443e-06
4021.34,-1.2167128254143693e-06
4022.24,-1.2132537958365366e-06
4023.14,-1.216974269539703e-06
4024.04,-1.2181362173969724e-06
4024.94,-1.220113505234056e-06
4025.84,-1.2271076713208868e-06
4026.74,-1.2327968998829043e-06
4027.64,-1.234916833100107e-06
4028.54,-1.235531424389993e-06
4029.44,-1.2245700145602483e-06
4030.34,-1.2045183883466756e-06
4031.24,-1.1798890092945608e-06
4032.14,-1.160827126281337e-06
4033.04,-1.150001310272781e-06
4033.94,-1.1516075088287881e-06
4034.84,-1.1630238257353542e-06
4035.74,-1.1880153253365087e-06
4036.64,-1.2111519111677702e-06
4037.54,-1.2444853217326334e-06
4038.44,-1.2709581125978819e-06
4039.34,-1.2864177807880017e-06
4040.24,-1.288732451252175e-06
4041.14,-1.2807945897372952e-06
4042.04,-1.2628935206148053e-06
4042.94,-1.2434892354917368e-06
4043.84,-1.2176582625420532e-06
4044.74,-1.1897305330238716e-06
4045.64,-1.1717976127801412e-06
4046.54,-1.1575454478202518e-06
4047.44,-1.163722893110677e-06
4048.34,-1.1844830958199758e-06
4049.24,-1.2159485397646972e-06
4050.14,-1.2399485916139415e-06
4051.04,-1.2607106036405588e-06
4051.94,-1.2746165689801785e-06
4052.84,-1.2776475770959184e-06
4053.74,-1.2758412157609882e-06
4054.65,-1.2625405644960798e-06
4055.55,-1.262719654124214e-06
4056.45,-1.2546100760217312e-06
4057.35,-1.2525763985636736e-06
4058.25,-1.2485267562213613e-06
4059.15,-1.2504426852905711e-06
4060.05,-1.252751394348673e-06
4060.95,-1.25577932878668e-06
4061.85,-1.2485874658159548e-06
4062.75,-1.2343404945341368e-06
4063.65,-1.2185643842043861e-06
4064.55,-1.2060226667203137e-06
4065.45,-1.2020202605895221e-06
4066.35,-1.2048804507495584e-06
4067.25,-1.2192083108713832e-06
4068.15,-1.2389393545820276e-06
4069.05,-1.2537853600264128e-06
4069.95,-1.259921963480651e-06
4070.85,-1.2608747529930131e-06
4071.75,-1.2648561613639835e-06
4072.65,-1.2561947594413667e-06
4073.55,-1.2540444359345225e-06
4074.45,-1.246476175717268e-06
4075.35,-1.2324170949762836e-06
4076.25,-1.2164119258526215e-06
4077.15,-1.2025595827405997e-06
4078.05,-1.1911314080749818e-06
4078.95,-1.1933442452109628e-06
4079.85,-1.204258125831807e-06
4080.75,-1.2326708033765097e-06
4081.65,-1.2555496567539915e-06
4082.55,-1.2785384620417235e-06
4083.45,-1.287707321124856e-06
4084.35,-1.3056327874181713e-06
4085.25,-1.3141759443053031e-06
4086.15,-1.3260101019943987e-06
4087.05,-1.3426837355652023e-06
4087.95,-1.3668898785177551e-06
4088.85,-1.383700525340016e-06
4089.75,-1.3943020056331752e-06
4090.65,-1.4020347146063663e-06
4091.55,-1.4067558151215708e-06
4092.45,-1.3955349094120274e-06
4093.36,-1.3884828052578746e-06
4094.26,-1.3731068525806404e-06
4095.16,-1.3529752468286623e-06
4096.06,-1.3220611219094624e-06
4096.96,-1.2908830881149837e-06
4097.86,-1.257612717464455e-06
4098.76,-1.2202112021486532e-06
4099.66,-1.170798853545352e-06
4100.56,-1.1243446834211788e-06
4101.46,-1.0890802336735653e-06
4102.36,-1.0723167118436135e-06
4103.26,-1.0643033004753244e-06
4104.16,-1.0934182385748451e-06
4105.06,-1.133095165834924e-06
4105.96,-1.1762628757954122e-06
4106.86,-1.2269643884052522e-06
4107.76,-1.2642847511592676e-06
4108.66,-1.2958553971161454e-06
4109.56,-1.30781146990963e-06
4110.46,-1.3249364423225458e-06
4111.36,-1.333851241329699e-06
4112.26,-1.345051328503231e-06
4113.16,-1.363360894121039e-06
4114.06,-1.3797073615686586e-06
4114.96,-1.395601983196268e-06
4115.86,-1.4005518590115884e-06
4116.76,-1.4037830771225349e-06
4117.66,-1.3985822718022738e-06
4118.56,-1.396346960874674e-06
4119.46,-1.3892557264601753e-06
4120.36,-1.382773847499251e-06
4121.26,-1.3803051144161694e-06
4122.16,-1.3739387371435548e-06
4123.06,-1.3798021532692764e-06
4123.96,-1.3929873459694332e-06
4124.86,-1.3951149653242063e-06
4125.76,-1.4056178656404575e-06
4126.66,-1.400287408339753e-06
4127.56,-1.4023553529767202e-06
4128.46,-1.3956096991201003e-06
4129.36,-1.390600826688569e-06
4130.26,-1.3808837413982545e-06
4131.17,-1.372284359548163e-06
4132.06,-1.3513440028549237e-06
4132.97,-1.3446653010668343e-06
4133.87,-1.3446444056331534e-06
4134.77,-1.3521610743839875e-06
4135.67,-1.3653333227046074e-06
4136.57,-1.3942724824431529e-06
4137.47,-1.4183210012614205e-06
4138.37,-1.4344230058110473e-06
4139.27,-1.4531751114304958e-06
4140.17,-1.4568676609653581e-06
4141.07,-1.4494289020646748e-06
4141.97,-1.4306130471228498e-06
4142.87,-1.4009552571504532e-06
4143.77,-1.3826930293671595e-06
4144.67,-1.3733673549489647e-06
4145.57,-1.379848230074393e-06
4146.47,-1.3859126396924938e-06
4147.37,-1.4078449154565928e-06
4148.27,-1.4236703843878004e-06
4149.17,-1.4355896170347281e-06
4150.07,-1.4371435810814145e-06
4150.97,-1.4407790690832312e-06
4151.87,-1.4366684135896597e-06
4152.77,-1.4293153177147596e-06
4153.67,-1.4283476157252995e-06
4154.57,-1.4200337780020808e-06
4155.47,-1.4248899093844228e-06
4156.37,-1.4254986472399932e-06
4157.27,-1.433761151653782e-06
4158.17,-1.4410269786039517e-06
4159.07,-1.4536596637594138e-06
4159.97,-1.4794961735564765e-06
4160.87,-1.4883475193418158e-06
4161.77,-1.4951834774090104e-06
4162.67,-1.5066802224091457e-06
4163.57,-1.5189982261765677e-06
4164.47,-1.5159109841513298e-06
4165.37,-1.5176243982497291e-06
4166.27,-1.5138711039941782e-06
4167.17,-1.503321082197796e-06
4168.07,-1.4950140278982368e-06
4168.98,-1.4821712939806097e-06
4169.88,-1.4722871676702688e-06
4170.78,-1.4571061980956879e-06
4171.68,-1.4312579684783167e-06
4172.58,-1.4033750731766903e-06
4173.48,-1.395941838580534e-06
4174.38,-1.3830486268468993e-06
4175.28,-1.3819853817665833e-06
4176.18,-1.3875533933625478e-06
4177.08,-1.406560899204693e-06
4177.98,-1.4235368019299653e-06
4178.88,-1.4337432033210833e-06
4179.78,-1.4463369544333946e-06
4180.68,-1.463547554874598e-06
4181.58,-1.4694454691458459e-06
4182.48,-1.4774323100460025e-06
4183.38,-1.4777064836450988e-06
4184.28,-1.4763438055495843e-06
4185.18,-1.4821988042788886e-06
4186.08,-1.4703279180692314e-06
4186.98,-1.469323413036272e-06
4187.88,-1.4721986282576712e-06
4188.78,-1.4631940630418955e-06
4189.68,-1.4666651683997427e-06
4190.58,-1.478904458273757e-06
4191.48,-1.4941655691393506e-06
4192.38,-1.5063040817696952e-06
4193.28,-1.5204185368052873e-06
4194.18,-1.5162885871130052e-06
4195.08,-1.5179446573054149e-06
4195.98,-1.5030280894007971e-06
4196.88,-1.4913235314873865e-06
4197.78,-1.4669877941444169e-06
4198.68,-1.4538616420041354e-06
4199.58,-1.432766088936076e-06
4200.48,-1.4289661540945482e-06
4201.38,-1.424551221759482e-06
4202.28,-1.4283198650860244e-06
4203.18,-1.4354362951493936e-06
4204.08,-1.4482670092476979e-06
4204.98,-1.4600568472117191e-06
4205.88,-1.4775054488452954e-06
4206.79,-1.5005700381135816e-06
4207.69,-1.5180153189741955e-06
4208.59,-1.53289669247009e-06
4209.49,-1.5493359788083415e-06
4210.39,-1.5570802541714401e-06
4211.29,-1.5528852267783616e-06
4212.19,-1.5610295591407372e-06
4213.09,-1.5532958645058075e-06
4213.99,-1.5430093164373705e-06
4214.89,-1.5278543575162436e-06
4215.79,-1.517442439980048e-06
4216.69,-1.5066231154781054e-06
4217.59,-1.5075867497432914e-06
4218.49,-1.5198279866000506e-06
4219.39,-1.5302368989967011e-06
4220.29,-1.5447672410651268e-06
4221.19,-1.5480147185899445e-06
4222.09,-1.5428922969292175e-06
4222.99,-1.5178863220134719e-06
4223.89,-1.475967597131377e-06
4224.79,-1.4391751568494205e-06
4225.69,-1.3930428141256208e-06
4226.59,-1.355312106261198e-06
4227.49,-1.3372424117201467e-06
4228.39,-1.3522466266416951e-06
4229.29,-1.3816631831258613e-06
4230.19,-1.426004819984085e-06
4231.09,-1.4707474628410169e-06
4231.99,-1.5035825458270315e-06
4232.89,-1.5319301658833263e-06
4233.79,-1.534800522293455e-06
4234.69,-1.5315413849559648e-06
4235.59,-1.522685358767418e-06
4236.49,-1.513022367388861e-06
4237.39,-1.512804165541305e-06
4238.29,-1.509899775194535e-06
4239.19,-1.5221633557669531e-06
4240.09,-1.5402257940929912e-06
4240.99,-1.5533339772984285e-06
4241.89,-1.5705102553080403e-06
4242.79,-1.586608824072899e-06
4243.69,-1.598687341012974e-06
4244.59,-1.5955222212757904e-06
4245.5,-1.5902181818409176e-06
4246.4,-1.5881510269764353e-06
4247.3,-1.5639864398539365e-06
4248.2,-1.5576549752988323e-06
4249.1,-1.5437975200501713e-06
4250.0,-1.5239912912293507e-06
4250.9,-1.527365966002887e-06
4251.8,-1.532028712427214e-06
4252.7,-1.5482537515674787e-06
4253.6,-1.5567997157171135e-06
4254.5,-1.5658440366390328e-06
4255.4,-1.5672597601257644e-06
4256.3,-1.5761692192365747e-06
4257.2,-1.5800149356138109e-06
4258.1,-1.5753912140084914e-06
4259.0,-1.5749587323645183e-06
4259.9,-1.5661119827546542e-06
4260.8,-1.566638346776398e-06
4261.7,-1.5648140892753154e-06
4262.6,-1.5799412278256395e-06
4263.5,-1.6017570642680495e-06
4264.4,-1.6259731966648026e-06
4265.3,-1.6498300346468922e-06
4266.2,-1.663795754009446e-06
4267.1,-1.6593600696063314e-06
4268.0,-1.645445770412653e-06
4268.9,-1.6289691404794798e-06
4269.8,-1.595854846884021e-06
4270.7,-1.5635728920152714e-06
4271.6,-1.5193410914192236e-06
4272.5,-1.4979068128964243e-06
4273.4,-1.4852968721361365e-06
4274.3,-1.4924710465613752e-06
4275.2,-1.5044311079765475e-06
4276.1,-1.5287695190709415e-06
