wave,flux
3700.85,-4.739339686230617e-07
3701.75,-4.712228945809081e-07
3702.65,-4.595050101080866e-07
3703.55,-4.4220919865827736e-07
3704.45,-4.235967752308419e-07
3705.35,-4.0830539628836856e-07
3706.25,-4.005093218639211e-07
3707.15,-3.9924112365017324e-07
3708.05,-4.035751912348237e-07
3708.96,-4.0691708187014185e-07
3709.86,-4.1447764053492005e-07
3710.76,-4.206516146993157e-07
3711.66,-4.3019448319850077e-07
3712.56,-4.4558180311948117e-07
3713.46,-4.58571445373087e-07
3714.36,-4.7586543682469044e-07
3715.26,-4.908655127847405e-07
3716.16,-4.996173383900583e-07
3717.06,-4.995981623023104e-07
3717.96,-4.903217833470593e-07
3718.86,-4.690387188839377e-07
3719.76,-4.424289205494502e-07
3720.66,-4.177428176514458e-07
3721.56,-3.98008209387334e-07
3722.46,-3.898443470604027e-07
3723.36,-3.9818025387973657e-07
3724.26,-4.153813485076469e-07
3725.16,-4.391513972269925e-07
3726.06,-4.6231288834649117e-07
3726.96,-4.782829968760456e-07
3727.86,-4.877836718662884e-07
3728.76,-4.890253049977273e-07
3729.66,-4.906017909174412e-07
3730.56,-4.794594998658677e-07
3731.46,-4.6353016258380563e-07
3732.36,-4.391748488427515e-07
3733.26,-4.0963374704080055e-07
3734.16,-3.821749151186712e-07
3735.06,-3.625689593971851e-07
3735.96,-3.594258784884706e-07
3736.86,-3.6754070892919043e-07
3737.76,-3.898674295698597e-07
3738.66,-4.215657327831491e-07
3739.56,-4.5654659032456086e-07
3740.46,-4.850332867319734e-07
3741.36,-5.031225090318618e-07
3742.26,-5.112854389416729e-07
3743.16,-5.06649216907688e-07
3744.06,-4.984946144796231e-07
3744.96,-4.802108184069766e-07
3745.86,-4.594483609336079e-07
3746.76,-4.346333383441696e-07
3747.67,-4.121112801052776e-07
3748.57,-3.904441197954373e-07
3749.47,-3.7507143024004107e-07
3750.37,-3.7251271451827605e-07
3751.27,-3.8497220619264456e-07
3752.17,-4.105218856568378e-07
3753.07,-4.465764842745125e-07
3753.97,-4.812556588338173e-07
3754.87,-5.149714541082194e-07
3755.77,-5.332851202579713e-07
3756.67,-5.439103607703844e-07
3757.57,-5.384915862281798e-07
3758.47,-5.299436230040496e-07
3759.37,-5.222880505343721e-07
3760.27,-5.181698567215606e-07
3761.17,-5.255854150770153e-07
3762.07,-5.302581048064561e-07
3762.97,-5.381989343171483e-07
3763.87,-5.44160690469759e-07
3764.77,-5.440764593216705e-07
3765.67,-5.395911087119797e-07
3766.57,-5.265454365827804e-07
3767.47,-5.125971622995267e-07
3768.37,-4.951113753285104e-07
3769.27,-4.797203013310092e-07
3770.17,-4.65243530965955e-07
3771.07,-4.624607002531329e-07
3771.97,-4.6869299670440087e-07
3772.87,-4.850503495198502e-07
3773.77,-5.064434093986574e-07
3774.67,-5.300855268538773e-07
3775.57,-5.518176837021808e-07
3776.47,-5.727926687832883e-07
3777.37,-5.944713965649847e-07
3778.27,-6.112098612256493e-07
3779.17,-6.350680928200092e-07
3780.07,-6.483835117852068e-07
3780.97,-6.637062627109105e-07
3781.87,-6.764114104563429e-07
3782.77,-6.829834132160973e-07
3783.67,-6.838334954275592e-07
3784.57,-6.778467563480233e-07
3785.47,-6.707491334083509e-07
3786.38,-6.535471260681887e-07
3787.28,-6.389923248534456e-07
3788.18,-6.21013184923533e-07
3789.08,-6.063474807081801e-07
3789.98,-6.000843724309344e-07
3790.88,-5.871052013655501e-07
3791.78,-5.82025077421588e-07
3792.68,-5.702418909623974e-07
3793.58,-5.5117853129542e-07
3794.48,-5.280855221737531e-07
3795.38,-5.015299725309059e-07
3796.28,-4.764765820004536e-07
3797.18,-4.533577044531707e-07
3798.08,-4.3978542083588145e-07
3798.98,-4.3994369895016284e-07
3799.88,-4.5286729882260817e-07
3800.78,-4.787955391898912e-07
3801.68,-5.173960500395626e-07
3802.58,-5.588219782777201e-07
3803.48,-5.925806594174259e-07
3804.38,-6.209702764406869e-07
3805.28,-6.424421003535382e-07
3806.18,-6.571945592244004e-07
3807.08,-6.679697945331923e-07
3807.98,-6.741240674504572e-07
3808.88,-6.878196051814585e-07
3809.78,-6.979949862624834e-07
3810.68,-7.062575640828449e-07
3811.58,-7.066023272451974e-07
3812.48,-7.017601563282711e-07
3813.38,-6.93536485835248e-07
3814.28,-6.776597894794489e-07
3815.18,-6.647519670653686e-07
3816.08,-6.606842599493182e-07
3816.98,-6.602703543965e-07
3817.88,-6.64586255031411e-07
3818.78,-6.661305045611609e-07
3819.68,-6.62575467124692e-07
3820.58,-6.583045819520831e-07
3821.48,-6.507516662630265e-07
3822.38,-6.464957627551904e-07
3823.28,-6.343462671922314e-07
3824.18,-6.256381997736151e-07
3825.09,-6.120609074068639e-07
3825.99,-5.968852541738295e-07
3826.89,-5.814046601540713e-07
3827.79,-5.680412633784919e-07
3828.69,-5.558321253601377e-07
3829.59,-5.459282628647591e-07
3830.49,-5.29475807774879e-07
3831.39,-5.083859346084092e-07
3832.29,-4.83901746553447e-07
3833.19,-4.5630967187599376e-07
3834.09,-4.326429108880273e-07
3834.99,-4.124940696969978e-07
3835.89,-4.0069135473690533e-07
3836.79,-4.031069961158499e-07
3837.69,-4.128366214317246e-07
3838.59,-4.3185805726090907e-07
3839.49,-4.583313841780736e-07
3840.39,-4.872334132710002e-07
3841.29,-5.229153657766225e-07
3842.19,-5.585156740394673e-07
3843.09,-5.949676921151811e-07
3843.99,-6.263764954711441e-07
3844.89,-6.552981006737183e-07
3845.79,-6.776999124626235e-07
3846.69,-6.950351167383116e-07
3847.59,-7.110427785020565e-07
3848.49,-7.215972908621375e-07
3849.39,-7.288668887456231e-07
3850.29,-7.373309198894555e-07
3851.19,-7.434410098910603e-07
3852.09,-7.491756105131863e-07
3852.99,-7.577187093354802e-07
3853.89,-7.594851240385947e-07
3854.79,-7.603207159825771e-07
3855.69,-7.599849027903754e-07
3856.59,-7.49277904244922e-07
3857.49,-7.435539043334065e-07
3858.39,-7.334591451234536e-07
3859.29,-7.282343853764312e-07
3860.19,-7.304663242646863e-07
3861.09,-7.381007749833148e-07
3861.99,-7.518182667158204e-07
3862.9,-7.670003803275261e-07
3863.8,-7.820241542502256e-07
3864.7,-7.942717873024839e-07
3865.6,-8.031112442477527e-07
3866.5,-8.024428620165795e-07
3867.4,-8.011767196041769e-07
3868.3,-7.979342248263515e-07
3869.2,-7.935324180645796e-07
3870.1,-7.839560425036611e-07
3871.0,-7.702121500270847e-07
3871.9,-7.603700697321876e-07
3872.8,-7.44266021565589e-07
3873.7,-7.404993322062861e-07
3874.6,-7.396560871470996e-07
3875.5,-7.40686602817308e-07
3876.4,-7.393379816238717e-07
3877.3,-7.33404895239701e-07
3878.2,-7.235180146870141e-07
3879.1,-7.137508890002261e-07
3880.0,-7.072308934962797e-07
3880.9,-7.029164191915674e-07
3881.8,-6.939400407307432e-07
3882.7,-6.849127306104368e-07
3883.6,-6.719542271047736e-07
3884.5,-6.517602077679876e-07
3885.4,-6.237100251400746e-07
3886.3,-5.914227516310462e-07
3887.2,-5.60440267188396e-07
3888.1,-5.313207444356624e-07
3889.0,-5.151963371328873e-07
3889.9,-5.118213638942963e-07
3890.8,-5.23930502990467e-07
3891.7,-5.516519946538621e-07
3892.6,-5.833356483594968e-07
3893.5,-6.166926250287924e-07
3894.4,-6.45252604449916e-07
3895.3,-6.690278050743247e-07
3896.2,-6.919313527736779e-07
3897.1,-7.087429752192025e-07
3898.0,-7.268479244871739e-07
3898.9,-7.398985509808511e-07
3899.8,-7.5349702356675e-07
3900.7,-7.654389065853778e-07
3901.6,-7.733017264162553e-07
3902.51,-7.805395989716265e-07
3903.41,-7.852423946183261e-07
3904.31,-7.8669712295386e-07
3905.21,-7.894354966719909e-07
3906.11,-7.89077419229313e-07
3907.01,-8.000058987511248e-07
3907.91,-8.092851799602566e-07
3908.81,-8.274612048450897e-07
3909.71,-8.50594704619801e-07
3910.61,-8.673311595086018e-07
3911.51,-8.808169999240454e-07
3912.41,-8.907848880646278e-07
3913.31,-8.938495190926243e-07
3914.21,-8.884636318567482e-07
3915.11,-8.837883248833643e-07
3916.01,-8.751570046297494e-07
3916.91,-8.671092234112795e-07
3917.81,-8.626764275128226e-07
3918.71,-8.490877371956381e-07
3919.61,-8.443020158280674e-07
3920.51,-8.343659687348063e-07
3921.41,-8.315429901141843e-07
3922.31,-8.258629357146209e-07
3923.21,-8.274452473548758e-07
3924.11,-8.21943368618167e-07
3925.01,-8.150511017918705e-07
3925.91,-7.950663700421502e-07
3926.81,-7.714766269030612e-07
3927.71,-7.319606871856263e-07
3928.61,-6.897524924619812e-07
3929.51,-6.304894259177743e-07
3930.41,-5.708833638465378e-07
3931.31,-5.071706318510009e-07
3932.21,-4.4768925399386087e-07
3933.11,-3.9857590177717477e-07
3934.01,-3.6746688907555527e-07
3934.91,-3.635225896101231e-07
3935.81,-3.8400193082509766e-07
3936.71,-4.268494353683964e-07
3937.61,-4.849611935029195e-07
3938.51,-5.506229650520538e-07
3939.42,-6.170424465347081e-07
3940.32,-6.738591775525818e-07
3941.22,-7.191393577281472e-07
3942.12,-7.552817322441481e-07
3943.02,-7.768807057452068e-07
3943.92,-7.991423472514574e-07
3944.82,-8.149250531441635e-07
3945.72,-8.307133684656383e-07
3946.62,-8.429503079652727e-07
3947.52,-8.6092001805069e-07
3948.42,-8.706966158698692e-07
3949.32,-8.755991183546046e-07
3950.22,-8.871229491714293e-07
3951.12,-8.917700380116484e-07
3952.02,-8.945091138681e-07
3952.92,-8.9714265783516e-07
3953.82,-8.99002856473418e-07
3954.72,-8.967457648958894e-07
3955.62,-8.957883962355463e-07
3956.52,-8.842537617121749e-07
3957.42,-8.791093213825065e-07
3958.32,-8.685637799655678e-07
3959.22,-8.557828697605858e-07
3960.12,-8.347649021246939e-07
3961.02,-8.081435600654765e-07
3961.92,-7.740833205420421e-07
3962.82,-7.298873798990202e-07
3963.72,-6.841182862622037e-07
3964.62,-6.306438194763959e-07
3965.52,-5.710181300417168e-07
3966.42,-5.106656218536395e-07
3967.32,-4.534350375407667e-07
3968.22,-3.99823953427897e-07
3969.12,-3.6433070360629765e-07
3970.02,-3.5291649660126365e-07
3970.92,-3.648884742715063e-07
3971.82,-3.988665086872769e-07
3972.72,-4.516217940035213e-07
3973.62,-5.141653978611633e-07
3974.52,-5.775790362504223e-07
3975.42,-6.394772872114478e-07
3976.32,-6.982165612239897e-07
3977.22,-7.492591851507622e-07
3978.13,-7.978251213022094e-07
3979.03,-8.396431302615784e-07
3979.93,-8.691521108903694e-07
3980.83,-8.967708515604348e-07
3981.73,-9.128407876231572e-07
3982.63,-9.304353827767998e-07
3983.53,-9.423824147725019e-07
3984.43,-9.485287562491278e-07
3985.33,-9.624478032675044e-07
3986.23,-9.738101560504172e-07
3987.13,-9.881904646952832e-07
3988.03,-9.99609537701549e-07
3988.93,-1.0142205686357448e-06
3989.83,-1.0268477287568754e-06
3990.73,-1.0410408636356478e-06
3991.63,-1.053260895135165e-06
3992.53,-1.0600686727149611e-06
3993.43,-1.0653329935620749e-06
3994.33,-1.064080790298222e-06
3995.23,-1.0585397057365668e-06
3996.13,-1.0526978580410345e-06
3997.03,-1.0482216470012905e-06
3997.93,-1.0463808770350884e-06
3998.83,-1.0574509086136663e-06
3999.73,-1.0629004631461535e-06
4000.63,-1.0792452434882176e-06
4001.53,-1.0929172799787197e-06
4002.43,-1.102193052645642e-06
4003.33,-1.0975262802117656e-06
4004.23,-1.094224474647212e-06
4005.13,-1.0933314466533541e-06
4006.03,-1.0822048612422846e-06
4006.93,-1.077724500625413e-06
4007.83,-1.0839484791410101e-06
4008.73,-1.0973908828243854e-06
4009.63,-1.108774587685892e-06
4010.53,-1.119893227908256e-06
4011.43,-1.1356236917316654e-06
4012.33,-1.1466278558475938e-06
4013.23,-1.1513903400292317e-06
4014.13,-1.155714912831619e-06
4015.03,-1.1492611709079972e-06
4015.93,-1.1549734798951336e-06
4016.84,-1.1582399537284095e-06
4017.74,-1.1651699525478109e-06
4018.64,-1.16913220382351e-06
4019.54,-1.1770449632060283e-06
4020.44,-1.1816546853490401e-06
4021.34,-1.1834714468444054e-06
4022.24,-1.1838968098140691e-06
4023.14,-1.1802031412980127e-06
4024.04,-1.1843619805577515e-06
4024.94,-1.1858004267448134e-06
4025.84,-1.1936344513745607e-06
4026.74,-1.1983645697014576e-06
4027.64,-1.1979599594411537e-06
4028.54,-1.2007878247909506e-06
4029.44,-1.1906127933513397e-06
4030.34,-1.1772212413100179e-06
4031.24,-1.1552016186014894e-06
4032.14,-1.1397870977204263e-06
4033.04,-1.129056317452475e-06
4033.94,-1.1307488208487493e-06
4034.84,-1.1420378060019826e-06
4035.74,-1.1634203969871674e-06
4036.64,-1.187449784632877e-06
4037.54,-1.214758649523896e-06
4038.44,-1.2335259774778477e-06
4039.34,-1.2465213758656249e-06
4040.24,-1.244719487842829e-06
4041.14,-1.2420351717071608e-06
4042.04,-1.2286868190974062e-06
4042.94,-1.213403265920142e-06
4043.84,-1.198385648999747e-06
4044.74,-1.1713756970068302e-06
4045.64,-1.1535303450165994e-06
4046.54,-1.1534432013442856e-06
4047.44,-1.1600300866917176e-06
4048.34,-1.1820951855988244e-06
4049.24,-1.2002162577018017e-06
4050.14,-1.2168414512614808e-06
4051.04,-1.2332162383164614e-06
4051.94,-1.2388827766599751e-06
4052.84,-1.2326742516803646e-06
4053.74,-1.2301432735301304e-06
4054.65,-1.2203143542244669e-06
4055.55,-1.2087823188145505e-06
4056.45,-1.2085459063974368e-06
4057.35,-1.1998391747231154e-06
4058.25,-1.1988556017424175e-06
4059.15,-1.1997199846571777e-06
4060.05,-1.2130685675789763e-06
4060.95,-1.214004935613139e-06
4061.85,-1.2047096490486007e-06
4062.75,-1.1987986962452412e-06
4063.65,-1.1836837124783106e-06
4064.55,-1.1835477727615712e-06
4065.45,-1.1783792839026582e-06
4066.35,-1.1869926910457799e-06
4067.25,-1.1932156822257404e-06
4068.15,-1.2024415757633978e-06
4069.05,-1.2220236652273492e-06
4069.95,-1.2191712369761286e-06
4070.85,-1.2226084564167342e-06
4071.75,-1.2250638994213025e-06
4072.65,-1.2172123847711778e-06
4073.55,-1.2129682910072861e-06
4074.45,-1.2047045415498357e-06
4075.35,-1.1942436491800315e-06
4076.25,-1.1733921053872013e-06
4077.15,-1.1629194480507205e-06
4078.05,-1.154282434956139e-06
4078.95,-1.1529339009555082e-06
4079.85,-1.1659010300837536e-06
4080.75,-1.177463378496111e-06
4081.65,-1.2040903320034319e-06
4082.55,-1.213775728436935e-06
4083.45,-1.2277123470213722e-06
4084.35,-1.2261709868769518e-06
4085.25,-1.2261449932249025e-06
4086.15,-1.2338829400116906e-06
4087.05,-1.2406668035911574e-06
4087.95,-1.2517402019272966e-06
4088.85,-1.2628206558200351e-06
4089.75,-1.2741950804774013e-06
4090.65,-1.2676887605388744e-06
4091.55,-1.2580579487798137e-06
4092.45,-1.2489390369394245e-06
4093.36,-1.2335648595175107e-06
4094.26,-1.207603971963105e-06
4095.16,-1.1818462741183328e-06
4096.06,-1.1529349036654472e-06
4096.96,-1.1158731527630704e-06
4097.86,-1.0760859496723236e-06
4098.76,-1.0319942068484276e-06
4099.66,-9.819527466944698e-07
4100.56,-9.366001658562476e-07
4101.46,-8.995318360600807e-07
4102.36,-8.729984354456042e-07
4103.26,-8.774088585593516e-07
4104.16,-8.978522334184945e-07
4105.06,-9.431628848243224e-07
4105.96,-9.932233654322297e-07
4106.86,-1.0406463622011511e-06
4107.76,-1.0850294374998978e-06
4108.66,-1.1204101880238793e-06
4109.56,-1.1466168067216688e-06
4110.46,-1.167020693589629e-06
4111.36,-1.1845568846133513e-06
4112.26,-1.2083139303006354e-06
4113.16,-1.2308051853839988e-06
4114.06,-1.2526985774884669e-06
4114.96,-1.268543118394289e-06
4115.86,-1.279248243271544e-06
4116.76,-1.2889458669264863e-06
4117.66,-1.2968366049090915e-06
4118.56,-1.2946495225256192e-06
4119.46,-1.2936914564629826e-06
4120.36,-1.2873191592522406e-06
4121.26,-1.2922228519491077e-06
4122.16,-1.2977176997259947e-06
4123.06,-1.30448726641236e-06
4123.96,-1.310148658028878e-06
4124.86,-1.3211063969115064e-06
4125.76,-1.328690645236692e-06
4126.66,-1.3290819217995674e-06
4127.56,-1.3299161493409915e-06
4128.46,-1.328347943324232e-06
4129.36,-1.3230338246994177e-06
4130.26,-1.313392767934565e-06
4131.17,-1.3088111870525568e-06
4132.06,-1.3006685271707766e-06
4132.97,-1.2977015738576172e-06
4133.87,-1.3031100500940047e-06
4134.77,-1.313460578917931e-06
4135.67,-1.3289759155087927e-06
4136.57,-1.3432626482667535e-06
4137.47,-1.3754977159495604e-06
4138.37,-1.3942376025520888e-06
4139.27,-1.403736113838403e-06
4140.17,-1.4162950132851123e-06
4141.07,-1.4076727140043254e-06
4141.97,-1.393429013669559e-06
4142.87,-1.3718528456733316e-06
4143.77,-1.3543464423906406e-06
4144.67,-1.3493539634242732e-06
4145.57,-1.3512556574865678e-06
4146.47,-1.3693148613077368e-06
4147.37,-1.3785220262094601e-06
4148.27,-1.390159415050444e-06
4149.17,-1.4013464691014944e-06
4150.07,-1.4029430189712297e-06
4150.97,-1.3971634226530779e-06
4151.87,-1.3997568078453724e-06
4152.77,-1.3927428015749509e-06
4153.67,-1.3884081260539657e-06
4154.57,-1.3832435647658362e-06
4155.47,-1.3852588156776415e-06
4156.37,-1.3871303861088638e-06
4157.27,-1.3911499458433775e-06
4158.17,-1.4013264323619293e-06
4159.07,-1.4177677373947487e-06
4159.97,-1.4299215962906577e-06
4160.87,-1.4422526027136654e-06
4161.77,-1.459078879374518e-06
4162.67,-1.4705425060876645e-06
4163.57,-1.4678597087327973e-06
4164.47,-1.4781490722380876e-06
4165.37,-1.4761460079527461e-06
4166.27,-1.4706214226241673e-06
4167.17,-1.4658485423278948e-06
4168.07,-1.4657167590407513e-06
4168.98,-1.4498450578551098e-06
4169.88,-1.4461560423933418e-06
4170.78,-1.4238486001894473e-06
4171.68,-1.407878441461118e-06
4172.58,-1.3891360490939025e-06
4173.48,-1.3771008050655216e-06
4174.38,-1.360680426873217e-06
4175.28,-1.362813285284751e-06
4176.18,-1.3676500834314688e-06
4177.08,-1.383615212846878e-06
4177.98,-1.4006807279811016e-06
4178.88,-1.412236771777608e-06
4179.78,-1.4218881625304772e-06
4180.68,-1.4280186796343354e-06
4181.58,-1.4426312042119068e-06
4182.48,-1.4474489573835093e-06
4183.38,-1.4529537582967098e-06
4184.28,-1.4487680523756116e-06
4185.18,-1.4631029678959587e-06
4186.08,-1.4594634225675295e-06
4186.98,-1.4624596193101828e-06
4187.88,-1.4606950403394223e-06
4188.78,-1.4584840997062488e-06
4189.68,-1.4685979888065807e-06
4190.58,-1.4842265890121216e-06
4191.48,-1.4924087114539752e-06
4192.38,-1.5028870105478138e-06
4193.28,-1.5175076155669931e-06
4194.18,-1.5160946643151866e-06
4195.08,-1.5101930509158365e-06
4195.98,-1.494141110230701e-06
4196.88,-1.4841200858714718e-06
4197.78,-1.4625529376228816e-06
4198.68,-1.4487581774283888e-06
4199.58,-1.4352162224324269e-06
4200.48,-1.424611962556678e-06
4201.38,-1.4315131553922374e-06
4202.28,-1.443654896203074e-06
4203.18,-1.4521439339070525e-06
4204.08,-1.4643399125608108e-06
4204.98,-1.4732114430965972e-06
4205.88,-1.4850115461438776e-06
4206.79,-1.5143977651872164e-06
4207.69,-1.5260971218204007e-06
4208.59,-1.544409297528484e-06
4209.49,-1.552095543323614e-06
4210.39,-1.5584838307848175e-06
4211.29,-1.5646367105757041e-06
4212.19,-1.5609094356551493e-06
4213.09,-1.5540958620457977e-06
4213.99,-1.5549702148403768e-06
4214.89,-1.5424643704921363e-06
4215.79,-1.537125838196088e-06
4216.69,-1.5263229182521488e-06
4217.59,-1.5402918966115446e-06
4218.49,-1.5480520967200948e-06
4219.39,-1.5615069004345673e-06
4220.29,-1.5737058968990002e-06
4221.19,-1.581395265236751e-06
4222.09,-1.57574402908786e-06
4222.99,-1.5550599334861778e-06
4223.89,-1.523980094689276e-06
4224.79,-1.4854287426660841e-06
4225.69,-1.4526889549778951e-06
4226.59,-1.414335132207519e-06
4227.49,-1.4071537345226627e-06
4228.39,-1.4204635773545003e-06
4229.29,-1.4504981183182217e-06
4230.19,-1.4861179367316727e-06
4231.09,-1.534426924255706e-06
4231.99,-1.5581451469020592e-06
4232.89,-1.5715884843850729e-06
4233.79,-1.5715958042889023e-06
4234.69,-1.5661969986426683e-06
4235.59,-1.5590410184899052e-06
4236.49,-1.5558453601578704e-06
4237.39,-1.5475442801222143e-06
4238.29,-1.5462813419132306e-06
4239.19,-1.556080891979614e-06
4240.09,-1.5656434396954532e-06
4240.99,-1.5781927387371498e-06
4241.89,-1.5948800835223947e-06
4242.79,-1.6060935040956145e-06
4243.69,-1.6271176153520389e-06
4244.59,-1.6256938849724472e-06
4245.5,-1.6245503266930454e-06
4246.4,-1.621728899751464e-06
4247.3,-1.604540196326599e-06
4248.2,-1.5927673142787749e-06
4249.1,-1.5731879445643303e-06
4250.0,-1.5675608269609189e-06
4250.9,-1.5797415722938445e-06
4251.8,-1.5782468358798192e-06
4252.7,-1.5924227789537113e-06
4253.6,-1.6056435767941508e-06
4254.5,-1.605887255237033e-06
4255.4,-1.615935672066885e-06
4256.3,-1.6207228512412451e-06
4257.2,-1.6254960853195756e-06
4258.1,-1.6187816487819444e-06
4259.0,-1.6134590784586047e-06
4259.9,-1.615212675100237e-06
4260.8,-1.610574666278911e-06
4261.7,-1.6065575793271122e-06
4262.6,-1.6286113179755162e-06
4263.5,-1.6434440649286433e-06
4264.4,-1.6678569332396702e-06
4265.3,-1.6924054439953537e-06
4266.2,-1.6976578678440366e-06
4267.1,-1.6971090719903825e-06
4268.0,-1.692339185301995e-06
4268.9,-1.6649584905431086e-06
4269.8,-1.6425724409970577e-06
4270.7,-1.608908774546955e-06
4271.6,-1.5821208349957313e-06
4272.5,-1.5606471321771932e-06
4273.4,-1.557285868735178e-06
4274.3,-1.5603105185972435e-06
4275.2,-1.5696965238008777e-06
