wave,flux
3700.85,-6.749359081259266e-05
3701.75,-6.67231647252556e-05
3702.65,-6.458366333906429e-05
3703.55,-6.131305698537395e-05
3704.45,-5.806478485612119e-05
3705.35,-5.450197703345834e-05
3706.25,-5.200731429079261e-05
3707.15,-5.090664798643988e-05
3708.05,-5.087372420332184e-05
3708.96,-5.22803506953501e-05
3709.86,-5.453076586092623e-05
3710.76,-5.7924125970781335e-05
3711.66,-6.156700922380714e-05
3712.56,-6.591501461656877e-05
3713.46,-6.97490412954191e-05
3714.36,-7.216943865541488e-05
3715.26,-7.386206181492585e-05
3716.16,-7.386644722137666e-05
3717.06,-7.146479185228073e-05
3717.96,-6.776085692610614e-05
3718.86,-6.308774638133806e-05
3719.76,-5.791821288848158e-05
3720.66,-5.3480466780310005e-05
3721.56,-5.050189990869217e-05
3722.46,-5.053785064867227e-05
3723.36,-5.281570075981938e-05
3724.26,-5.712970890629111e-05
3725.16,-6.132846495327421e-05
3726.06,-6.466830443217315e-05
3726.96,-6.666367180189095e-05
3727.86,-6.787878980324867e-05
3728.76,-6.808647768706515e-05
3729.66,-6.775095274916059e-05
3730.56,-6.654075424830484e-05
3731.46,-6.417687484678325e-05
3732.36,-6.073692016121967e-05
3733.26,-5.6306777052489336e-05
3734.16,-5.1429956599304535e-05
3735.06,-4.8246195444024895e-05
3735.96,-4.653800985038958e-05
3736.86,-4.7161503426305544e-05
3737.76,-5.016019721339015e-05
3738.66,-5.5277448294352885e-05
3739.56,-6.0755837257019666e-05
3740.46,-6.589787803205529e-05
3741.36,-6.916761617917356e-05
3742.26,-7.022234446744451e-05
3743.16,-6.9210957592334e-05
3744.06,-6.660268478283303e-05
3744.96,-6.307987890555882e-05
3745.86,-5.925384400145578e-05
3746.76,-5.599762446116328e-05
3747.67,-5.3743194896910646e-05
3748.57,-5.185084597742301e-05
3749.47,-5.168337092004923e-05
3750.37,-5.38778149462847e-05
3751.27,-5.8364830659730926e-05
3752.17,-6.395478617875794e-05
3753.07,-7.093325578361115e-05
3753.97,-7.755474740182395e-05
3754.87,-8.233498107032757e-05
3755.77,-8.48046843140219e-05
3756.67,-8.431491196373766e-05
3757.57,-8.193561546934648e-05
3758.47,-7.816744965144588e-05
3759.37,-7.52922632889063e-05
3760.27,-7.424878336132891e-05
3761.17,-7.485595888366468e-05
3762.07,-7.621227706595447e-05
3762.97,-7.828696654530191e-05
3763.87,-7.97852377244929e-05
3764.77,-8.071226208650493e-05
3765.67,-8.093715283804122e-05
3766.57,-8.075886827360182e-05
3767.47,-8.14535668754006e-05
3768.37,-8.162195222844521e-05
3769.27,-8.28444283696253e-05
3770.17,-8.472533907426769e-05
3771.07,-8.655734368700291e-05
3771.97,-8.94995678002656e-05
3772.87,-9.30161308919718e-05
3773.77,-9.653726679392648e-05
3774.67,-9.947367074197465e-05
3775.57,-0.00010182352536854391
3776.47,-0.00010410405244376865
3777.37,-0.00010525523946025616
3778.27,-0.00010757290946354922
3779.17,-0.0001101372438471627
3780.07,-0.00011284286166334059
3780.97,-0.00011541760993958394
3781.87,-0.00011785924317815167
3782.77,-0.00011919960400022249
3783.67,-0.00011960419013619665
3784.57,-0.00011853808426328779
3785.47,-0.00011553565186762272
3786.38,-0.00011111454633833553
3787.28,-0.0001071817837659502
3788.18,-0.00010243669634702409
3789.08,-0.00010008681744945863
3789.98,-9.861800354104846e-05
3790.88,-9.805273279792827e-05
3791.78,-9.807165368326254e-05
3792.68,-9.811358614020221e-05
3793.58,-9.740291969628159e-05
3794.48,-9.507972480966574e-05
3795.38,-9.274652361261686e-05
3796.28,-9.034334511587135e-05
3797.18,-8.771417145065734e-05
3798.08,-8.666580281236612e-05
3798.98,-8.710182213920343e-05
3799.88,-8.98952204521526e-05
3800.78,-9.528616198017731e-05
3801.68,-0.00010221012129481898
3802.58,-0.00011031771434197547
3803.48,-0.00011698038872950099
3804.38,-0.00012203947487311288
3805.28,-0.0001246280839600308
3806.18,-0.00012607828184654172
3807.08,-0.0001258690606164331
3807.98,-0.0001256177358469536
3808.88,-0.00012726293562815598
3809.78,-0.0001293033915737696
3810.68,-0.0001304385673942413
3811.58,-0.0001303721427804063
3812.48,-0.00012812219625647162
3813.38,-0.00012371978378260327
3814.28,-0.00011855128637106801
3815.18,-0.00011368818596674717
3816.08,-0.00010973358121032641
3816.98,-0.00010811781525921289
3817.88,-0.00010757329899451297
3818.78,-0.00010661841321706107
3819.68,-0.00010584748504601924
3820.58,-0.00010447117161406956
3821.48,-0.00010292782939070875
3822.38,-0.00010251658108841552
3823.28,-0.00010109145706206347
3824.18,-9.968362583709603e-05
3825.09,-9.695484452213446e-05
3825.99,-9.41078200204147e-05
3826.89,-9.147520645750646e-05
3827.79,-9.022160050347101e-05
3828.69,-8.997037761224056e-05
3829.59,-9.018373737062687e-05
3830.49,-8.999852458491534e-05
3831.39,-8.906343440114301e-05
3832.29,-8.732254816827254e-05
3833.19,-8.514862436635332e-05
3834.09,-8.336457009254325e-05
3834.99,-8.277255509312786e-05
3835.89,-8.265551768042743e-05
3836.79,-8.397106046812344e-05
3837.69,-8.528577679446269e-05
3838.59,-8.692662461053769e-05
3839.49,-8.964554336154402e-05
3840.39,-9.361446495525941e-05
3841.29,-9.967512080633718e-05
3842.19,-0.00010811159353621102
3843.09,-0.00011741360017151684
3843.99,-0.00012586566010997004
3844.89,-0.00013350113465264213
3845.79,-0.00013949734747558838
3846.69,-0.00014417475719965455
3847.59,-0.0001454439631400909
3848.49,-0.00014694658984104334
3849.39,-0.00014725768436271776
3850.29,-0.00014791268297740072
3851.19,-0.00014816510633654188
3852.09,-0.0001483443626663519
3852.99,-0.00014962039355974577
3853.89,-0.00014957116729824233
3854.79,-0.00014812549734244995
3855.69,-0.0001463403829814496
3856.59,-0.00014274098030625024
3857.49,-0.00013878682720166622
3858.39,-0.00013449722396107822
3859.29,-0.00013212693125168684
3860.19,-0.00013266833660980815
3861.09,-0.0001349137579108465
3861.99,-0.00014117768557167723
3862.9,-0.0001493927828111562
3863.8,-0.00015696464310924635
3864.7,-0.00016199448568115837
3865.6,-0.00016588836269485844
3866.5,-0.00016708980335418275
3867.4,-0.00016598866786145318
3868.3,-0.00016491031287324464
3869.2,-0.00016258607550769053
3870.1,-0.0001589142306023841
3871.0,-0.00015519617061425815
3871.9,-0.00015231468924323103
3872.8,-0.00015139133871662692
3873.7,-0.0001535455966597844
3874.6,-0.00015820819547483447
3875.5,-0.000162530498306928
3876.4,-0.00016566748048126706
3877.3,-0.00016586906209725122
3878.2,-0.00016546026682218544
3879.1,-0.00016364842429149486
3880.0,-0.0001621544536942886
3880.9,-0.00016278213595138238
3881.8,-0.00016297842713023375
3882.7,-0.000164714765194241
3883.6,-0.00016456398779099148
3884.5,-0.0001642596297122182
3885.4,-0.00016140092734698313
3886.3,-0.0001589810530493831
3887.2,-0.0001549264038044825
3888.1,-0.0001529891970175175
3889.0,-0.00015461525580704344
3889.9,-0.00015875437554180164
3890.8,-0.00016696710781163363
3891.7,-0.00017704284813215707
3892.6,-0.00018760264069996057
3893.5,-0.00019553571675436465
3894.4,-0.00020142272195733588
3895.3,-0.00020652073963459263
3896.2,-0.0002098794756461953
3897.1,-0.00021284048060926994
3898.0,-0.00021449771291269884
3898.9,-0.00021807307770396332
3899.8,-0.00022053101524147667
3900.7,-0.0002232236355337608
3901.6,-0.00022339487545655815
3902.51,-0.0002232290465884966
3903.41,-0.00022185989285361413
3904.31,-0.0002208861371305052
3905.21,-0.0002201635233972302
3906.11,-0.00022069467029879172
3907.01,-0.00022530941405310922
3907.91,-0.00023228258091997876
3908.81,-0.00024029529800918714
3909.71,-0.0002510625300245671
3910.61,-0.0002601204405365342
3911.51,-0.0002685417988677678
3912.41,-0.0002715553681661858
3913.31,-0.0002753944288133087
3914.21,-0.0002753291076143449
3915.11,-0.00027459093783568185
3916.01,-0.00027219343050045977
3916.91,-0.0002687244207561095
3917.81,-0.00026429291612928984
3918.71,-0.00025816564765893834
3919.61,-0.00025241953260484357
3920.51,-0.00024546322026929176
3921.41,-0.00024051087866567748
3922.31,-0.00023652671348944255
3923.21,-0.0002340773491763842
3924.11,-0.00023273377627654779
3925.01,-0.0002305243407111343
3925.91,-0.0002242547879072108
3926.81,-0.00021336789438674653
3927.71,-0.000198580652361857
3928.61,-0.00018088308896520219
3929.51,-0.00016143573486537835
3930.41,-0.00014180668785789498
3931.31,-0.00012396752858240533
3932.21,-0.00010774147163069999
3933.11,-9.597476176707204e-05
3934.01,-8.952833885736388e-05
3934.91,-8.922171533354695e-05
3935.81,-9.549602092860635e-05
3936.71,-0.00010850376547400956
3937.61,-0.00012598792513650894
3938.51,-0.00014719040921387956
3939.42,-0.0001698400610115868
3940.32,-0.00018963181151926664
3941.22,-0.00020709132666410762
3942.12,-0.00022169760759028345
3943.02,-0.00023252862518130619
3943.92,-0.0002427890743428016
3944.82,-0.00025509124633192636
3945.72,-0.00026586393016513467
3946.62,-0.00027833137397666364
3947.52,-0.0002927908498174749
3948.42,-0.0003056932118181949
3949.32,-0.0003164224708763308
3950.22,-0.00032668373729545665
3951.12,-0.00033345549769860604
3952.02,-0.00033963409165669407
3952.92,-0.0003459471349248983
3953.82,-0.00035037462744865334
3954.72,-0.0003510105158082705
3955.62,-0.0003527957380953968
3956.52,-0.00035276879032693535
3957.42,-0.0003515391110478357
3958.32,-0.00034580117119476894
3959.22,-0.00034077659324785746
3960.12,-0.00033055905794939617
3961.02,-0.000316224484675783
3961.92,-0.0002961989499066257
3962.82,-0.00027645836879333413
3963.72,-0.0002525582813948189
3964.62,-0.00023054923315170105
3965.52,-0.00020816993524314055
3966.42,-0.00018564373037998009
3967.32,-0.00016453553449208275
3968.22,-0.00014660067756247657
3969.12,-0.00013629431241099683
3970.02,-0.00013588864173650971
3970.92,-0.00014548682109736985
3971.82,-0.0001637223348199129
3972.72,-0.00018846458502473103
3973.62,-0.00021941869641927393
3974.52,-0.00025209768415481457
3975.42,-0.00028246150326363803
3976.32,-0.00031332891933851534
3977.22,-0.0003438106884407389
3978.13,-0.00037312554608001
3979.03,-0.0003974919336186614
3979.93,-0.00041945367842071476
3980.83,-0.00043565809498682836
3981.73,-0.00044762839748657717
3982.63,-0.000456530495607003
3983.53,-0.0004617055636125766
3984.43,-0.0004692857771938158
3985.33,-0.00047688851927703323
3986.23,-0.0004828845975227707
3987.13,-0.0004952633499548429
3988.03,-0.0005063983913015438
3988.93,-0.0005149010049934666
3989.83,-0.0005220026894483962
3990.73,-0.0005310987749732317
3991.63,-0.0005369689340078631
3992.53,-0.0005467273999515673
3993.43,-0.000553868101460542
3994.33,-0.0005557832678237266
3995.23,-0.0005542626696789457
3996.13,-0.0005525470333060808
3997.03,-0.0005496281029888849
3997.93,-0.0005530037923113906
3998.83,-0.0005606333797980931
3999.73,-0.0005723427304687626
4000.63,-0.0005853429163022132
4001.53,-0.0006014410194803387
4002.43,-0.0006082629358579273
4003.33,-0.0006108491654880086
4004.23,-0.0006093812843922721
4005.13,-0.0006015512525997307
4006.03,-0.0005958748371540583
4006.93,-0.0005944507882785098
4007.83,-0.000599499765266596
4008.73,-0.0006112165775839075
4009.63,-0.0006268787117631599
4010.53,-0.0006415467776108286
4011.43,-0.0006568011706937385
4012.33,-0.0006662743704897877
4013.23,-0.000676870273477139
4014.13,-0.0006869414405857004
4015.03,-0.0006936178592041015
4015.93,-0.0006984863075396423
4016.84,-0.0007017426048375324
4017.74,-0.0007064587850873124
4018.64,-0.0007152095529681461
4019.54,-0.0007223877712764752
4020.44,-0.0007260659917131002
4021.34,-0.0007310005410098387
4022.24,-0.0007387600232806582
4023.14,-0.0007399988298654467
4024.04,-0.0007436304657857304
4024.94,-0.0007475129954058083
4025.84,-0.0007562136169137582
4026.74,-0.0007634836348827209
4027.64,-0.0007732508769283784
4028.54,-0.0007777158667083411
4029.44,-0.000769824019496697
4030.34,-0.0007579210434260959
4031.24,-0.0007384678244268652
4032.14,-0.000720549007124182
4033.04,-0.0007106802633024109
4033.94,-0.0007118571001792259
4034.84,-0.0007270293395789185
4035.74,-0.000747119261223221
4036.64,-0.0007802218647232643
4037.54,-0.0008163112218961627
4038.44,-0.0008411425573838534
4039.34,-0.0008605514289379607
4040.24,-0.0008699096957648126
4041.14,-0.0008686658541684428
4042.04,-0.0008579123354153662
4042.94,-0.0008453562718314073
4043.84,-0.0008231424643718373
4044.74,-0.0007934786060820217
4045.64,-0.0007752033538613096
4046.54,-0.0007656663623675018
4047.44,-0.0007753511847953873
4048.34,-0.0008025026454788417
4049.24,-0.0008410345429607951
4050.14,-0.0008763068397294962
4051.04,-0.0009057768161986788
4051.94,-0.0009212926305787691
4052.84,-0.0009266783098368633
4053.74,-0.0009277219646297699
4054.65,-0.0009195156039933651
4055.55,-0.0009133085096455504
4056.45,-0.0009060079555768601
4057.35,-0.0008988642413589747
4058.25,-0.0009037517365582741
4059.15,-0.0009079759521672086
4060.05,-0.0009208602207717082
4060.95,-0.0009167409288283145
4061.85,-0.0009203741708906939
4062.75,-0.0009111244602517037
4063.65,-0.0009039679074249182
4064.55,-0.0008914558255042974
4065.45,-0.0008991319249419599
4066.35,-0.0009115412034502794
4067.25,-0.0009350069713745847
4068.15,-0.0009657736173056479
4069.05,-0.000989707459348009
4069.95,-0.0010037535465418413
4070.85,-0.0010137777133491755
4071.75,-0.0010174003234664692
4072.65,-0.0010171264167249466
4073.55,-0.0010241172139709065
4074.45,-0.001022909198773678
4075.35,-0.0010199005655493207
4076.25,-0.0010124523033267004
4077.15,-0.0010059389945564386
4078.05,-0.0010059445654725882
4078.95,-0.0010148021081122264
4079.85,-0.0010471805669637277
4080.75,-0.001084247695555631
4081.65,-0.0011183130046006164
4082.55,-0.0011475265067495165
4083.45,-0.0011748918556310486
4084.35,-0.0011821132768665514
4085.25,-0.0011981836022201134
4086.15,-0.001216691710270731
4087.05,-0.0012408257141550555
4087.95,-0.0012749170874579027
4088.85,-0.0013045718505392925
4089.75,-0.001327679924811284
4090.65,-0.0013415026086317455
4091.55,-0.0013478786200925301
4092.45,-0.0013485089831274184
4093.36,-0.0013378147642219397
4094.26,-0.0013211342680975384
4095.16,-0.0013046157591305992
4096.06,-0.00128641529233759
4096.96,-0.0012575824659896396
4097.86,-0.0012296864321899423
4098.76,-0.0012032240043954527
4099.66,-0.0011666721673169796
4100.56,-0.0011359773670135272
4101.46,-0.0011084436283335752
4102.36,-0.001097481951466543
4103.26,-0.0011104528103160676
4104.16,-0.0011453402379805174
4105.06,-0.0011980757506941113
4105.96,-0.001258603698011535
4106.86,-0.001310017618202463
4107.76,-0.0013627751795571121
4108.66,-0.0013900079323900926
4109.56,-0.0014162509623989981
4110.46,-0.0014283560154893001
4111.36,-0.0014461001931427293
4112.26,-0.0014650920248386837
4113.16,-0.0014878575307473827
4114.06,-0.0015228741523956421
4114.96,-0.0015524922073119612
4115.86,-0.0015744970080436647
4116.76,-0.0015913699798108583
4117.66,-0.0016015804055145755
4118.56,-0.001600703446596942
4119.46,-0.001592720377920161
4120.36,-0.0015933037871877207
4121.26,-0.001600297585323491
4122.16,-0.0016044666925525118
4123.06,-0.0016246418328868392
4123.96,-0.001645703158949129
4124.86,-0.0016695854873614907
4125.76,-0.0016879500999642837
4126.66,-0.001689078731121676
4127.56,-0.0016873315874505117
4128.46,-0.0016941525372914754
4129.36,-0.0016793652858032805
4130.26,-0.001669506825952165
4131.17,-0.0016596464019161669
4132.06,-0.001644592666272751
4132.97,-0.0016396715594601409
4133.87,-0.0016585300410713079
4134.77,-0.0016738831314426783
4135.67,-0.0017290465611980881
4136.57,-0.00177614169334102
4137.47,-0.0018338585474501588
4138.37,-0.0018875115924545283
4139.27,-0.0019170830605341712
4140.17,-0.0019298762431652027
4141.07,-0.0019191158685330772
4141.97,-0.001886187044662463
4142.87,-0.001854794936337566
4143.77,-0.0018270288040635751
4144.67,-0.00181575659401169
4145.57,-0.001836614405739872
4146.47,-0.0018587985361771223
4147.37,-0.0019092904820872793
4148.27,-0.0019436390342637666
4149.17,-0.00197892877579048
4150.07,-0.002008076670802224
4150.97,-0.0020127913050908062
4151.87,-0.0020198810159869542
4152.77,-0.0020124492362454524
4153.67,-0.002021140520753937
4154.57,-0.002022487307426695
4155.47,-0.00203247965693212
4156.37,-0.0020597865870104625
4157.27,-0.0020820515354021407
4158.17,-0.002119220358310176
4159.07,-0.002174414328697619
4159.97,-0.0022273330336544067
4160.87,-0.00228130081743452
4161.77,-0.0023278057706447516
4162.67,-0.002367468174888425
4163.57,-0.0024002370313017797
4164.47,-0.0024125598723948403
4165.37,-0.002424364465842655
4166.27,-0.002413411435358806
4167.17,-0.00240776086808387
4168.07,-0.002404657870504277
4168.98,-0.0023950531949742506
4169.88,-0.002393864703082301
4170.78,-0.0023748275990766476
4171.68,-0.002348425535459602
4172.58,-0.0023243544323441343
4173.48,-0.002301037970284311
4174.38,-0.0022930888643272087
4175.28,-0.0023105949162303668
4176.18,-0.0023395985955284525
4177.08,-0.0023754347419940335
4177.98,-0.0024219285904061383
4178.88,-0.0024748418277423983
4179.78,-0.002508778226040625
4180.68,-0.00255572733687095
4181.58,-0.002596126587821246
4182.48,-0.0026266784826471197
4183.38,-0.0026605997809742055
4184.28,-0.0026821856239887852
4185.18,-0.0027162527068361124
4186.08,-0.002725681824397351
4186.98,-0.00272972557969828
4187.88,-0.002744976953347695
4188.78,-0.0027668080178470545
4189.68,-0.002794650094376547
4190.58,-0.0028443136135552233
4191.48,-0.0028994967769904057
4192.38,-0.0029561597442930598
4193.28,-0.003003229348113843
4194.18,-0.0030201986806549295
4195.08,-0.003014559587284507
4195.98,-0.003008044587636485
4196.88,-0.002962051285699196
4197.78,-0.002927947753059078
4198.68,-0.002908396481213714
4199.58,-0.0028756572876085453
4200.48,-0.0028820767274151285
4201.38,-0.0029037701143891895
4202.28,-0.002943879645644471
4203.18,-0.003000723958911751
4204.08,-0.0030806648706860687
4204.98,-0.003170422801736991
4205.88,-0.0032579534347937254
4206.79,-0.003349766163364066
4207.69,-0.003431836754587031
4208.59,-0.003504213360447643
4209.49,-0.00355986357857124
4210.39,-0.0036083478921144696
4211.29,-0.003639937423586424
4212.19,-0.0036602606230780534
4213.09,-0.0036542999788233875
4213.99,-0.0036646902323525187
4214.89,-0.003654214606334137
4215.79,-0.003651635519522001
4216.69,-0.0036632838855594303
4217.59,-0.003735968600871261
4218.49,-0.0038051231262069937
4219.39,-0.003906642913418982
4220.29,-0.003977570491758412
4221.19,-0.004020794935214572
4222.09,-0.004013727791700276
4222.99,-0.003939526746251371
4223.89,-0.0038097980448095403
4224.79,-0.0036473830288472537
4225.69,-0.0034866256202988753
4226.59,-0.0033589743217557456
4227.49,-0.0033248910054937755
4228.39,-0.0034039915322616834
4229.29,-0.003546933753633546
4230.19,-0.0037549190420312424
4231.09,-0.003974534295911133
4231.99,-0.004149869033712887
4232.89,-0.004242767904169587
4233.79,-0.004315194940170306
4234.69,-0.0043201926088762485
4235.59,-0.00432545006026617
4236.49,-0.004333883802201354
4237.39,-0.004347608142613454
4238.29,-0.004376549789493539
4239.19,-0.004444066250437828
4240.09,-0.00453378532394232
4240.99,-0.00463879780849699
4241.89,-0.004771506049402133
4242.79,-0.004895055784179091
4243.69,-0.0050070257151422085
4244.59,-0.00508943329045995
4245.5,-0.005140761041924075
4246.4,-0.005154742607811549
4247.3,-0.005111772780198593
4248.2,-0.005046422215322283
4249.1,-0.00497933753050753
4250.0,-0.004941842713690027
4250.9,-0.004928563362347968
4251.8,-0.004946895292436966
4252.7,-0.0050002985206049465
4253.6,-0.005080725077624416
4254.5,-0.005159582670148272
4255.4,-0.005227946903587384
4256.3,-0.005297725497706918
4257.2,-0.005350616880545296
4258.1,-0.0054057528112803725
4259.0,-0.005436732212525688
4259.9,-0.005420423482993994
4260.8,-0.005446541279946909
4261.7,-0.005522237754592463
4262.6,-0.0056528846171711306
4263.5,-0.005840823841012262
4264.4,-0.006054969158703274
4265.3,-0.006215366426509842
4266.2,-0.00636269142997626
4267.1,-0.006373122824979955
4268.0,-0.006350719884493127
4268.9,-0.006262324524150933
4269.8,-0.006077619358533398
4270.7,-0.00588724358246086
4271.6,-0.005722974431236113
4272.5,-0.0056072353344819225
4273.4,-0.005566151186668998
4274.3,-0.005623861362750522
4275.2,-0.005786365573072679
4276.1,-0.0060241528012147305
4277.0,-0.0062762360761894195
4277.9,-0.006531855541991761
4278.8,-0.006725844073312838
4279.7,-0.0068722124844632195
4280.6,-0.006954380325565872
4281.5,-0.007029195352657639
4282.4,-0.0070453419938012515
