wave,flux
3700.85,-0.0001165274388318196
3701.75,-0.00011549873814176716
3702.65,-0.00011336031659016469
3703.55,-0.00010941892335846593
3704.45,-0.00010484715683385293
3705.35,-0.00010153871793045635
3706.25,-9.923644249764424e-05
3707.15,-9.945012324590043e-05
3708.05,-0.00010039339992769433
3708.96,-0.0001025787290078557
3709.86,-0.00010477083449477225
3710.76,-0.00010727294127362888
3711.66,-0.00011092858003180104
3712.56,-0.00011485293369163997
3713.46,-0.00011932980201972478
3714.36,-0.00012404135639311538
3715.26,-0.00012854428715485707
3716.16,-0.00013001542636837098
3717.06,-0.0001300026706800553
3717.96,-0.00012775849396698546
3718.86,-0.00012201195197340056
3719.76,-0.00011551087672173525
3720.66,-0.00010908782220173337
3721.56,-0.00010430882780774847
3722.46,-0.00010322053450900279
3723.36,-0.00010623685039980945
3724.26,-0.00011152645417782056
3725.16,-0.00011783397293822808
3726.06,-0.00012440793251470173
3726.96,-0.00012859943508028844
3727.86,-0.00013152144568349117
3728.76,-0.00013225607307630258
3729.66,-0.00013199552681691806
3730.56,-0.00013104882778976356
3731.46,-0.00012778498884102635
3732.36,-0.00012225081799316072
3733.26,-0.00011500440707125039
3734.16,-0.00010778948922087813
3735.06,-0.00010323293293076642
3735.96,-0.00010117517891667212
3736.86,-0.00010366077078502731
3737.76,-0.00010896195532327638
3738.66,-0.00011748608916564415
3739.56,-0.00012643535008522935
3740.46,-0.00013427376661983203
3741.36,-0.00014023475271711595
3742.26,-0.00014335453432768406
3743.16,-0.00014234552755270716
3744.06,-0.00013972325704343611
3744.96,-0.00013476017392657138
3745.86,-0.00013025550568983798
3746.76,-0.0001245034378465719
3747.67,-0.00011928523325078729
3748.57,-0.00011470321209587339
3749.47,-0.00011190144255463967
3750.37,-0.00011306398133808559
3751.27,-0.00011814275448433142
3752.17,-0.00012720716026641966
3753.07,-0.00013776052678923233
3753.97,-0.00014829931137917858
3754.87,-0.000157335305915242
3755.77,-0.00016315344680172198
3756.67,-0.00016500841841768512
3757.57,-0.000162942366676141
3758.47,-0.0001596461782464176
3759.37,-0.0001570084761156539
3760.27,-0.00015607509685098566
3761.17,-0.00015742195992970282
3762.07,-0.00016081333059969128
3762.97,-0.00016474252347310718
3763.87,-0.00016807259963870573
3764.77,-0.00017016435885302425
3765.67,-0.000169910523822878
3766.57,-0.00016936185717559277
3767.47,-0.00016771443853490713
3768.37,-0.0001638162078696543
3769.27,-0.0001608326333096902
3770.17,-0.00015992511603009314
3771.07,-0.0001601979981973108
3771.97,-0.00016294145579959934
3772.87,-0.00016858591721484158
3773.77,-0.0001751456566143169
3774.67,-0.00018217632287217722
3775.57,-0.00018931837464681426
3776.47,-0.00019435209646933855
3777.37,-0.00019928601095409423
3778.27,-0.00020530951847551367
3779.17,-0.00021010847515244964
3780.07,-0.0002162643609494334
3780.97,-0.00022161559953086358
3781.87,-0.00022551906708052482
3782.77,-0.00022723085425989815
3783.67,-0.00022802229618219388
3784.57,-0.0002266207660365658
3785.47,-0.00022523228770616628
3786.38,-0.0002208814951235047
3787.28,-0.00021623056489122864
3788.18,-0.00021122083327044646
3789.08,-0.00020986917417533838
3789.98,-0.00020832726793910646
3790.88,-0.00020753115610377206
3791.78,-0.00020720505752530976
3792.68,-0.0002048452988639278
3793.58,-0.00020253689077987175
3794.48,-0.0001975556947327456
3795.38,-0.000190447123656352
3796.28,-0.00018337623086397566
3797.18,-0.00017787716942420655
3798.08,-0.0001744296269562609
3798.98,-0.00017419592117570192
3799.88,-0.00018013796679777142
3800.78,-0.00019081312340658
3801.68,-0.00020450286477723668
3802.58,-0.00021876402577535262
3803.48,-0.0002318160997632645
3804.38,-0.00024112097624381267
3805.28,-0.0002474901661970828
3806.18,-0.0002511640051532591
3807.08,-0.0002544553345846019
3807.98,-0.00025626803676180663
3808.88,-0.00025932964607059886
3809.78,-0.0002622641999414285
3810.68,-0.000265713279817217
3811.58,-0.00026473952462334596
3812.48,-0.00026301970989829246
3813.38,-0.00025804228661334254
3814.28,-0.00025317546851139603
3815.18,-0.0002483156224147053
3816.08,-0.0002460568250191492
3816.98,-0.00024563943523024125
3817.88,-0.0002475238725662866
3818.78,-0.0002481383664708166
3819.68,-0.0002475980039794743
3820.58,-0.00024778342355140674
3821.48,-0.00024764857026089986
3822.38,-0.0002452955914094887
3823.28,-0.0002439107457202465
3824.18,-0.0002420157325091279
3825.09,-0.00023829678170762667
3825.99,-0.00023368312252560234
3826.89,-0.00022898449705403034
3827.79,-0.00022766866267564552
3828.69,-0.0002244953492343569
3829.59,-0.00022385022790226067
3830.49,-0.0002210011008078369
3831.39,-0.00021545941777478716
3832.29,-0.00020854540756240825
3833.19,-0.00019951405195124788
3834.09,-0.00019181662779698292
3834.99,-0.000186355859273347
3835.89,-0.00018370924594040771
3836.79,-0.00018497938311130979
3837.69,-0.0001904739949956949
3838.59,-0.00019707652739975407
3839.49,-0.0002070892523512932
3840.39,-0.00021924255526619758
3841.29,-0.00023428430107609631
3842.19,-0.0002495806214795277
3843.09,-0.0002666549289105483
3843.99,-0.0002812487661412754
3844.89,-0.000294111857179805
3845.79,-0.00030441736780457474
3846.69,-0.0003113684071529878
3847.59,-0.00031806654181604086
3848.49,-0.0003224652789579739
3849.39,-0.00032555218624199893
3850.29,-0.000326239892016811
3851.19,-0.0003304527410118465
3852.09,-0.00033379267892590786
3852.99,-0.00033727780102863104
3853.89,-0.00034070924667162477
3854.79,-0.00034032840477048323
3855.69,-0.00033874802438703904
3856.59,-0.00033403955108200875
3857.49,-0.0003284293684112353
3858.39,-0.0003233845889406875
3859.29,-0.00032222501552501924
3860.19,-0.00032107844965588314
3861.09,-0.0003256757606948024
3861.99,-0.0003350040678504118
3862.9,-0.00034647100926239825
3863.8,-0.0003576986075831693
3864.7,-0.0003660323611263023
3865.6,-0.0003726300083301401
3866.5,-0.00037541281883937374
3867.4,-0.00037734183392210054
3868.3,-0.00037930074934079867
3869.2,-0.00037826589500418266
3870.1,-0.00037505765764028076
3871.0,-0.00037021720124034594
3871.9,-0.0003629854584300587
3872.8,-0.00035745296521580633
3873.7,-0.00035402886302337243
3874.6,-0.0003558787124530698
3875.5,-0.00035906379470745925
3876.4,-0.00036314376168230427
3877.3,-0.00036403863509192167
3878.2,-0.0003649921377500935
3879.1,-0.00036474884355944937
3880.0,-0.0003655784043723861
3880.9,-0.00036688379154166476
3881.8,-0.0003693721835211004
3882.7,-0.00036926760773618397
3883.6,-0.00036694934790386954
3884.5,-0.0003605098902268116
3885.4,-0.00035040949463968987
3886.3,-0.00033613317897868795
3887.2,-0.0003231496555185506
3888.1,-0.00031337467090626115
3889.0,-0.0003057149117940667
3889.9,-0.00030708589143986926
3890.8,-0.0003151701900685536
3891.7,-0.00032995689927888694
3892.6,-0.0003480094612614163
3893.5,-0.00036428194382305806
3894.4,-0.00037910982977093006
3895.3,-0.00038994037946746203
3896.2,-0.00039852050962600933
3897.1,-0.00040749782035856736
3898.0,-0.0004152830258762081
3898.9,-0.0004231473025206802
3899.8,-0.00042795260731506434
3900.7,-0.00043368126596106925
3901.6,-0.00043794470843267456
3902.51,-0.00043923938612250795
3903.41,-0.0004421830829582976
3904.31,-0.0004420779482977066
3905.21,-0.00044044911992505603
3906.11,-0.00044381014001742126
3907.01,-0.0004492418392392188
3907.91,-0.0004590967313830949
3908.81,-0.00046972015810733026
3909.71,-0.0004858837790353149
3910.61,-0.0004968840820384602
3911.51,-0.0005067416720771822
3912.41,-0.0005152649585121426
3913.31,-0.0005197850717017304
3914.21,-0.000520106986779323
3915.11,-0.0005193517436807118
3916.01,-0.0005148085163257738
3916.91,-0.0005118503327571583
3917.81,-0.0005053358216172513
3918.71,-0.000502457705057963
3919.61,-0.0004955741719799446
3920.51,-0.0004904161261235601
3921.41,-0.0004884614491983626
3922.31,-0.0004862606383205184
3923.21,-0.0004852208833952716
3924.11,-0.00048126162822220367
3925.01,-0.0004749653863596286
3925.91,-0.00046541247817190616
3926.81,-0.00044828877829654774
3927.71,-0.00042057745955395733
3928.61,-0.00039046036572326973
3929.51,-0.0003533453319194243
3930.41,-0.000313934370818649
3931.31,-0.00027258943907953104
3932.21,-0.0002360556650025739
3933.11,-0.00020602370028662527
3934.01,-0.0001891812216117153
3934.91,-0.00018734413827475272
3935.81,-0.00020177855916618021
3936.71,-0.00023125319249216907
3937.61,-0.00027120369057151623
3938.51,-0.0003184109983170983
3939.42,-0.0003655961956263167
3940.32,-0.0004098071628396561
3941.22,-0.00044581859836954186
3942.12,-0.00047670939906440003
3943.02,-0.0005000252267109286
3943.92,-0.0005207883251868828
3944.82,-0.0005395236742090599
3945.72,-0.0005557363374290532
3946.62,-0.0005740563652528937
3947.52,-0.0005916908071083276
3948.42,-0.0006052516906661111
3949.32,-0.0006160326571660079
3950.22,-0.0006247019299321057
3951.12,-0.0006353178447782303
3952.02,-0.0006436018335906925
3952.92,-0.000649892862231583
3953.82,-0.0006577497498223584
3954.72,-0.0006645516511835982
3955.62,-0.0006636467685441978
3956.52,-0.0006668630640224154
3957.42,-0.0006666747587026168
3958.32,-0.0006647403803164578
3959.22,-0.0006590284221160201
3960.12,-0.0006463509798470436
3961.02,-0.0006317741146068828
3961.92,-0.0006056916554097138
3962.82,-0.0005739701090065875
3963.72,-0.0005365068920016057
3964.62,-0.0004944774762939822
3965.52,-0.0004455384895471634
3966.42,-0.00039527213889484946
3967.32,-0.00034451466564496897
3968.22,-0.0003040785989605667
3969.12,-0.0002795746340673996
3970.02,-0.00027389441967585657
3970.92,-0.00029127401333127397
3971.82,-0.00032901104852856326
3972.72,-0.0003819823308873467
3973.62,-0.0004420975709195144
3974.52,-0.0005039563129712015
3975.42,-0.000563336386686233
3976.32,-0.0006184968759519887
3977.22,-0.0006687857985865401
3978.13,-0.0007102048669084719
3979.03,-0.0007494015843950375
3979.93,-0.000779183986710874
3980.83,-0.0008035500612893341
3981.73,-0.0008216926835231896
3982.63,-0.0008318837174016006
3983.53,-0.0008432411114438229
3984.43,-0.0008543568893723279
3985.33,-0.0008693008036536298
3986.23,-0.0008815104052578456
3987.13,-0.0008961116005458497
3988.03,-0.0009105427011520724
3988.93,-0.0009246351299096448
3989.83,-0.0009390822043240931
3990.73,-0.0009505271259911452
3991.63,-0.0009623364363297649
3992.53,-0.0009758614663461643
3993.43,-0.0009863528010965923
3994.33,-0.0009875334010555565
3995.23,-0.0009912230734011962
3996.13,-0.0009834086399742033
3997.03,-0.0009814493348155652
3997.93,-0.000981789284540189
3998.83,-0.0009878592980058867
3999.73,-0.0010067188861284072
4000.63,-0.0010228472402991815
4001.53,-0.0010410312901579627
4002.43,-0.0010566618648819477
4003.33,-0.0010692333813743314
4004.23,-0.0010662976683226632
4005.13,-0.0010655396706792607
4006.03,-0.0010574172512776404
4006.93,-0.001064530705885711
4007.83,-0.0010743724460064606
4008.73,-0.0010880339758738888
4009.63,-0.001113905812460032
4010.53,-0.0011326617975580754
4011.43,-0.0011494077126895368
4012.33,-0.0011643929998937635
4013.23,-0.0011720693521841043
4014.13,-0.0011816203838516434
4015.03,-0.001190660711842114
4015.93,-0.0012021641833080566
4016.84,-0.001209757218608025
4017.74,-0.0012186781448963397
4018.64,-0.0012281792699445461
4019.54,-0.0012391395369186417
4020.44,-0.0012545688020816927
4021.34,-0.0012547343403562215
4022.24,-0.0012614189591386533
4023.14,-0.0012748572221730448
4024.04,-0.0012782917128388582
4024.94,-0.0012868249466323836
4025.84,-0.0013070303714087666
4026.74,-0.001323094659998007
4027.64,-0.001331843601016617
4028.54,-0.0013443147917805492
4029.44,-0.001328120414195123
4030.34,-0.0013192893450251202
4031.24,-0.0013019961534741027
4032.14,-0.0012982619867268391
4033.04,-0.0012922846084665752
4033.94,-0.0012967399725191003
4034.84,-0.0013223006727827373
4035.74,-0.001351262587804418
4036.64,-0.001393251451388322
4037.54,-0.0014281704150195236
4038.44,-0.0014628598749920978
4039.34,-0.0014833598221351185
4040.24,-0.0015024727566471951
4041.14,-0.001503571298278324
4042.04,-0.001490088500918758
4042.94,-0.001479704828260399
4043.84,-0.0014576275852979045
4044.74,-0.0014416565185624013
4045.64,-0.0014242959747838167
4046.54,-0.0014233024946263219
4047.44,-0.001435180306752744
4048.34,-0.0014703754865955368
4049.24,-0.0015052931372160235
4050.14,-0.0015492841309718457
4051.04,-0.0015814224402239362
4051.94,-0.0016090640998611156
4052.84,-0.0016167357308787531
4053.74,-0.001615619692989276
4054.65,-0.0016246965212134696
4055.55,-0.0016247581724768314
4056.45,-0.001617222824753301
4057.35,-0.0016402623775957715
4058.25,-0.0016384622006134944
4059.15,-0.0016507136441642823
4060.05,-0.0016676301881923992
4060.95,-0.001675873584687491
4061.85,-0.0016815699801835766
4062.75,-0.0016694931113432174
4063.65,-0.0016675550231412821
4064.55,-0.0016545742962597203
4065.45,-0.0016692279649483139
4066.35,-0.0016779231647779135
4067.25,-0.001700916165772356
4068.15,-0.0017386519800011964
4069.05,-0.0017683248522343776
4069.95,-0.0017879714824705164
4070.85,-0.0018033875118586725
4071.75,-0.0018169781831145419
4072.65,-0.0018163644929274029
4073.55,-0.0018196548289321904
4074.45,-0.001825464239718007
4075.35,-0.0018137004287469055
4076.25,-0.0018049843899871586
4077.15,-0.0017896013457530705
4078.05,-0.001787270487164355
4078.95,-0.0017999500622458264
4079.85,-0.0018275557369235892
4080.75,-0.0018703214831556744
4081.65,-0.0019195786199112704
4082.55,-0.001962788818391436
4083.45,-0.0020004805141018
4084.35,-0.002022850812436796
4085.25,-0.002049235058515038
4086.15,-0.002072945122705421
4087.05,-0.0021158285147809437
4087.95,-0.0021555419490992085
4088.85,-0.0021964221097106056
4089.75,-0.002223859776022984
4090.65,-0.0022475599831455013
4091.55,-0.002252599914113364
4092.45,-0.002259571258386957
4093.36,-0.0022575841971706452
4094.26,-0.00225203878068849
4095.16,-0.0022286800832178005
4096.06,-0.0021998508730677727
4096.96,-0.002158705013314172
4097.86,-0.002116868794429167
4098.76,-0.002050384940032971
4099.66,-0.0019866155478633785
4100.56,-0.0019175619043139726
4101.46,-0.0018569791194662968
4102.36,-0.0018380869524851887
4103.26,-0.0018471569148830545
4104.16,-0.0018914441348612896
4105.06,-0.0019789976145750164
4105.96,-0.002088852259733303
4106.86,-0.00217945265314459
4107.76,-0.002269571023338875
4108.66,-0.002335278091450521
4109.56,-0.002391638913974214
4110.46,-0.002423329982354813
4111.36,-0.002461485422624316
4112.26,-0.0025146920874086513
4113.16,-0.0025626838316562296
4114.06,-0.0026105250173087172
4114.96,-0.002645625345090305
4115.86,-0.0026777931379763395
4116.76,-0.0027103133427095155
4117.66,-0.0027351242966606195
4118.56,-0.002726138111277736
4119.46,-0.0027355854829147538
4120.36,-0.0027382484439431244
4121.26,-0.00275620280189602
4122.16,-0.002770450535155877
4123.06,-0.0027927562841408983
4123.96,-0.0028266273232228295
4124.86,-0.0028756731980673065
4125.76,-0.0029024833635660874
4126.66,-0.0029324921937495998
4127.56,-0.00294211881322909
4128.46,-0.0029493675642732254
4129.36,-0.002961865975658983
4130.26,-0.0029534910057468157
4131.17,-0.0029528915784852337
4132.06,-0.0029471048843028222
4132.97,-0.0029584048507594733
4133.87,-0.0029647486659028772
4134.77,-0.002991134502632475
4135.67,-0.003056992093521531
4136.57,-0.003118857185656352
4137.47,-0.0031965363897427934
4138.37,-0.0032613954632526466
4139.27,-0.003320042241987929
4140.17,-0.003330681452662802
4141.07,-0.003350188647882685
4141.97,-0.0033167443027442216
4142.87,-0.00328894172308842
4143.77,-0.003288989673592837
4144.67,-0.003297335990240576
4145.57,-0.003314171983557981
4146.47,-0.003371698188748655
4147.37,-0.0034208664934157135
4148.27,-0.0034611953244375092
4149.17,-0.003522529391327216
4150.07,-0.0035540618195134743
4150.97,-0.003582160082143189
4151.87,-0.0036126888043736026
4152.77,-0.003621287177494895
4153.67,-0.0036276258825599715
4154.57,-0.0036417474861263014
4155.47,-0.0036778964194418592
4156.37,-0.003693764927334827
4157.27,-0.0037382574420005525
4158.17,-0.0038022403539310847
4159.07,-0.0038474295417099355
4159.97,-0.003917544325272086
4160.87,-0.003981031991189596
4161.77,-0.004034884170913854
4162.67,-0.0040880992285520406
4163.57,-0.0041324724629968595
4164.47,-0.004168273814193497
4165.37,-0.004183887830673573
4166.27,-0.004216939902710732
4167.17,-0.004231917863302225
4168.07,-0.004223718771111686
4168.98,-0.004250853111710808
4169.88,-0.004230696224053926
4170.78,-0.004196498862908165
4171.68,-0.004175139424366857
4172.58,-0.004123191743998047
4173.48,-0.00412442903294178
4174.38,-0.004124407878093784
4175.28,-0.004146027103271013
4176.18,-0.00420772023544232
4177.08,-0.004270535763902718
4177.98,-0.004353968217836113
4178.88,-0.004434651158082479
4179.78,-0.004483839607342796
4180.68,-0.004559303061502678
4181.58,-0.004631223604115883
4182.48,-0.0046818873971335795
4183.38,-0.0047088613957883205
4184.28,-0.004755840610423969
4185.18,-0.004769166153990298
4186.08,-0.004826067613168929
4186.98,-0.004799224918294757
4187.88,-0.004849011864718264
4188.78,-0.004894129153196489
4189.68,-0.00491162655961801
4190.58,-0.005005309942430375
4191.48,-0.005068827582973425
4192.38,-0.005142415007377012
4193.28,-0.005211909695007644
4194.18,-0.005276779766520911
4195.08,-0.0052923567735192285
4195.98,-0.005317941598927897
4196.88,-0.005311088937592066
4197.78,-0.00525121585168383
4198.68,-0.005264572095673621
4199.58,-0.005230781782873002
4200.48,-0.005245146903009803
4201.38,-0.005275622043361662
4202.28,-0.005337100740931783
4203.18,-0.005383763906672538
4204.08,-0.00545023237889726
4204.98,-0.005556493976678499
4205.88,-0.005657415188089875
4206.79,-0.005766358793843564
4207.69,-0.005872210824912404
4208.59,-0.005979250170862792
4209.49,-0.006074905435416068
4210.39,-0.006143744273502558
4211.29,-0.006195413575485003
4212.19,-0.006261977431670508
4213.09,-0.006275744182481123
4213.99,-0.006269436561148926
4214.89,-0.006258832025718945
4215.79,-0.00624767413213704
4216.69,-0.006287703629710196
4217.59,-0.00631498721517827
4218.49,-0.006413929546825185
4219.39,-0.0065346006354277866
4220.29,-0.006610363512331094
4221.19,-0.00668917592166993
4222.09,-0.006742251599415306
4222.99,-0.0066879399200838125
4223.89,-0.006596852504538438
4224.79,-0.006468618174287965
4225.69,-0.006333561414523412
4226.59,-0.006221070709731111
4227.49,-0.006236021760626691
4228.39,-0.006338383665595699
4229.29,-0.006529536101175376
4230.19,-0.0067473908639271414
4231.09,-0.007027880830937732
4231.99,-0.0071893063123617575
4232.89,-0.007281305716652954
4233.79,-0.007387221252362251
4234.69,-0.007410136487606692
4235.59,-0.007458360208545067
4236.49,-0.007484163158493473
4237.39,-0.007520647366182053
4238.29,-0.00760175988772396
4239.19,-0.007699828061394687
4240.09,-0.007823687305369698
4240.99,-0.00799519157347014
4241.89,-0.008084341921603375
4242.79,-0.008225635532206307
4243.69,-0.00834545988011388
4244.59,-0.00842161425792395
4245.5,-0.008473847411566905
4246.4,-0.00847922271260222
4247.3,-0.008459175479178883
4248.2,-0.008433319663318062
4249.1,-0.008394097887077182
4250.0,-0.008440843738499005
4250.9,-0.008559339389912215
4251.8,-0.008694966132553645
4252.7,-0.008781989028122657
4253.6,-0.008925683255642823
4254.5,-0.009046052370437097
4255.4,-0.009149954327616146
4256.3,-0.009263445604575234
4257.2,-0.009349305846292908
4258.1,-0.009465782075281964
4259.0,-0.009458019575120137
4259.9,-0.009468321517249682
4260.8,-0.009564541741623961
4261.7,-0.00964506264556931
4262.6,-0.009848626485130544
4263.5,-0.010012475335667377
4264.4,-0.010233668124321312
4265.3,-0.010440783126441573
4266.2,-0.010634648675475509
4267.1,-0.010721573479203802
4268.0,-0.010713924630543274
4268.9,-0.010674433750319432
4269.8,-0.01054279757296378
4270.7,-0.010423316161543409
4271.6,-0.010318566618853485
4272.5,-0.01023612047076769
4273.4,-0.010261224508786422
4274.3,-0.010312405497565786
4275.2,-0.010487561358914538
4276.1,-0.010796608339061885
4277.0,-0.011044803060690151
4277.9,-0.011290707119551668
4278.8,-0.011548476899159022
4279.7,-0.011701258551546734
4280.6,-0.011809537015056848
4281.5,-0.011878393973498394
4282.4,-0.011966930730959734
4283.31,-0.012001694801597438
4284.21,-0.012019374718675235
