wave,flux
3700.85,-5.395940007366104e-07
3701.75,-5.38166907675884e-07
3702.65,-5.205462759251525e-07
3703.55,-5.023860728437336e-07
3704.45,-4.814557595683151e-07
3705.35,-4.663374989627706e-07
3706.25,-4.5867937581276965e-07
3707.15,-4.5409673781534205e-07
3708.05,-4.5973498328758836e-07
3708.96,-4.669833294492779e-07
3709.86,-4.719978812378187e-07
3710.76,-4.832167496519411e-07
3711.66,-4.930942600133685e-07
3712.56,-5.071809866467106e-07
3713.46,-5.233002934577459e-07
3714.36,-5.426400518248398e-07
3715.26,-5.595737943569059e-07
3716.16,-5.690203184564414e-07
3717.06,-5.690919919035613e-07
3717.96,-5.587824742932431e-07
3718.86,-5.36338608508073e-07
3719.76,-5.067939937233886e-07
3720.66,-4.791589197363679e-07
3721.56,-4.541209585043205e-07
3722.46,-4.4570793213372014e-07
3723.36,-4.5410434905107595e-07
3724.26,-4.765486530997452e-07
3725.16,-5.008390670521698e-07
3726.06,-5.246703788655664e-07
3726.96,-5.43198618947251e-07
3727.86,-5.558479712421276e-07
3728.76,-5.579598177801204e-07
3729.66,-5.540346105424756e-07
3730.56,-5.456445495252047e-07
3731.46,-5.282062755559429e-07
3732.36,-5.05248470715225e-07
3733.26,-4.7273536600166083e-07
3734.16,-4.4239656221628744e-07
3735.06,-4.206684284337704e-07
3735.96,-4.144716418575044e-07
3736.86,-4.22427315364331e-07
3737.76,-4.4601722047420456e-07
3738.66,-4.788365102080447e-07
3739.56,-5.137980403326156e-07
3740.46,-5.455041031576764e-07
3741.36,-5.657614348575008e-07
3742.26,-5.756448910321316e-07
3743.16,-5.724729123362223e-07
3744.06,-5.592002830899778e-07
3744.96,-5.426310230473817e-07
3745.86,-5.216348066032173e-07
3746.76,-4.968116695945657e-07
3747.67,-4.7220133277938246e-07
3748.57,-4.4961986782249236e-07
3749.47,-4.3467969350331653e-07
3750.37,-4.3155595357824755e-07
3751.27,-4.463207777779653e-07
3752.17,-4.7527512267316847e-07
3753.07,-5.107833902988323e-07
3753.97,-5.502740731366808e-07
3754.87,-5.846385522245738e-07
3755.77,-6.042821814802941e-07
3756.67,-6.126914930586668e-07
3757.57,-6.099392865268265e-07
3758.47,-5.949170456777389e-07
3759.37,-5.857975060090266e-07
3760.27,-5.815729673405484e-07
3761.17,-5.853029908736132e-07
3762.07,-5.940358530016296e-07
3762.97,-6.048511241679052e-07
3763.87,-6.12255681575662e-07
3764.77,-6.173166144349752e-07
3765.67,-6.116103316430652e-07
3766.57,-6.047414568660877e-07
3767.47,-5.910226700868662e-07
3768.37,-5.757590474889378e-07
3769.27,-5.562779729010271e-07
3770.17,-5.439481667192525e-07
3771.07,-5.402442986173719e-07
3771.97,-5.47078723895736e-07
3772.87,-5.632841615801079e-07
3773.77,-5.866648544080379e-07
3774.67,-6.114414905111389e-07
3775.57,-6.33289321064279e-07
3776.47,-6.550497959720311e-07
3777.37,-6.711041276019067e-07
3778.27,-6.887952244695325e-07
3779.17,-7.077166286703028e-07
3780.07,-7.247327737587481e-07
3780.97,-7.412136860612743e-07
3781.87,-7.516215481287149e-07
3782.77,-7.596608780653037e-07
3783.67,-7.576106057690047e-07
3784.57,-7.524891745019325e-07
3785.47,-7.41747575700431e-07
3786.38,-7.27431890039811e-07
3787.28,-7.111300481212443e-07
3788.18,-6.969434602555933e-07
3789.08,-6.846708380594699e-07
3789.98,-6.74063532264372e-07
3790.88,-6.670327485971272e-07
3791.78,-6.600315749542341e-07
3792.68,-6.500789774475181e-07
3793.58,-6.348330520333738e-07
3794.48,-6.111707544514445e-07
3795.38,-5.846252985269044e-07
3796.28,-5.596089924689546e-07
3797.18,-5.346982929364276e-07
3798.08,-5.203532427382545e-07
3798.98,-5.183949367752119e-07
3799.88,-5.350719855662298e-07
3800.78,-5.650598455114025e-07
3801.68,-6.068260538077069e-07
3802.58,-6.464709677128147e-07
3803.48,-6.881433505054662e-07
3804.38,-7.145438829620921e-07
3805.28,-7.359157705880827e-07
3806.18,-7.455351889892694e-07
3807.08,-7.543694569692766e-07
3807.98,-7.598506004876012e-07
3808.88,-7.6869654669898e-07
3809.78,-7.799666873337517e-07
3810.68,-7.82800827140093e-07
3811.58,-7.868099549797893e-07
3812.48,-7.776403144996225e-07
3813.38,-7.612254605512617e-07
3814.28,-7.463281570821262e-07
3815.18,-7.333852533007761e-07
3816.08,-7.265077560985384e-07
3816.98,-7.247556712139866e-07
3817.88,-7.286520574714814e-07
3818.78,-7.301000885805236e-07
3819.68,-7.26607630552579e-07
3820.58,-7.210543312195965e-07
3821.48,-7.144722695993059e-07
3822.38,-7.111648882723588e-07
3823.28,-7.020835473876197e-07
3824.18,-6.913068727195663e-07
3825.09,-6.770651975828624e-07
3825.99,-6.67083526437148e-07
3826.89,-6.479754821104783e-07
3827.79,-6.361565177261267e-07
3828.69,-6.259193929131176e-07
3829.59,-6.162683239216982e-07
3830.49,-6.008235366652408e-07
3831.39,-5.803481773740801e-07
3832.29,-5.554129178910121e-07
3833.19,-5.265175114460262e-07
3834.09,-4.996422263683786e-07
3834.99,-4.802049831356608e-07
3835.89,-4.712605280657077e-07
3836.79,-4.7198283308904553e-07
3837.69,-4.822576823471489e-07
3838.59,-4.979673508223517e-07
3839.49,-5.283087061352716e-07
3840.39,-5.584231748202471e-07
3841.29,-5.97583567243907e-07
3842.19,-6.357177278416948e-07
3843.09,-6.694417917920097e-07
3843.99,-7.071257509042363e-07
3844.89,-7.349571613256615e-07
3845.79,-7.587126474597867e-07
3846.69,-7.787024325626008e-07
3847.59,-7.912632771624094e-07
3848.49,-8.018003044797544e-07
3849.39,-8.035907753338825e-07
3850.29,-8.112550455130159e-07
3851.19,-8.134609082800701e-07
3852.09,-8.23818461713512e-07
3852.99,-8.265963141351146e-07
3853.89,-8.298082691156061e-07
3854.79,-8.310837710228616e-07
3855.69,-8.245293904008837e-07
3856.59,-8.158846178560376e-07
3857.49,-8.024831293670674e-07
3858.39,-7.938664518466373e-07
3859.29,-7.813196622502396e-07
3860.19,-7.853372212485918e-07
3861.09,-7.908390430213842e-07
3861.99,-8.048353361994618e-07
3862.9,-8.248675242184728e-07
3863.8,-8.433778758733875e-07
3864.7,-8.557446047458786e-07
3865.6,-8.637118990286428e-07
3866.5,-8.672641990776057e-07
3867.4,-8.682585854906465e-07
3868.3,-8.639378966663531e-07
3869.2,-8.612260422999349e-07
3870.1,-8.53203614876178e-07
3871.0,-8.376868359392539e-07
3871.9,-8.213068277037294e-07
3872.8,-8.065407452517698e-07
3873.7,-7.992399212565072e-07
3874.6,-7.964786702911559e-07
3875.5,-7.958359906392374e-07
3876.4,-7.985912756436219e-07
3877.3,-7.961286820924422e-07
3878.2,-7.924105224058171e-07
3879.1,-7.867029917820296e-07
3880.0,-7.817895820955452e-07
3880.9,-7.801797266541229e-07
3881.8,-7.806565048444697e-07
3882.7,-7.699318709860897e-07
3883.6,-7.596264856312407e-07
3884.5,-7.377791610327061e-07
3885.4,-7.123335744151839e-07
3886.3,-6.807263193081445e-07
3887.2,-6.464634631987941e-07
3888.1,-6.166787886974327e-07
3889.0,-5.965342530728202e-07
3889.9,-5.969230896384954e-07
3890.8,-6.090568622481923e-07
3891.7,-6.325800345664132e-07
3892.6,-6.649876203857434e-07
3893.5,-6.99488772901632e-07
3894.4,-7.263368776017219e-07
3895.3,-7.490170012713813e-07
3896.2,-7.695389150394362e-07
3897.1,-7.866946209657133e-07
3898.0,-8.032759702080744e-07
3898.9,-8.141209217438995e-07
3899.8,-8.237058854330895e-07
3900.7,-8.336878731046083e-07
3901.6,-8.395338718864456e-07
3902.51,-8.394403914701287e-07
3903.41,-8.430730385543457e-07
3904.31,-8.421358179260279e-07
3905.21,-8.409527947513078e-07
3906.11,-8.383085085995595e-07
3907.01,-8.511681507467595e-07
3907.91,-8.614872024515339e-07
3908.81,-8.816625108464566e-07
3909.71,-8.981152483598058e-07
3910.61,-9.206881377744004e-07
3911.51,-9.349954306300021e-07
3912.41,-9.405448508159961e-07
3913.31,-9.382042745660967e-07
3914.21,-9.37193844363496e-07
3915.11,-9.320009387095363e-07
3916.01,-9.248256620535841e-07
3916.91,-9.170298903418163e-07
3917.81,-9.050479246462637e-07
3918.71,-8.927070120732638e-07
3919.61,-8.829734255806447e-07
3920.51,-8.766818341370684e-07
3921.41,-8.690797223156268e-07
3922.31,-8.6311299692192e-07
3923.21,-8.532382499562934e-07
3924.11,-8.510785270911246e-07
3925.01,-8.319205850521472e-07
3925.91,-8.173984575040841e-07
3926.81,-7.87943969698449e-07
3927.71,-7.433925224972882e-07
3928.61,-6.89334874847284e-07
3929.51,-6.262381933894708e-07
3930.41,-5.602860207959119e-07
3931.31,-4.907427428412507e-07
3932.21,-4.2581013794771583e-07
3933.11,-3.735334706604373e-07
3934.01,-3.4317281607575743e-07
3934.91,-3.372746983442954e-07
3935.81,-3.5800465394947856e-07
3936.71,-4.047276286744089e-07
3937.61,-4.665617507465046e-07
3938.51,-5.402365091506794e-07
3939.42,-6.138699509711223e-07
3940.32,-6.787190403065715e-07
3941.22,-7.335431967985617e-07
3942.12,-7.732100678298373e-07
3943.02,-8.004710616019656e-07
3943.92,-8.249019448890503e-07
3944.82,-8.440772868364245e-07
3945.72,-8.657726908750412e-07
3946.62,-8.869211491369045e-07
3947.52,-9.047260506038979e-07
3948.42,-9.185186079939813e-07
3949.32,-9.239965983674721e-07
3950.22,-9.360118330234905e-07
3951.12,-9.429259569044203e-07
3952.02,-9.479909309764295e-07
3952.92,-9.523202285096903e-07
3953.82,-9.56802642190457e-07
3954.72,-9.590490061539607e-07
3955.62,-9.578116937936363e-07
3956.52,-9.499033913348357e-07
3957.42,-9.459625428750427e-07
3958.32,-9.377582877846927e-07
3959.22,-9.220021122057721e-07
3960.12,-9.065838504054467e-07
3961.02,-8.762321286020363e-07
3961.92,-8.45457260653757e-07
3962.82,-7.943787067812401e-07
3963.72,-7.447202992058478e-07
3964.62,-6.848461725467467e-07
3965.52,-6.187798331322288e-07
3966.42,-5.468792505839193e-07
3967.32,-4.780544496100109e-07
3968.22,-4.1914773843620354e-07
3969.12,-3.823179671988862e-07
3970.02,-3.711132368395071e-07
3970.92,-3.88863272134125e-07
3971.82,-4.3134269999556086e-07
3972.72,-4.933616521078462e-07
3973.62,-5.662794035739555e-07
3974.52,-6.378652760472572e-07
3975.42,-7.072557113724075e-07
3976.32,-7.734347861052193e-07
3977.22,-8.325626409644834e-07
3978.13,-8.831100855507757e-07
3979.03,-9.238623479975089e-07
3979.93,-9.573859336306436e-07
3980.83,-9.85145323869377e-07
3981.73,-9.990287901753645e-07
3982.63,-1.0139013073916603e-06
3983.53,-1.0193517492433669e-06
3984.43,-1.0316159672878802e-06
3985.33,-1.0379087826472606e-06
3986.23,-1.0537372142359273e-06
3987.13,-1.0641897666774748e-06
3988.03,-1.0760816297425416e-06
3988.93,-1.0920708689110404e-06
3989.83,-1.1012160666813946e-06
3990.73,-1.11001958956934e-06
3991.63,-1.127314963339812e-06
3992.53,-1.1292016908171023e-06
3993.43,-1.1350042329917373e-06
3994.33,-1.1317095328246333e-06
3995.23,-1.1278277957374963e-06
3996.13,-1.1191864994943736e-06
3997.03,-1.1152773637841785e-06
3997.93,-1.1123338568386714e-06
3998.83,-1.111856583621099e-06
3999.73,-1.1215631241269851e-06
4000.63,-1.1379074062222156e-06
4001.53,-1.150947841596942e-06
4002.43,-1.1593214111292262e-06
4003.33,-1.1641790653356709e-06
4004.23,-1.1592910364087213e-06
4005.13,-1.1555298096375962e-06
4006.03,-1.1444152972508748e-06
4006.93,-1.1421066376252605e-06
4007.83,-1.1428218390920085e-06
4008.73,-1.157162028445232e-06
4009.63,-1.1739851450946078e-06
4010.53,-1.1874335423607896e-06
4011.43,-1.1970285964728393e-06
4012.33,-1.2060856102569088e-06
4013.23,-1.2049134199233415e-06
4014.13,-1.2135315132930958e-06
4015.03,-1.2144864028726197e-06
4015.93,-1.2145666364146375e-06
4016.84,-1.2196088249342252e-06
4017.74,-1.226494799805408e-06
4018.64,-1.2269622829203733e-06
4019.54,-1.233337041637165e-06
4020.44,-1.241078825749235e-06
4021.34,-1.2357024040862304e-06
4022.24,-1.2440308379855366e-06
4023.14,-1.2399365480049579e-06
4024.04,-1.2432606197613894e-06
4024.94,-1.2438056839814749e-06
4025.84,-1.249453376612682e-06
4026.74,-1.257334774344752e-06
4027.64,-1.2625651665511883e-06
4028.54,-1.2654210535374242e-06
4029.44,-1.2553511825277007e-06
4030.34,-1.2406629274009565e-06
4031.24,-1.213005876951012e-06
4032.14,-1.1996329362882391e-06
4033.04,-1.1945795473683662e-06
4033.94,-1.1918837310226384e-06
4034.84,-1.205351292360502e-06
4035.74,-1.2311868637572033e-06
4036.64,-1.2479175063736787e-06
4037.54,-1.276764733956e-06
4038.44,-1.2998775148324354e-06
4039.34,-1.3080012104731483e-06
4040.24,-1.3145594768437518e-06
4041.14,-1.310031467160917e-06
4042.04,-1.2973248928358434e-06
4042.94,-1.2766041618632946e-06
4043.84,-1.2604109502790183e-06
4044.74,-1.2412815632398279e-06
4045.64,-1.2221034019141979e-06
4046.54,-1.214548753347657e-06
4047.44,-1.2199665567908514e-06
4048.34,-1.2354632737606542e-06
4049.24,-1.2618943950480236e-06
4050.14,-1.2782646890875417e-06
4051.04,-1.3006775117435864e-06
4051.94,-1.305899526616188e-06
4052.84,-1.3142243153220337e-06
4053.74,-1.3023500910180434e-06
4054.65,-1.297781850593361e-06
4055.55,-1.2856233768051661e-06
4056.45,-1.2818612774183292e-06
4057.35,-1.2820924426592956e-06
4058.25,-1.2813948789597732e-06
4059.15,-1.287527920574858e-06
4060.05,-1.2951028599045755e-06
4060.95,-1.2958108847988874e-06
4061.85,-1.2900259911722682e-06
4062.75,-1.2809579117361633e-06
4063.65,-1.2638877885229074e-06
4064.55,-1.2580703433822793e-06
4065.45,-1.2536088997938684e-06
4066.35,-1.2551657326202624e-06
4067.25,-1.2637696867456654e-06
4068.15,-1.2845524533022272e-06
4069.05,-1.2900500012528336e-06
4069.95,-1.3059642462245262e-06
4070.85,-1.3060035809703287e-06
4071.75,-1.3022945186642378e-06
4072.65,-1.3007714630370787e-06
4073.55,-1.2950130388616408e-06
4074.45,-1.2887304425557643e-06
4075.35,-1.2745262975072637e-06
4076.25,-1.2629005835369114e-06
4077.15,-1.24100773986048e-06
4078.05,-1.2330537251857404e-06
4078.95,-1.2327152686334008e-06
4079.85,-1.2357538923935022e-06
4080.75,-1.2628943825597826e-06
4081.65,-1.2795267171499384e-06
4082.55,-1.3023664603672651e-06
4083.45,-1.3144550512190872e-06
4084.35,-1.3180535565112807e-06
4085.25,-1.3240324746975596e-06
4086.15,-1.3316775721371082e-06
4087.05,-1.3471321905274852e-06
4087.95,-1.3666282331254706e-06
4088.85,-1.3785325867178944e-06
4089.75,-1.3918146922133239e-06
4090.65,-1.389673991853047e-06
4091.55,-1.3881506937725193e-06
4092.45,-1.3850586537714568e-06
4093.36,-1.3667072312525014e-06
4094.26,-1.3490898262562561e-06
4095.16,-1.3256383948547327e-06
4096.06,-1.298146531499794e-06
4096.96,-1.262719016995409e-06
4097.86,-1.2237361159760459e-06
4098.76,-1.183392352955455e-06
4099.66,-1.132068735719801e-06
4100.56,-1.0776287436860705e-06
4101.46,-1.038809508220309e-06
4102.36,-1.014578204664796e-06
4103.26,-1.0073173185375983e-06
4104.16,-1.0373931092180346e-06
4105.06,-1.0779368134483738e-06
4105.96,-1.1292355301963715e-06
4106.86,-1.189132260156919e-06
4107.76,-1.227318687884782e-06
4108.66,-1.2660970141955801e-06
4109.56,-1.2921997596514913e-06
4110.46,-1.3064694686619231e-06
4111.36,-1.3303672573212236e-06
4112.26,-1.3457532028288928e-06
4113.16,-1.3574577072969394e-06
4114.06,-1.3820062107085781e-06
4114.96,-1.3964707702015912e-06
4115.86,-1.4111494527454036e-06
4116.76,-1.4195747205506573e-06
4117.66,-1.4265082559612808e-06
4118.56,-1.4126707085869255e-06
4119.46,-1.4156776845706054e-06
4120.36,-1.3999098907582264e-06
4121.26,-1.4098840340030025e-06
4122.16,-1.4074985546110787e-06
4123.06,-1.4151836772861288e-06
4123.96,-1.4231041989899316e-06
4124.86,-1.4292620152577987e-06
4125.76,-1.4323403526675156e-06
4126.66,-1.4369549847312337e-06
4127.56,-1.4441697231543195e-06
4128.46,-1.440734435033341e-06
4129.36,-1.4254017357259962e-06
4130.26,-1.4216739869673472e-06
4131.17,-1.4139947468028571e-06
4132.06,-1.4082003345759585e-06
4132.97,-1.4059948715388312e-06
4133.87,-1.40390942044795e-06
4134.77,-1.4156002960422986e-06
4135.67,-1.427724884083645e-06
4136.57,-1.4473417482577567e-06
4137.47,-1.4700770028870605e-06
4138.37,-1.4899417675126063e-06
4139.27,-1.5094099413468696e-06
4140.17,-1.504602083596131e-06
4141.07,-1.5010442840366874e-06
4141.97,-1.48623226305775e-06
4142.87,-1.470299703128595e-06
4143.77,-1.4513388792210784e-06
4144.67,-1.4503409666258456e-06
4145.57,-1.4562236891373277e-06
4146.47,-1.460470968138452e-06
4147.37,-1.476318928443685e-06
4148.27,-1.491378923976482e-06
4149.17,-1.5019245764688327e-06
4150.07,-1.5072607846900877e-06
4150.97,-1.507179110927905e-06
4151.87,-1.5003752637410359e-06
4152.77,-1.498315067086302e-06
4153.67,-1.4974588508308841e-06
4154.57,-1.4891706594951607e-06
4155.47,-1.4912564745106123e-06
4156.37,-1.4911040358185203e-06
4157.27,-1.4975686116575754e-06
4158.17,-1.5101422294658081e-06
4159.07,-1.524614772306333e-06
4159.97,-1.5343487729796353e-06
4160.87,-1.5509499525561925e-06
4161.77,-1.5656772190793758e-06
4162.67,-1.5738082371119485e-06
4163.57,-1.5793479185202405e-06
4164.47,-1.5795960654127247e-06
4165.37,-1.5811896241601755e-06
4166.27,-1.5775450730358632e-06
4167.17,-1.572963236458306e-06
4168.07,-1.5661271583349422e-06
4168.98,-1.5643605922723209e-06
4169.88,-1.5450600491951196e-06
4170.78,-1.5300124191615387e-06
4171.68,-1.5073917765470535e-06
4172.58,-1.489843005025467e-06
4173.48,-1.4748554306472619e-06
4174.38,-1.4646216460615563e-06
4175.28,-1.4666920770087355e-06
4176.18,-1.471579390534633e-06
4177.08,-1.4932625632290375e-06
4177.98,-1.5001122509441478e-06
4178.88,-1.5133322807028501e-06
4179.78,-1.532240139496509e-06
4180.68,-1.5445481512271893e-06
4181.58,-1.5476319018546942e-06
4182.48,-1.5654283464257116e-06
4183.38,-1.557251723200799e-06
4184.28,-1.5624526245387241e-06
4185.18,-1.5633901313105793e-06
4186.08,-1.5661906543645769e-06
4186.98,-1.5710201004845913e-06
4187.88,-1.5592513936300432e-06
4188.78,-1.560658744342483e-06
4189.68,-1.563820409022662e-06
4190.58,-1.579113688555165e-06
4191.48,-1.586296889110393e-06
4192.38,-1.5929366282304323e-06
4193.28,-1.6128048282141426e-06
4194.18,-1.6121145819670042e-06
4195.08,-1.612624735820444e-06
4195.98,-1.6081095978724794e-06
4196.88,-1.5823300081274449e-06
4197.78,-1.574535949149397e-06
4198.68,-1.5503774177212127e-06
4199.58,-1.5397704139367219e-06
4200.48,-1.5327749746017888e-06
4201.38,-1.537992731709882e-06
4202.28,-1.5446415037345153e-06
4203.18,-1.5499651812092084e-06
4204.08,-1.5538772780464244e-06
4204.98,-1.5691167740729423e-06
4205.88,-1.579827347624466e-06
4206.79,-1.5951993144565946e-06
4207.69,-1.6179029350739527e-06
4208.59,-1.630594680267884e-06
4209.49,-1.647702096170081e-06
4210.39,-1.6525001903779735e-06
4211.29,-1.6587465529637384e-06
4212.19,-1.6675575879453893e-06
4213.09,-1.6596644448209544e-06
4213.99,-1.650882431679247e-06
4214.89,-1.6347652163100473e-06
4215.79,-1.6285290420192254e-06
4216.69,-1.6199142652305066e-06
4217.59,-1.6155040365823384e-06
4218.49,-1.636861129032805e-06
4219.39,-1.6452603212824845e-06
4220.29,-1.646852930882021e-06
4221.19,-1.663242761290046e-06
4222.09,-1.6602262539575126e-06
4222.99,-1.6422405806867937e-06
4223.89,-1.6057547846599158e-06
4224.79,-1.5623014372344114e-06
4225.69,-1.525025259492391e-06
4226.59,-1.5010909576768389e-06
4227.49,-1.4906768718914355e-06
4228.39,-1.4923619082745263e-06
4229.29,-1.5294693048228637e-06
4230.19,-1.5651512230838572e-06
4231.09,-1.6066312201080227e-06
4231.99,-1.6379728321105685e-06
4232.89,-1.6492602409188279e-06
4233.79,-1.6529353030826267e-06
4234.69,-1.6564477055825527e-06
4235.59,-1.6460523918180146e-06
4236.49,-1.637545084947556e-06
4237.39,-1.6384846175071098e-06
4238.29,-1.6370321073861882e-06
4239.19,-1.6379261795180125e-06
4240.09,-1.6604925423914566e-06
4240.99,-1.6793415542190678e-06
4241.89,-1.6863854271875075e-06
4242.79,-1.7026900293382691e-06
4243.69,-1.7139975292676667e-06
4244.59,-1.7136492407005986e-06
4245.5,-1.7104303197812235e-06
4246.4,-1.7021185124171654e-06
4247.3,-1.6911858045112635e-06
4248.2,-1.677665290411999e-06
4249.1,-1.6687502286212539e-06
4250.0,-1.6610696078276383e-06
4250.9,-1.6697253645916116e-06
4251.8,-1.67134407774071e-06
4252.7,-1.6891482413082027e-06
4253.6,-1.6976058653492453e-06
4254.5,-1.7062145242938593e-06
4255.4,-1.714186505878867e-06
4256.3,-1.7227909325228887e-06
4257.2,-1.7222827323139318e-06
4258.1,-1.7238811597900652e-06
4259.0,-1.7198024357507821e-06
4259.9,-1.710244619377524e-06
4260.8,-1.7036607701235163e-06
4261.7,-1.7179622213812042e-06
4262.6,-1.7234479595091508e-06
4263.5,-1.7520769168990658e-06
4264.4,-1.7710171075470954e-06
4265.3,-1.7898713475900012e-06
4266.2,-1.808550246318593e-06
4267.1,-1.800280906697484e-06
4268.0,-1.788463555071277e-06
4268.9,-1.7672333514004217e-06
4269.8,-1.7418751131104843e-06
4270.7,-1.7088349537505173e-06
4271.6,-1.6785751464383334e-06
4272.5,-1.6646662354245155e-06
4273.4,-1.6496843265246503e-06
4274.3,-1.6561788027928395e-06
4275.2,-1.6690438649130714e-06
