wave,flux
3700.85,-4.7116945021688664e-05
3701.75,-4.686375693658452e-05
3702.65,-4.594465032449097e-05
3703.55,-4.4603979668285595e-05
3704.45,-4.3220317207443393e-05
3705.35,-4.239722851965072e-05
3706.25,-4.213142314496449e-05
3707.15,-4.229086929941474e-05
3708.05,-4.294821025457314e-05
3708.96,-4.3572419095543644e-05
3709.86,-4.4239830604057174e-05
3710.76,-4.4538112686447494e-05
3711.66,-4.5009539831463563e-05
3712.56,-4.600425336475534e-05
3713.46,-4.7652349902705135e-05
3714.36,-4.9389925367080784e-05
3715.26,-5.153548114073343e-05
3716.16,-5.3204035403653934e-05
3717.06,-5.386543121448859e-05
3717.96,-5.3192237016339845e-05
3718.86,-5.1945097132452185e-05
3719.76,-4.9278821811907044e-05
3720.66,-4.655978273554891e-05
3721.56,-4.438854665486949e-05
3722.46,-4.366090254308192e-05
3723.36,-4.4735779590575585e-05
3724.26,-4.702684584177135e-05
3725.16,-4.997044207996461e-05
3726.06,-5.312722428321466e-05
3726.96,-5.546370920348552e-05
3727.86,-5.729240353034227e-05
3728.76,-5.804809793249476e-05
3729.66,-5.776521484451538e-05
3730.56,-5.683915369189043e-05
3731.46,-5.4429421688455866e-05
3732.36,-5.156935242616676e-05
3733.26,-4.79522304558821e-05
3734.16,-4.520716098538231e-05
3735.06,-4.3539786823026375e-05
3735.96,-4.33969839469047e-05
3736.86,-4.5302142948294275e-05
3737.76,-4.861770918023475e-05
3738.66,-5.323948997285301e-05
3739.56,-5.7892520381041305e-05
3740.46,-6.190515440076497e-05
3741.36,-6.472907132220871e-05
3742.26,-6.610267460274287e-05
3743.16,-6.615627487987165e-05
3744.06,-6.48371550932683e-05
3744.96,-6.313536197558914e-05
3745.86,-6.043797513869391e-05
3746.76,-5.6891009572466986e-05
3747.67,-5.321805395641268e-05
3748.57,-5.017738037442206e-05
3749.47,-4.8133467149887785e-05
3750.37,-4.744689418652643e-05
3751.27,-4.862135836384236e-05
3752.17,-5.194638656070046e-05
3753.07,-5.6455628442763975e-05
3753.97,-6.183295571962621e-05
3754.87,-6.670842307936489e-05
3755.77,-7.047076543224438e-05
3756.67,-7.31320854029282e-05
3757.57,-7.44160788792815e-05
3758.47,-7.478737837692745e-05
3759.37,-7.497028671108816e-05
3760.27,-7.588944042904773e-05
3761.17,-7.656968814997935e-05
3762.07,-7.725517637049569e-05
3762.97,-7.848061302470939e-05
3763.87,-7.825120970603446e-05
3764.77,-7.76801477804859e-05
3765.67,-7.602192938155625e-05
3766.57,-7.39110180782837e-05
3767.47,-7.059272554132002e-05
3768.37,-6.693192711253938e-05
3769.27,-6.383024017803224e-05
3770.17,-6.121613063062798e-05
3771.07,-6.0434338697908246e-05
3771.97,-6.140389380461395e-05
3772.87,-6.38909010466734e-05
3773.77,-6.796323605846173e-05
3774.67,-7.269468902569679e-05
3775.57,-7.750588271151083e-05
3776.47,-8.250268096613407e-05
3777.37,-8.751621019871148e-05
3778.27,-9.179754165415675e-05
3779.17,-9.639414441954356e-05
3780.07,-0.0001002058455438011
3780.97,-0.00010369801911325652
3781.87,-0.00010643926851885933
3782.77,-0.00010869650842967247
3783.67,-0.00010942994434521311
3784.57,-0.00010950204758304457
3785.47,-0.000108481220337232
3786.38,-0.00010770338847713851
3787.28,-0.00010552696625267994
3788.18,-0.0001030027744459338
3789.08,-0.000100781300773744
3789.98,-9.928563346402793e-05
3790.88,-9.697409165774255e-05
3791.78,-9.477939316429585e-05
3792.68,-9.114131861657332e-05
3793.58,-8.720978198399016e-05
3794.48,-8.24566825226957e-05
3795.38,-7.728623650212523e-05
3796.28,-7.18267554768043e-05
3797.18,-6.77499563000534e-05
3798.08,-6.549763933757935e-05
3798.98,-6.544301666987306e-05
3799.88,-6.838871567104328e-05
3800.78,-7.30381512140364e-05
3801.68,-8.012187815053422e-05
3802.58,-8.770309152756252e-05
3803.48,-9.516290569709201e-05
3804.38,-0.00010149715279436954
3805.28,-0.00010674173580117135
3806.18,-0.00011136954983332967
3807.08,-0.00011527652544836896
3807.98,-0.00011948181520970736
3808.88,-0.0001230405544818835
3809.78,-0.00012723851330354776
3810.68,-0.00013039865255654783
3811.58,-0.00013233539884868205
3812.48,-0.0001336189133297612
3813.38,-0.00013324767704040282
3814.28,-0.00013233032047433213
3815.18,-0.00013278738859681528
3816.08,-0.00013373305289023774
3816.98,-0.00013437028392944875
3817.88,-0.00013552821809384804
3818.78,-0.00013675393642989655
3819.68,-0.00013685975985329517
3820.58,-0.0001364463795443249
3821.48,-0.000134849378914409
3822.38,-0.00013315486574992254
3823.28,-0.0001317058909777376
3824.18,-0.00012917315937072333
3825.09,-0.000126095251381784
3825.99,-0.00012277209540947998
3826.89,-0.00011936615599624916
3827.79,-0.0001156640476621931
3828.69,-0.00011251505825831742
3829.59,-0.00010849774290457503
3830.49,-0.00010415568364830384
3831.39,-9.884222390494313e-05
3832.29,-9.294180580392467e-05
3833.19,-8.694050416111238e-05
3834.09,-8.102359848528366e-05
3834.99,-7.696143336289252e-05
3835.89,-7.470471857033095e-05
3836.79,-7.550322677962414e-05
3837.69,-7.848698951844508e-05
3838.59,-8.347163369097639e-05
3839.49,-9.056542952215832e-05
3840.39,-9.892569205459774e-05
3841.29,-0.00010739567550334842
3842.19,-0.00011656287987048425
3843.09,-0.00012578841784592138
3843.99,-0.00013411715294938883
3844.89,-0.00014145530249724936
3845.79,-0.00014808169282531778
3846.69,-0.00015379583082366003
3847.59,-0.00015893099069595623
3848.49,-0.00016313662614163656
3849.39,-0.00016774688028475216
3850.29,-0.000171502063182588
3851.19,-0.000175212656664436
3852.09,-0.0001791541258861961
3852.99,-0.0001820841938353416
3853.89,-0.00018604605378057796
3854.79,-0.00018640346705899011
3855.69,-0.00018817302395725174
3856.59,-0.00018968361227494988
3857.49,-0.00018895188664377717
3858.39,-0.00018979265550750108
3859.29,-0.00019068058866939867
3860.19,-0.0001926170017481839
3861.09,-0.0001960519862740572
3861.99,-0.00019869321412116595
3862.9,-0.00020154597440128947
3863.8,-0.00020561182734870787
3864.7,-0.00020685270369121683
3865.6,-0.000209970528504607
3866.5,-0.00021050042771358538
3867.4,-0.0002112443578645686
3868.3,-0.00021286180830116478
3869.2,-0.00021175097723430248
3870.1,-0.00021106809020761847
3871.0,-0.00021083192475569834
3871.9,-0.00020767342960484369
3872.8,-0.00020611359090481218
3873.7,-0.0002044371937528804
3874.6,-0.00020306575028194965
3875.5,-0.00020135417658353243
3876.4,-0.00019974874734428083
3877.3,-0.00019755784725446733
3878.2,-0.00019331671241483268
3879.1,-0.00018925230644552783
3880.0,-0.00018617059544428583
3880.9,-0.0001821440684681554
3881.8,-0.00017854672593977468
3882.7,-0.00017490384096295283
3883.6,-0.00016800607447130128
3884.5,-0.00016062532647251297
3885.4,-0.00015259046482704562
3886.3,-0.0001431826190838484
3887.2,-0.0001332696318946868
3888.1,-0.0001257005027603481
3889.0,-0.0001206484882279606
3889.9,-0.000119603720395241
3890.8,-0.0001231971153253962
3891.7,-0.00013105120019008044
3892.6,-0.0001408786421750591
3893.5,-0.00015228367967802262
3894.4,-0.00016341553739149985
3895.3,-0.00017346533587656214
3896.2,-0.00018246747549046055
3897.1,-0.0001909854371944159
3898.0,-0.0001994732106361132
3898.9,-0.0002059161679109774
3899.8,-0.0002130748229936849
3900.7,-0.0002186473173365099
3901.6,-0.00022451467641165798
3902.51,-0.00023086440516310113
3903.41,-0.0002349829365339923
3904.31,-0.00024014887753125177
3905.21,-0.00024378503111371861
3906.11,-0.0002477287653598353
3907.01,-0.0002547831944971446
3907.91,-0.0002606499999888871
3908.81,-0.0002676424447378262
3909.71,-0.00027470834557453207
3910.61,-0.00028113995040115433
3911.51,-0.00028699988231805956
3912.41,-0.0002901126539414787
3913.31,-0.0002936437735962591
3914.21,-0.0002940203932408759
3915.11,-0.0002968541723443801
3916.01,-0.00029766473991494393
3916.91,-0.0002984146757280722
3917.81,-0.0002991338043878149
3918.71,-0.00030097226484978093
3919.61,-0.0002994763398660398
3920.51,-0.0003024693321281303
3921.41,-0.0003038903378924223
3922.31,-0.00030547830638294026
3923.21,-0.0003078764929500935
3924.11,-0.0003097463037403587
3925.01,-0.0003103169264156175
3925.91,-0.00030920687600421293
3926.81,-0.00030581286270541685
3927.71,-0.0002985285350696303
3928.61,-0.0002881809865072949
3929.51,-0.00027396609800893555
3930.41,-0.00025828293247289006
3931.31,-0.0002405160446103347
3932.21,-0.0002209525116733738
3933.11,-0.0002050271914174456
3934.01,-0.00019485085192221126
3934.91,-0.00019548689311981335
3935.81,-0.00020231328457088235
3936.71,-0.00021851793456279404
3937.61,-0.00024009833732678833
3938.51,-0.00026302588721590676
3939.42,-0.0002838346675102193
3940.32,-0.000300890246423004
3941.22,-0.0003134747433459074
3942.12,-0.0003238262590618812
3943.02,-0.00033088277509298806
3943.92,-0.0003356113122616683
3944.82,-0.00033769275122622826
3945.72,-0.0003429811019173615
3946.62,-0.00034557788340925234
3947.52,-0.0003496415665972745
3948.42,-0.0003521184015080846
3949.32,-0.000353644772566418
3950.22,-0.00035613481126956675
3951.12,-0.0003581821751867062
3952.02,-0.000357591633849466
3952.92,-0.0003577227674803391
3953.82,-0.00035672782825520036
3954.72,-0.0003548032222822257
3955.62,-0.000353339878760417
3956.52,-0.00035242618303108386
3957.42,-0.0003461927291117508
3958.32,-0.0003414877389165696
3959.22,-0.0003360242196085699
3960.12,-0.000327520638249423
3961.02,-0.00031962265168565237
3961.92,-0.00030684034055521614
3962.82,-0.0002921650828482118
3963.72,-0.00027654753440130476
3964.62,-0.00025786549084915854
3965.52,-0.0002378233395115668
3966.42,-0.00021631268110435087
3967.32,-0.00019473082527149326
3968.22,-0.00017558659986893473
3969.12,-0.00016106811849044117
3970.02,-0.00015559505898358087
3970.92,-0.00015731074241410325
3971.82,-0.0001677306160562088
3972.72,-0.00018481414375046828
3973.62,-0.00020799148321718548
3974.52,-0.00023230001243419385
3975.42,-0.00025780603196477655
3976.32,-0.00028163502060607503
3977.22,-0.0003066220749087973
3978.13,-0.0003265049305521928
3979.03,-0.000346347022356643
3979.93,-0.00036366548045012537
3980.83,-0.00037965825142189085
3981.73,-0.0003946067146119098
3982.63,-0.0004038693375535998
3983.53,-0.0004143125680077634
3984.43,-0.0004229673933699221
3985.33,-0.0004325170610172443
3986.23,-0.00044319724923308945
3987.13,-0.000452374861972938
3988.03,-0.0004631851194134779
3988.93,-0.00047309553823692035
3989.83,-0.000481487449377316
3990.73,-0.0004920845006658802
3991.63,-0.0005006184833814775
3992.53,-0.0005107223656044206
3993.43,-0.0005161368445656053
3994.33,-0.0005194843833352803
3995.23,-0.0005239741854708044
3996.13,-0.0005270907125679569
3997.03,-0.0005296761135282616
3997.93,-0.0005320908746430424
3998.83,-0.0005383825748680404
3999.73,-0.0005460766879162045
4000.63,-0.0005541736711524986
4001.53,-0.0005664014366110796
4002.43,-0.0005714401406281824
4003.33,-0.000574762982050428
4004.23,-0.0005783021597585801
4005.13,-0.0005788301905289492
4006.03,-0.0005776629776989425
4006.93,-0.0005822444160423738
4007.83,-0.0005889936749306028
4008.73,-0.000597637555657102
4009.63,-0.0006084705455670632
4010.53,-0.0006172507670368328
4011.43,-0.0006258891320462654
4012.33,-0.0006360235180395122
4013.23,-0.0006374752027648385
4014.13,-0.0006434061596023168
4015.03,-0.000646671914730852
4015.93,-0.0006538361884397028
4016.84,-0.0006605721957983881
4017.74,-0.0006648268384088187
4018.64,-0.0006736810177665584
4019.54,-0.0006770718287576433
4020.44,-0.000687780493820868
4021.34,-0.0006912583658090823
4022.24,-0.0006921771455507052
4023.14,-0.0007002704263700891
4024.04,-0.0006998396905532119
4024.94,-0.0007034196011869425
4025.84,-0.0007108302248805582
4026.74,-0.0007138929236768423
4027.64,-0.0007220062715196492
4028.54,-0.0007210815128099224
4029.44,-0.000721775139916438
4030.34,-0.0007184832512627777
4031.24,-0.000715524902952665
4032.14,-0.0007096299303947277
4033.04,-0.0007120993240043548
4033.94,-0.0007170738980132709
4034.84,-0.0007264977718309445
4035.74,-0.0007402847588495998
4036.64,-0.00075869451009644
4037.54,-0.0007700456869023021
4038.44,-0.0007841710540905611
4039.34,-0.0007947159168929101
4040.24,-0.0008036506898977074
4041.14,-0.0008058920802401248
4042.04,-0.0008018148546044057
4042.94,-0.0007968860311237731
4043.84,-0.0007929290271142045
4044.74,-0.0007905935264510728
4045.64,-0.0007848416886359661
4046.54,-0.0007882542259855512
4047.44,-0.0007979922034173412
4048.34,-0.0008096557136038579
4049.24,-0.0008250434790938466
4050.14,-0.0008410298334675885
4051.04,-0.000847731275987488
4051.94,-0.0008565604551173207
4052.84,-0.0008580833057556695
4053.74,-0.0008581292924899674
4054.65,-0.0008600001627923194
4055.55,-0.0008494821829353492
4056.45,-0.0008536125259192176
4057.35,-0.0008577657486251324
4058.25,-0.000865953498545359
4059.15,-0.0008702623447371285
4060.05,-0.0008795743019641985
4060.95,-0.0008881429022230094
4061.85,-0.0008920415351616773
4062.75,-0.0008920212861730991
4063.65,-0.0008910283355846178
4064.55,-0.0008920896536834502
4065.45,-0.0008903224583519972
4066.35,-0.0008988043666451253
4067.25,-0.0009074541911467557
4068.15,-0.0009190961388002118
4069.05,-0.0009305501762496584
4069.95,-0.000936537751981599
4070.85,-0.0009398704662361436
4071.75,-0.0009437098894580902
4072.65,-0.0009398102472839311
4073.55,-0.0009406417597493395
4074.45,-0.0009414933869299
4075.35,-0.0009341715460260062
4076.25,-0.0009301802956139908
4077.15,-0.0009223679036109599
4078.05,-0.0009243430783470724
4078.95,-0.000930854153508283
4079.85,-0.0009356349591089493
4080.75,-0.0009466053525451483
4081.65,-0.0009611576882368835
4082.55,-0.0009702163364218014
4083.45,-0.0009721302269671335
4084.35,-0.0009732331041792333
4085.25,-0.0009753158597798184
4086.15,-0.000976932561025031
4087.05,-0.0009794481969997069
4087.95,-0.0009817535546464055
4088.85,-0.0009834310925080577
4089.75,-0.000985819305609341
4090.65,-0.000983697851568125
4091.55,-0.0009713839542440928
4092.45,-0.0009592815316671221
4093.36,-0.0009421239887479275
4094.26,-0.0009226722224923448
4095.16,-0.0008988417987523435
4096.06,-0.0008682500046429673
4096.96,-0.0008355406788006209
4097.86,-0.0008001748339005816
4098.76,-0.0007572496700082571
4099.66,-0.0007196931204243944
4100.56,-0.0006829310825334131
4101.46,-0.0006535913125967072
4102.36,-0.0006412418389663829
4103.26,-0.000641973689986103
4104.16,-0.0006675258898293602
4105.06,-0.0007047780572256924
4105.96,-0.0007557464531454765
4106.86,-0.0008068157963481103
4107.76,-0.0008608541150528236
4108.66,-0.0009034545280170039
4109.56,-0.0009428020683170993
4110.46,-0.0009790661616353364
4111.36,-0.001014392138148965
4112.26,-0.0010498714702818284
4113.16,-0.001085003420485723
4114.06,-0.0011198389806805127
4114.96,-0.0011520866434660164
4115.86,-0.0011783043171433856
4116.76,-0.0012043347344727368
4117.66,-0.0012234384872110806
4118.56,-0.0012380703992387432
4119.46,-0.0012548953319303918
4120.36,-0.001266286336876708
4121.26,-0.0012803848265081049
4122.16,-0.001293691756694124
4123.06,-0.0013126097344825598
4123.96,-0.0013298382670030194
4124.86,-0.0013572712062409624
4125.76,-0.0013672212817757126
4126.66,-0.0013842135401828588
4127.56,-0.0013942427805730408
4128.46,-0.0013985664903655964
4129.36,-0.0014108555216849094
4130.26,-0.0014160253337951638
4131.17,-0.001424136680822706
4132.06,-0.001437666953949926
4132.97,-0.0014445357874968724
4133.87,-0.0014629771852215801
4134.77,-0.0014872716809928514
4135.67,-0.0015123060658911705
4136.57,-0.0015469172851337776
4137.47,-0.0015810581677812724
4138.37,-0.001615632239796149
4139.27,-0.0016370750485439787
4140.17,-0.0016487407937257658
4141.07,-0.0016582340707208601
4141.97,-0.0016614849415907984
4142.87,-0.001658194394283927
4143.77,-0.0016570170203185496
4144.67,-0.0016609832450316345
4145.57,-0.001675974272416113
4146.47,-0.001692174270768328
4147.37,-0.00171298796751473
4148.27,-0.0017336177563079885
4149.17,-0.0017573197709442254
4150.07,-0.0017663755136594632
4150.97,-0.0017795596090261633
4151.87,-0.0017851568436237824
4152.77,-0.001787132274356618
4153.67,-0.0018005165192761011
4154.57,-0.0018073657373072162
4155.47,-0.0018172292694526423
4156.37,-0.0018339062254688358
4157.27,-0.0018559392064064386
4158.17,-0.0018687470130393144
4159.07,-0.0018949264751625845
4159.97,-0.0019232437598813556
4160.87,-0.001953744299683205
4161.77,-0.0019764340943527908
4162.67,-0.0019950647658424922
4163.57,-0.002023510068164551
4164.47,-0.002040402753090588
4165.37,-0.002051799233494766
4166.27,-0.0020688701813280095
4167.17,-0.0020766614783453872
4168.07,-0.0020805467850237855
4168.98,-0.0020866407333394836
4169.88,-0.002086669095880612
4170.78,-0.0020853888423980334
4171.68,-0.002072050998811744
4172.58,-0.0020685924476241107
4173.48,-0.002063435155380917
4174.38,-0.0020631640785063964
4175.28,-0.002073943120956598
4176.18,-0.0020977117974733455
4177.08,-0.0021252392406468992
4177.98,-0.0021507393090375066
4178.88,-0.0021706110630332356
4179.78,-0.002192091510206794
4180.68,-0.0022317138943165
4181.58,-0.002248278398716104
4182.48,-0.0022878473341311715
4183.38,-0.002311143094173285
4184.28,-0.002336488887915566
4185.18,-0.0023663157764632955
4186.08,-0.0023743911203337503
4186.98,-0.002393317411661286
4187.88,-0.002415092568097739
4188.78,-0.0024367337794060674
4189.68,-0.0024630795150905943
4190.58,-0.0024949532603126866
4191.48,-0.0025286418190883634
4192.38,-0.0025612803454236354
4193.28,-0.002586741820120763
4194.18,-0.00260595682173328
4195.08,-0.0026218702251145144
4195.98,-0.0026120467545006237
4196.88,-0.0026116181830198658
4197.78,-0.0026126914428785215
4198.68,-0.0026123617278416464
4199.58,-0.002606599278283619
4200.48,-0.002621655834512696
4201.38,-0.002654890605440382
4202.28,-0.0026738585681092123
4203.18,-0.002711490155944107
4204.08,-0.0027385780466570413
4204.98,-0.0027889507309075637
4205.88,-0.002830031734351879
4206.79,-0.0028750427798482584
4207.69,-0.002919537426887454
4208.59,-0.002954813805543524
4209.49,-0.0029909232561045906
4210.39,-0.0030250411041763737
4211.29,-0.0030543936059893384
4212.19,-0.0030723648670430803
4213.09,-0.00308463779271786
4213.99,-0.0030995786891536013
4214.89,-0.003102758615972958
4215.79,-0.0031181907341632977
4216.69,-0.003119268659331049
4217.59,-0.0031638364725309707
4218.49,-0.0032020831735506596
4219.39,-0.003259112797434945
4220.29,-0.0032988803890098544
4221.19,-0.0033342622150958822
4222.09,-0.0033469836157695113
4222.99,-0.003350647483092256
4223.89,-0.0033156485348775533
4224.79,-0.003275989217600906
4225.69,-0.003247882419806776
4226.59,-0.00322421864147799
4227.49,-0.003227351980098568
4228.39,-0.0032664923322628823
4229.29,-0.0033347810405991943
4230.19,-0.0034375375529045768
4231.09,-0.0035298087114897124
4231.99,-0.0035787885935534545
4232.89,-0.003605701958160149
4233.79,-0.0036511511200504046
4234.69,-0.003668055787692841
4235.59,-0.0036692836523094024
4236.49,-0.003688173048986503
4237.39,-0.003715894135555472
4238.29,-0.0037545038494649486
4239.19,-0.0038050154798459357
4240.09,-0.0038475732242138536
4240.99,-0.0039054900742024504
4241.89,-0.0039556177007112015
4242.79,-0.004008849407662098
4243.69,-0.004046917943592305
4244.59,-0.004100966157014509
4245.5,-0.0041107211422795635
4246.4,-0.0041320770370583265
4247.3,-0.004120984610144413
4248.2,-0.004130196932236476
4249.1,-0.0041592256029885435
4250.0,-0.004166156505792757
4250.9,-0.004200234548541177
4251.8,-0.004234431585025069
4252.7,-0.004304499255065404
4253.6,-0.004349421121492319
4254.5,-0.004420527325051737
4255.4,-0.00446302380162215
4256.3,-0.004494222218955572
4257.2,-0.004536879760943761
4258.1,-0.004570690340569168
4259.0,-0.00461977262591805
4259.9,-0.004628620269834528
4260.8,-0.0046270929953508635
4261.7,-0.004688090478477494
4262.6,-0.004748702885229472
4263.5,-0.004841356892018615
4264.4,-0.0049207337166278535
4265.3,-0.005013548085814621
4266.2,-0.005086350039682987
4267.1,-0.005112963346640165
4268.0,-0.005088977309791133
4268.9,-0.005110984938692456
4269.8,-0.005082895662724798
4270.7,-0.005039189141977618
4271.6,-0.004994365776194271
4272.5,-0.0050029695260713665
4273.4,-0.0050196247461855616
4274.3,-0.005047143333370904
4275.2,-0.005140547244019374
4276.1,-0.005234758377867214
4277.0,-0.00533804612048659
4277.9,-0.005466778164091269
4278.8,-0.005557297283488484
4279.7,-0.005579240962468172
4280.6,-0.005652324672699058
4281.5,-0.005716310269211244
4282.4,-0.005723948545768498
