wave,flux
3700.85,-5.477680507103452e-05
3701.75,-5.4278293358323064e-05
3702.65,-5.246728526998064e-05
3703.55,-4.979630903974719e-05
3704.45,-4.6269664925286164e-05
3705.35,-4.331019610042582e-05
3706.25,-4.1109083033838156e-05
3707.15,-3.968347324874794e-05
3708.05,-3.9533456647204746e-05
3708.96,-4.0733711826333674e-05
3709.86,-4.2964780707699894e-05
3710.76,-4.5843127033791494e-05
3711.66,-4.960732601851161e-05
3712.56,-5.352032540144384e-05
3713.46,-5.6750898773951494e-05
3714.36,-5.920930635806589e-05
3715.26,-6.002188855138454e-05
3716.16,-5.948437844338576e-05
3717.06,-5.722431713857104e-05
3717.96,-5.355481825057591e-05
3718.86,-4.896470253208497e-05
3719.76,-4.4484949585593035e-05
3720.66,-4.085207193540773e-05
3721.56,-3.8611967183479966e-05
3722.46,-3.872730180183362e-05
3723.36,-4.081048712794205e-05
3724.26,-4.3973615962958665e-05
3725.16,-4.7797022931023945e-05
3726.06,-5.0529090814728605e-05
3726.96,-5.215048487554302e-05
3727.86,-5.283342347914665e-05
3728.76,-5.286488000625053e-05
3729.66,-5.2419002226702256e-05
3730.56,-5.124940230301701e-05
3731.46,-4.947272842362386e-05
3732.36,-4.6522725064458e-05
3733.26,-4.2740749885762915e-05
3734.16,-3.8899099637834985e-05
3735.06,-3.607722444828904e-05
3735.96,-3.474418971936961e-05
3736.86,-3.50907660172191e-05
3737.76,-3.776933415482711e-05
3738.66,-4.173588557855525e-05
3739.56,-4.6290558769646423e-05
3740.46,-5.05391024987318e-05
3741.36,-5.328725926038207e-05
3742.26,-5.409779525656081e-05
3743.16,-5.277507890430397e-05
3744.06,-5.015294352712032e-05
3744.96,-4.7227734424903414e-05
3745.86,-4.41486623180418e-05
3746.76,-4.162403836054918e-05
3747.67,-3.954001215012595e-05
3748.57,-3.841803747868348e-05
3749.47,-3.862466313704856e-05
3750.37,-4.083637646619476e-05
3751.27,-4.471039180016535e-05
3752.17,-4.9736146773995125e-05
3753.07,-5.575994048301424e-05
3753.97,-6.109625867040202e-05
3754.87,-6.476315946361164e-05
3755.77,-6.642758065788768e-05
3756.67,-6.569453785838841e-05
3757.57,-6.339859055792471e-05
3758.47,-6.003880944639388e-05
3759.37,-5.748024451681223e-05
3760.27,-5.6654102250145535e-05
3761.17,-5.676723116173879e-05
3762.07,-5.791136981421737e-05
3762.97,-5.928688071034379e-05
3763.87,-6.025227901217507e-05
3764.77,-6.070434937813153e-05
3765.67,-6.089771743459619e-05
3766.57,-6.150070169606976e-05
3767.47,-6.170810707597765e-05
3768.37,-6.301156347997505e-05
3769.27,-6.457165676639499e-05
3770.17,-6.685129251526678e-05
3771.07,-6.955447052210573e-05
3771.97,-7.189250732179217e-05
3772.87,-7.508086046293638e-05
3773.77,-7.746198144604464e-05
3774.67,-7.975470981202667e-05
3775.57,-8.099082221096707e-05
3776.47,-8.218165983284067e-05
3777.37,-8.319902193909296e-05
3778.27,-8.443145522065406e-05
3779.17,-8.669768110795865e-05
3780.07,-8.843203881496068e-05
3780.97,-9.101376202126196e-05
3781.87,-9.249430234236585e-05
3782.77,-9.392251511437939e-05
3783.67,-9.404192130303914e-05
3784.57,-9.254390390896291e-05
3785.47,-8.999650510840612e-05
3786.38,-8.626894410122605e-05
3787.28,-8.181221760118301e-05
3788.18,-7.809038175744352e-05
3789.08,-7.537306898728503e-05
3789.98,-7.410539397064845e-05
3790.88,-7.424163877267737e-05
3791.78,-7.42428142129256e-05
3792.68,-7.458509814680853e-05
3793.58,-7.377219530810722e-05
3794.48,-7.254211070068793e-05
3795.38,-7.083007144445213e-05
3796.28,-6.90704121496872e-05
3797.18,-6.721402330651738e-05
3798.08,-6.647876076711487e-05
3798.98,-6.720157275213876e-05
3799.88,-6.960287565129922e-05
3800.78,-7.340261107333427e-05
3801.68,-7.899926556551007e-05
3802.58,-8.501579192268147e-05
3803.48,-9.012296953463646e-05
3804.38,-9.366551517616215e-05
3805.28,-9.578467856712475e-05
3806.18,-9.627290560521957e-05
3807.08,-9.639320480814642e-05
3807.98,-9.593627945044535e-05
3808.88,-9.742273449371981e-05
3809.78,-9.859736844476773e-05
3810.68,-9.926562500146182e-05
3811.58,-9.94452154508626e-05
3812.48,-9.734406594076132e-05
3813.38,-9.335402407180886e-05
3814.28,-8.851793720268557e-05
3815.18,-8.434193517161411e-05
3816.08,-8.086999646428413e-05
3816.98,-7.906873478684162e-05
3817.88,-7.796327089489187e-05
3818.78,-7.726319587881344e-05
3819.68,-7.60301681288793e-05
3820.58,-7.46740055985226e-05
3821.48,-7.374394666221374e-05
3822.38,-7.279727299363337e-05
3823.28,-7.241230237806094e-05
3824.18,-7.062736478918604e-05
3825.09,-6.858027339286531e-05
3825.99,-6.656233315523063e-05
3826.89,-6.449594900598278e-05
3827.79,-6.348740535463476e-05
3828.69,-6.373170977720496e-05
3829.59,-6.403590890385094e-05
3830.49,-6.452028160252666e-05
3831.39,-6.443289315020147e-05
3832.29,-6.370547025829369e-05
3833.19,-6.251286342278863e-05
3834.09,-6.154147839578703e-05
3834.99,-6.137225782076428e-05
3835.89,-6.227612710208866e-05
3836.79,-6.2901108795565e-05
3837.69,-6.352122525448873e-05
3838.59,-6.443288962283367e-05
3839.49,-6.590626886460537e-05
3840.39,-6.827823951483044e-05
3841.29,-7.308132572410922e-05
3842.19,-7.918061538768994e-05
3843.09,-8.61436964421756e-05
3843.99,-9.295222147707152e-05
3844.89,-9.886804023768629e-05
3845.79,-0.00010287146095815122
3846.69,-0.00010639947672977884
3847.59,-0.00010764547446891793
3848.49,-0.00010793660232137038
3849.39,-0.0001083282968617006
3850.29,-0.00010751375409569932
3851.19,-0.00010793034739335439
3852.09,-0.00010812396472829499
3852.99,-0.00010815876555850718
3853.89,-0.00010825376566073324
3854.79,-0.0001070409263674045
3855.69,-0.0001049217226060078
3856.59,-0.00010166243711846553
3857.49,-9.86408509969975e-05
3858.39,-9.535581021087158e-05
3859.29,-9.364053760961255e-05
3860.19,-9.363704109317017e-05
3861.09,-9.588249888482608e-05
3861.99,-0.00010107426179730027
3862.9,-0.00010730428950413855
3863.8,-0.00011357401004543323
3864.7,-0.00011788054793803261
3865.6,-0.00012056226900209737
3866.5,-0.00012136480547617443
3867.4,-0.00012059952385801774
3868.3,-0.00011816135339268703
3869.2,-0.00011612952901846953
3870.1,-0.00011259107567340409
3871.0,-0.00011028621223019786
3871.9,-0.00010900197534288162
3872.8,-0.00010914531509214953
3873.7,-0.00011132234764299049
3874.6,-0.00011614001172159034
3875.5,-0.00012015463158701472
3876.4,-0.00012329149701051484
3877.3,-0.0001236607820809591
3878.2,-0.00012311563354791568
3879.1,-0.00012126142052039065
3880.0,-0.00011993506711489322
3880.9,-0.00011885404164533898
3881.8,-0.00011979668306207401
3882.7,-0.00012030813044476695
3883.6,-0.00012156817277234755
3884.5,-0.00012229652474031485
3885.4,-0.0001216678072582647
3886.3,-0.00012006345651384499
3887.2,-0.00011837090809752511
3888.1,-0.00011819801000709179
3889.0,-0.00011973181826700549
3889.9,-0.00012489804628490047
3890.8,-0.00013225084511599253
3891.7,-0.00014120824988626693
3892.6,-0.00015014982069255908
3893.5,-0.00015704214896613476
3894.4,-0.00016033811753047745
3895.3,-0.00016353695597813792
3896.2,-0.00016574458325570275
3897.1,-0.00016781134310003243
3898.0,-0.00016889125806429666
3898.9,-0.00017116942212074115
3899.8,-0.00017200232915150703
3900.7,-0.00017287008569670252
3901.6,-0.00017406097912976763
3902.51,-0.00017370308384629675
3903.41,-0.00017219067869739702
3904.31,-0.00017079419109077733
3905.21,-0.00016943830163552046
3906.11,-0.00017001062314464548
3907.01,-0.00017427053301857483
3907.91,-0.00018009001807531795
3908.81,-0.00018801990899675657
3909.71,-0.0001967401254682319
3910.61,-0.00020517209059290614
3911.51,-0.00021108107917117958
3912.41,-0.00021528279237494833
3913.31,-0.00021818774187786296
3914.21,-0.00021896708653585496
3915.11,-0.00021814511920559507
3916.01,-0.00021541059103070867
3916.91,-0.00021260366556236562
3917.81,-0.00020866293047783216
3918.71,-0.00020312826494140615
3919.61,-0.0001973682926491599
3920.51,-0.00019033439005629842
3921.41,-0.00018498607342184276
3922.31,-0.0001816835311567072
3923.21,-0.00017959178457683633
3924.11,-0.00017783801608367084
3925.01,-0.00017553893669864092
3925.91,-0.00017048329424461565
3926.81,-0.00016285764970751338
3927.71,-0.00015111419412465606
3928.61,-0.0001373831276567562
3929.51,-0.0001221698847074922
3930.41,-0.00010733513131887152
3931.31,-9.304537913582607e-05
3932.21,-8.177419814203016e-05
3933.11,-7.321793403403864e-05
3934.01,-6.898189126734993e-05
3934.91,-6.920906864482119e-05
3935.81,-7.421767722555328e-05
3936.71,-8.352193836369475e-05
3937.61,-9.760232191497145e-05
3938.51,-0.00011291628871797805
3939.42,-0.00012963349328842455
3940.32,-0.00014545724636509807
3941.22,-0.00015781912777985534
3942.12,-0.00016854990192762274
3943.02,-0.00017681458934017463
3943.92,-0.0001838267746612169
3944.82,-0.000192367233102338
3945.72,-0.00020332063110945622
3946.62,-0.00021414449871461544
3947.52,-0.00022607878796575197
3948.42,-0.00023817263765066714
3949.32,-0.00024841330554569775
3950.22,-0.00025797760434717067
3951.12,-0.00026483389831682204
3952.02,-0.00027017951231526535
3952.92,-0.00027494372178061047
3953.82,-0.00027780916239891594
3954.72,-0.00027886967940151915
3955.62,-0.00028075798316500717
3956.52,-0.0002801305204347251
3957.42,-0.00027823538312178104
3958.32,-0.00027518170256325393
3959.22,-0.0002693931230906494
3960.12,-0.00025903103219849653
3961.02,-0.00024700259007361266
3961.92,-0.0002298154110212285
3962.82,-0.0002113620512490254
3963.72,-0.00019381566961663055
3964.62,-0.00017609762020150499
3965.52,-0.00015878408555020405
3966.42,-0.0001420734586637385
3967.32,-0.00012633103831458475
3968.22,-0.00011329708552619749
3969.12,-0.00010640778335780129
3970.02,-0.0001063058819183675
3970.92,-0.00011480229359955075
3971.82,-0.00012977349477519861
3972.72,-0.00014903622725027734
3973.62,-0.00017278246482680396
3974.52,-0.0001975742711642491
3975.42,-0.00022321779752289478
3976.32,-0.00024796929023506364
3977.22,-0.00027209612933075514
3978.13,-0.00029595146392964776
3979.03,-0.00031753138099381703
3979.93,-0.0003366303488071276
3980.83,-0.000350387503330594
3981.73,-0.0003611918294237195
3982.63,-0.000368123942270441
3983.53,-0.00037352782647064926
3984.43,-0.0003779558033973388
3985.33,-0.0003829861523436937
3986.23,-0.0003901034393401312
3987.13,-0.0003985381147071068
3988.03,-0.00040630681933070544
3988.93,-0.0004158261697219078
3989.83,-0.00042429854682190664
3990.73,-0.0004325879335177073
3991.63,-0.00043829662110969977
3992.53,-0.00044347497529684054
3993.43,-0.00044833779627443467
3994.33,-0.00045129000776337655
3995.23,-0.00045186625291821023
3996.13,-0.0004480956182465702
3997.03,-0.0004494655827587029
3997.93,-0.0004520305261515971
3998.83,-0.0004570142276363177
3999.73,-0.0004696510378851259
4000.63,-0.0004798533933613798
4001.53,-0.0004926188870883034
4002.43,-0.0005009343358918638
4003.33,-0.0005025347104286548
4004.23,-0.0004970759656363038
4005.13,-0.0004910691295547698
4006.03,-0.0004853675957447498
4006.93,-0.00048264698489301533
4007.83,-0.000487682577502741
4008.73,-0.0004958157171815166
4009.63,-0.0005129602257926652
4010.53,-0.0005246408090842646
4011.43,-0.000539275837475781
4012.33,-0.0005496300492260339
4013.23,-0.0005572094583234908
4014.13,-0.0005645409683878422
4015.03,-0.0005725402069321825
4015.93,-0.0005766164391567461
4016.84,-0.0005812005927434408
4017.74,-0.0005857813548090061
4018.64,-0.0005909750282756337
4019.54,-0.0005963173419454612
4020.44,-0.0006022898200226995
4021.34,-0.0006067344257255726
4022.24,-0.0006107298876042598
4023.14,-0.0006116145685181907
4024.04,-0.0006128395361643874
4024.94,-0.0006156845657870571
4025.84,-0.0006240616739545631
4026.74,-0.0006266503411283747
4027.64,-0.0006363193550327971
4028.54,-0.00063792387424788
4029.44,-0.0006305713964967132
4030.34,-0.0006152974714042456
4031.24,-0.0005969078454200183
4032.14,-0.0005789212639932243
4033.04,-0.0005685163615755588
4033.94,-0.0005675471161549585
4034.84,-0.0005772306661406232
4035.74,-0.0006006905967148595
4036.64,-0.0006270247166862328
4037.54,-0.0006571029959877754
4038.44,-0.0006860760407370089
4039.34,-0.0007010987983776026
4040.24,-0.0007101212538203792
4041.14,-0.0007121838881669002
4042.04,-0.0007049787451605178
4042.94,-0.0006879549569851445
4043.84,-0.0006650626827819042
4044.74,-0.000640074407694551
4045.64,-0.000618019914911987
4046.54,-0.0006102895390295343
4047.44,-0.0006180958397460243
4048.34,-0.0006407462073487163
4049.24,-0.0006761282748552506
4050.14,-0.0007112407813616871
4051.04,-0.000738219859245895
4051.94,-0.0007513212259956276
4052.84,-0.000758480986279878
4053.74,-0.0007549770078191112
4054.65,-0.000747658934919491
4055.55,-0.0007374887811601373
4056.45,-0.0007303241618125237
4057.35,-0.0007242924844864131
4058.25,-0.000720959025959268
4059.15,-0.0007273165354765604
4060.05,-0.0007291835752879472
4060.95,-0.0007329900487757755
4061.85,-0.0007344904246313458
4062.75,-0.0007237874003364083
4063.65,-0.0007169212648460545
4064.55,-0.0007091226961350716
4065.45,-0.0007135879526820646
4066.35,-0.0007262817374688898
4067.25,-0.0007524229496592715
4068.15,-0.000770635903641361
4069.05,-0.0007944353772530189
4069.95,-0.0008082746147512372
4070.85,-0.0008163847450714418
4071.75,-0.0008180919349562486
4072.65,-0.000823381861053451
4073.55,-0.0008212214571604136
4074.45,-0.0008207925958881919
4075.35,-0.0008231136673605274
4076.25,-0.0008186693033626059
4077.15,-0.000815019084391297
4078.05,-0.0008176674176746607
4078.95,-0.0008243565881511848
4079.85,-0.0008549673791784795
4080.75,-0.0008867279207823332
4081.65,-0.000919930060369289
4082.55,-0.0009485900966014595
4083.45,-0.0009658950156746927
4084.35,-0.0009790817140916187
4085.25,-0.0009907395156231273
4086.15,-0.0010072973139053038
4087.05,-0.0010323102100381453
4087.95,-0.0010541576308685896
4088.85,-0.0010806905846719058
4089.75,-0.0011047223863949133
4090.65,-0.0011087306892779809
4091.55,-0.0011183772284476087
4092.45,-0.001113055227138329
4093.36,-0.0011010350055489428
4094.26,-0.0010947559006990498
4095.16,-0.0010704214425646783
4096.06,-0.0010548661025314395
4096.96,-0.0010291276173310716
4097.86,-0.0010019262908462516
4098.76,-0.0009817387286108613
4099.66,-0.0009553400980148064
4100.56,-0.0009280778679569068
4101.46,-0.0009161104763855375
4102.36,-0.0009091679402745145
4103.26,-0.0009277574216311167
4104.16,-0.0009509818861904571
4105.06,-0.0009946710061397848
4105.96,-0.0010409224201685845
4106.86,-0.0010866074069813235
4107.76,-0.0011287726674433555
4108.66,-0.0011540994803560343
4109.56,-0.0011665466500969345
4110.46,-0.0011796682846289947
4111.36,-0.0011929970427059019
4112.26,-0.0012030776330311185
4113.16,-0.0012239109499523546
4114.06,-0.0012478012338079606
4114.96,-0.0012683092102752237
4115.86,-0.001293475652613468
4116.76,-0.001302669669092667
4117.66,-0.0013089767195790633
4118.56,-0.0013075280804495132
4119.46,-0.0013120105833964973
4120.36,-0.0013031291971978285
4121.26,-0.0013089381788175126
4122.16,-0.0013188952466633003
4123.06,-0.0013272773829924361
4123.96,-0.001341883843854727
4124.86,-0.0013594801216042065
4125.76,-0.0013714071929736376
4126.66,-0.001378703357730001
4127.56,-0.0013829878343517834
4128.46,-0.001375194241787419
4129.36,-0.0013617324572019168
4130.26,-0.0013536932389531184
4131.17,-0.0013409798433595035
4132.06,-0.001324536530759098
4132.97,-0.0013173443332245318
4133.87,-0.0013266263377557084
4134.77,-0.001349290339663306
4135.67,-0.0013856364888234973
4136.57,-0.0014343662372837377
4137.47,-0.0014869939614550296
4138.37,-0.0015238925280215364
4139.27,-0.001550138210730399
4140.17,-0.0015640061994386875
4141.07,-0.0015523291544714077
4141.97,-0.0015249461027985944
4142.87,-0.0014963611451277537
4143.77,-0.0014682546855131918
4144.67,-0.001454733384716119
4145.57,-0.0014628691180739554
4146.47,-0.0014859134774463448
4147.37,-0.0015258693686472067
4148.27,-0.0015591915605514108
4149.17,-0.0015888187056465177
4150.07,-0.0016035064313979516
4150.97,-0.0016066230965399166
4151.87,-0.0016051002421010993
4152.77,-0.0016101477498781322
4153.67,-0.0016085648005155799
4154.57,-0.0016140464227670953
4155.47,-0.0016225006120012646
4156.37,-0.0016371870383417035
4157.27,-0.0016586509844962358
4158.17,-0.0017012261507404342
4159.07,-0.0017352919440028188
4159.97,-0.0017913962467659388
4160.87,-0.0018348074142246283
4161.77,-0.0018757712962099308
4162.67,-0.0019164351639765606
4163.57,-0.0019416173515149464
4164.47,-0.0019612133022888444
4165.37,-0.0019641002511876747
4166.27,-0.0019518391418204336
4167.17,-0.001948585792636707
4168.07,-0.0019361376038084053
4168.98,-0.001928228267327739
4169.88,-0.0019256369080795205
4170.78,-0.0019164689067099516
4171.68,-0.0018890778751995694
4172.58,-0.001871820851721821
4173.48,-0.0018562732751094334
4174.38,-0.0018372365886584717
4175.28,-0.0018451588133195133
4176.18,-0.0018700317367990173
4177.08,-0.0018962736764217701
4177.98,-0.0019336517213764872
4178.88,-0.001971036633439462
4179.78,-0.00201062161782519
4180.68,-0.002043343719651919
4181.58,-0.0020726318629267805
4182.48,-0.002101526197341788
4183.38,-0.002124844160810279
4184.28,-0.00215846022604859
4185.18,-0.002177639448752343
4186.08,-0.0021949424809624093
4186.98,-0.002210972522816649
4187.88,-0.002221891931328458
4188.78,-0.002236965697502744
4189.68,-0.002265625303096879
4190.58,-0.0023079284173403384
4191.48,-0.0023488921972930716
4192.38,-0.002385063645286871
4193.28,-0.002430363239576426
4194.18,-0.002451559304285699
4195.08,-0.002440223961130153
4195.98,-0.002409103272660034
4196.88,-0.0023739278806825465
4197.78,-0.0023379019281788804
4198.68,-0.002299999715018956
4199.58,-0.0022955863351992504
4200.48,-0.0022947900564290248
4201.38,-0.002321246729048767
4202.28,-0.0023596514501868413
4203.18,-0.0024152613504847572
4204.08,-0.0024772641314462092
4204.98,-0.002566463912133076
4205.88,-0.0026508185726351954
4206.79,-0.002727798551437557
4207.69,-0.0028246261070861787
4208.59,-0.002876881304421131
4209.49,-0.002926807797935826
4210.39,-0.002965337682554878
4211.29,-0.0029771063515763195
4212.19,-0.0029810530458193683
4213.09,-0.0029812661368539637
4213.99,-0.002984631262743163
4214.89,-0.0029691131140015224
4215.79,-0.002953667271633987
4216.69,-0.0029817375709932283
4217.59,-0.00305167094117243
4218.49,-0.0031238108375848533
4219.39,-0.003241517025828683
4220.29,-0.003292499822058301
4221.19,-0.003313775193866914
4222.09,-0.0033072717140013377
4222.99,-0.0032412197251020843
4223.89,-0.003105554220287769
4224.79,-0.0029561971581583166
4225.69,-0.0027931973624230784
4226.59,-0.0026681652263381636
4227.49,-0.0026286268321233036
4228.39,-0.0026794435673904928
4229.29,-0.0028319331779669854
4230.19,-0.003015645381243147
4231.09,-0.0032204387557205516
4231.99,-0.003362703507555058
4232.89,-0.0034705316649918288
4233.79,-0.0035224230853721644
4234.69,-0.003553213153926033
4235.59,-0.0035336774161034076
4236.49,-0.0035246597993248696
4237.39,-0.0035336770806853822
4238.29,-0.003565371349069978
4239.19,-0.003630851482397847
4240.09,-0.00372589397866131
4240.99,-0.0038300588489528207
4241.89,-0.003937735647191956
4242.79,-0.00406881973239002
4243.69,-0.0041771014314445675
4244.59,-0.004247334662404858
4245.5,-0.0043097731010644826
4246.4,-0.0043148756135380035
4247.3,-0.0042690571909342
4248.2,-0.004230650348544015
4249.1,-0.004138976034144191
4250.0,-0.004092592783124088
4250.9,-0.004039236551009847
4251.8,-0.004042186687674955
4252.7,-0.004080166791141993
4253.6,-0.004134513993059263
4254.5,-0.004188088580099266
4255.4,-0.004224369152340269
4256.3,-0.0043221033581879904
4257.2,-0.004376195521973307
4258.1,-0.004412257352376439
4259.0,-0.004422404154578495
4259.9,-0.004440154949348325
4260.8,-0.0044348253245513605
4261.7,-0.004515259580879256
4262.6,-0.004644392020739158
4263.5,-0.004838710904769409
4264.4,-0.005022212272088599
4265.3,-0.005203251555304193
4266.2,-0.005295746395717777
4267.1,-0.005350318343802483
4268.0,-0.0053207631274306616
4268.9,-0.005165131257707184
4269.8,-0.005006036096572317
4270.7,-0.0047990251251145396
4271.6,-0.004632421375257404
4272.5,-0.004485790184898953
4273.4,-0.0044518217876192276
4274.3,-0.0045146206033314425
4275.2,-0.004638785083850718
4276.1,-0.004850176655718236
4277.0,-0.005107525240174199
4277.9,-0.005340604342088873
4278.8,-0.005541856762593671
4279.7,-0.005695303987107468
4280.6,-0.005763819975740368
4281.5,-0.005830955822453398
