wave,flux
3700.85,-0.00010715184009980491
3701.75,-0.00010654607483714331
3702.65,-0.00010332668399324673
3703.55,-9.932504158791409e-05
3704.45,-9.483726655122157e-05
3705.35,-9.066341957894675e-05
3706.25,-8.818898686813314e-05
3707.15,-8.708407713297763e-05
3708.05,-8.785729960742104e-05
3708.96,-8.933316442279792e-05
3709.86,-9.234849013828963e-05
3710.76,-9.601119002968133e-05
3711.66,-0.00010045522859598964
3712.56,-0.00010488800343106688
3713.46,-0.00011041347217924265
3714.36,-0.00011497227863774302
3715.26,-0.00011785125015037054
3716.16,-0.00011853268277783339
3717.06,-0.00011740471862974724
3717.96,-0.00011339981415698376
3718.86,-0.00010701135757963166
3719.76,-0.0001000262452252365
3720.66,-9.366950226031097e-05
3721.56,-8.948768148547923e-05
3722.46,-8.883844810652107e-05
3723.36,-9.232478670219901e-05
3724.26,-9.751585644449614e-05
3725.16,-0.00010425611519640175
3726.06,-0.00011031104170877048
3726.96,-0.00011385959950153214
3727.86,-0.00011597251467553412
3728.76,-0.0001172046998159983
3729.66,-0.00011647139613502244
3730.56,-0.00011520456433506267
3731.46,-0.00011205588297051476
3732.36,-0.00010654777436325523
3733.26,-9.997835688932774e-05
3734.16,-9.290234544364121e-05
3735.06,-8.779256268151355e-05
3735.96,-8.530676424678455e-05
3736.86,-8.705435371162407e-05
3737.76,-9.18709702918899e-05
3738.66,-9.929684565756316e-05
3739.56,-0.00010788972304124098
3740.46,-0.00011596131473899502
3741.36,-0.00012109995626328096
3742.26,-0.00012353445792773296
3743.16,-0.00012280930913558056
3744.06,-0.00011930221362549646
3744.96,-0.0001146312972651348
3745.86,-0.00010959742677253773
3746.76,-0.00010404702771226613
3747.67,-9.94547212982317e-05
3748.57,-9.626155978236909e-05
3749.47,-9.44559015933214e-05
3750.37,-9.663309456697802e-05
3751.27,-0.0001025516146528314
3752.17,-0.00011147539047266859
3753.07,-0.0001218311579246333
3753.97,-0.00013207139575198713
3754.87,-0.0001396934170794891
3755.77,-0.0001444279482748541
3756.67,-0.00014486631846279314
3757.57,-0.000141321461051209
3758.47,-0.0001374355532753422
3759.37,-0.00013400639516636297
3760.27,-0.0001328191663199612
3761.17,-0.0001339208220724654
3762.07,-0.00013690990350588046
3762.97,-0.0001403427718198638
3763.87,-0.00014353357298069376
3764.77,-0.0001446417643325907
3765.67,-0.00014574611051939023
3766.57,-0.00014638558213536174
3767.47,-0.00014478492910821936
3768.37,-0.00014402205033319724
3769.27,-0.0001432354803163706
3770.17,-0.0001439977796743457
3771.07,-0.00014603457030553342
3771.97,-0.00014914059020878733
3772.87,-0.00015425092515998915
3773.77,-0.0001602081565866675
3774.67,-0.0001663769174757516
3775.57,-0.00017091981523129155
3776.47,-0.0001743760331870322
3777.37,-0.00017845869348852942
3778.27,-0.00018287886204483532
3779.17,-0.0001874327801709721
3780.07,-0.0001916761719434846
3780.97,-0.00019679088211999217
3781.87,-0.0002001252893994517
3782.77,-0.00020171743062926596
3783.67,-0.00020291962850424726
3784.57,-0.0002010717522492448
3785.47,-0.00019781804021747315
3786.38,-0.00019328377760223888
3787.28,-0.00018715179582126174
3788.18,-0.00018355067569605137
3789.08,-0.0001795470358575179
3789.98,-0.0001786810897426515
3790.88,-0.00017794137149591523
3791.78,-0.0001780046660856547
3792.68,-0.00017779581504977
3793.58,-0.00017581879483286484
3794.48,-0.000171588251647604
3795.38,-0.00016636047459291868
3796.28,-0.00016113026968628217
3797.18,-0.00015668169753092464
3798.08,-0.00015501207177138406
3798.98,-0.00015513963312596343
3799.88,-0.00016032323538786374
3800.78,-0.00016887997270376802
3801.68,-0.00018052103867631058
3802.58,-0.0001941565992443086
3803.48,-0.00020585522076153217
3804.38,-0.0002133122411715909
3805.28,-0.00021942814132714625
3806.18,-0.00022168466213430793
3807.08,-0.0002223435495744917
3807.98,-0.00022430424553353747
3808.88,-0.0002253623997251714
3809.78,-0.0002282101377552287
3810.68,-0.00023078418167545055
3811.58,-0.00023080223129621415
3812.48,-0.00022706157880012973
3813.38,-0.00022161157395713098
3814.28,-0.00021477831959656262
3815.18,-0.0002091258636787812
3816.08,-0.00020504782653977874
3816.98,-0.00020422076770790657
3817.88,-0.00020421737209491166
3818.78,-0.00020391139455081713
3819.68,-0.00020263352479343977
3820.58,-0.00020218817855127236
3821.48,-0.00020002004323851352
3822.38,-0.0001986671532356911
3823.28,-0.00019790543484714322
3824.18,-0.0001952526600038623
3825.09,-0.00019132443080995722
3825.99,-0.00018611068878624453
3826.89,-0.00018288232479770066
3827.79,-0.0001804860415628799
3828.69,-0.00017956745351347872
3829.59,-0.00017865169804491245
3830.49,-0.00017740188219782252
3831.39,-0.00017427329059473322
3832.29,-0.00016895691667455557
3833.19,-0.00016376115908317259
3834.09,-0.00015868482820997705
3834.99,-0.0001552692963528613
3835.89,-0.0001549342302626834
3836.79,-0.0001567355745280189
3837.69,-0.00016021765507395072
3838.59,-0.00016425440194352983
3839.49,-0.00017049131551921779
3840.39,-0.00018018253130784218
3841.29,-0.00019210959560134414
3842.19,-0.00020694194744482136
3843.09,-0.00022224130366371004
3843.99,-0.0002373011823260286
3844.89,-0.00025077903487982696
3845.79,-0.0002597821159917708
3846.69,-0.00026613536639566535
3847.59,-0.00027004978950331485
3848.49,-0.00027427841147102607
3849.39,-0.00027480029192542975
3850.29,-0.0002771444911710056
3851.19,-0.0002775727495169345
3852.09,-0.0002790117445591258
3852.99,-0.0002821511469226703
3853.89,-0.00028269472854347
3854.79,-0.00028272146400698056
3855.69,-0.00027853286749268615
3856.59,-0.0002745602743826754
3857.49,-0.00026741161728032674
3858.39,-0.00026139737689774816
3859.29,-0.00025914520711550483
3860.19,-0.0002573081113515471
3861.09,-0.0002630980021772143
3861.99,-0.000272483008582135
3862.9,-0.000283958675410957
3863.8,-0.00029492920289564607
3864.7,-0.0003042179843919749
3865.6,-0.0003111777452067112
3866.5,-0.00031363812423432485
3867.4,-0.0003151138691346739
3868.3,-0.00031473525712534984
3869.2,-0.00031222218853392525
3870.1,-0.00030874104999952624
3871.0,-0.0003016276171868198
3871.9,-0.000295388287227406
3872.8,-0.0002932018539622872
3873.7,-0.00029200376808410694
3874.6,-0.0002949407333137161
3875.5,-0.00029954739250437237
3876.4,-0.0003042223104846122
3877.3,-0.0003053311313555526
3878.2,-0.0003047952689335213
3879.1,-0.00030559046088461114
3880.0,-0.00030505667537605505
3880.9,-0.00030611261901906754
3881.8,-0.0003071476110599063
3882.7,-0.0003094647086570042
3883.6,-0.0003077678347519967
3884.5,-0.0003034798476021008
3885.4,-0.0002982324565243772
3886.3,-0.00029029788526394403
3887.2,-0.0002802373734544829
3888.1,-0.0002727760003175585
3889.0,-0.00027159668142425413
3889.9,-0.0002740793192213855
3890.8,-0.0002847703845833643
3891.7,-0.0002970375591411674
3892.6,-0.00031255893100612397
3893.5,-0.0003279102134856516
3894.4,-0.00033823397030059694
3895.3,-0.00034693506993841583
3896.2,-0.0003532328646114248
3897.1,-0.00035991816170008586
3898.0,-0.0003655856351359918
3898.9,-0.0003701075865456817
3899.8,-0.0003733534994554478
3900.7,-0.00037930658411252825
3901.6,-0.000382317297819698
3902.51,-0.00038196673310600366
3903.41,-0.0003818285349887048
3904.31,-0.0003810550283400731
3905.21,-0.00038091545248827066
3906.11,-0.00038199361309195737
3907.01,-0.0003853476840581905
3907.91,-0.00039559406649871564
3908.81,-0.00040679521815531705
3909.71,-0.0004235097779612285
3910.61,-0.0004367844371995733
3911.51,-0.0004456667451864545
3912.41,-0.00045446251153345507
3913.31,-0.0004581878332548744
3914.21,-0.0004596494423310601
3915.11,-0.000456680774971712
3916.01,-0.00045192136456970953
3916.91,-0.00044896584769654594
3917.81,-0.00044166389891856737
3918.71,-0.00043553598156001325
3919.61,-0.0004303223327343346
3920.51,-0.0004231758256717931
3921.41,-0.0004173552070603684
3922.31,-0.0004118976166465726
3923.21,-0.0004087969778668563
3924.11,-0.0004075161012485499
3925.01,-0.0004007910579978364
3925.91,-0.00039018760097458825
3926.81,-0.0003744217645433493
3927.71,-0.0003503300750142794
3928.61,-0.0003213510893557291
3929.51,-0.0002875889729124088
3930.41,-0.0002518749061781658
3931.31,-0.00021861151766627978
3932.21,-0.00018937827571005318
3933.11,-0.00016582674037408793
3934.01,-0.00015235540203863618
3934.91,-0.00015243581785060194
3935.81,-0.0001638758614126226
3936.71,-0.00018691462388144555
3937.61,-0.00021990310243502427
3938.51,-0.0002594915695274576
3939.42,-0.0002994087744069379
3940.32,-0.0003358048799200755
3941.22,-0.00036749010499549233
3942.12,-0.0003933192284063331
3943.02,-0.0004160116450214579
3943.92,-0.000433407582007139
3944.82,-0.0004500400869737971
3945.72,-0.0004691376422581512
3946.62,-0.00048766764022909154
3947.52,-0.0005040700803240893
3948.42,-0.0005208487125770877
3949.32,-0.0005366331813223455
3950.22,-0.0005482119901801213
3951.12,-0.0005578271191385036
3952.02,-0.0005663364551220095
3952.92,-0.0005748545283281209
3953.82,-0.0005810160081066646
3954.72,-0.0005860453243107665
3955.62,-0.0005892026312977899
3956.52,-0.0005880034624107998
3957.42,-0.0005872143569492023
3958.32,-0.00058318454989678
3959.22,-0.0005736857266036824
3960.12,-0.0005615384347748922
3961.02,-0.0005442505830159454
3961.92,-0.0005157259993239863
3962.82,-0.0004842686780583997
3963.72,-0.0004492357542670066
3964.62,-0.0004108860092250495
3965.52,-0.00036957086713326255
3966.42,-0.00032763762873621005
3967.32,-0.00028608697783901317
3968.22,-0.00025412559843605365
3969.12,-0.00023404165206176137
3970.02,-0.00023142819532950663
3970.92,-0.0002481393051688035
3971.82,-0.00028078628743298816
3972.72,-0.00032555847183411804
3973.62,-0.00038000593303857174
3974.52,-0.00043607279683010794
3975.42,-0.0004882946879984294
3976.32,-0.0005384772762113354
3977.22,-0.0005847820432310273
3978.13,-0.0006269874955698142
3979.03,-0.0006644078790371875
3979.93,-0.0006965169047701945
3980.83,-0.0007184532749355638
3981.73,-0.0007372946038789168
3982.63,-0.0007479217421510811
3983.53,-0.000757107680146232
3984.43,-0.0007691169971236772
3985.33,-0.0007814990047640152
3986.23,-0.000793963245079311
3987.13,-0.0008072560602663157
3988.03,-0.0008251958742001399
3988.93,-0.0008395095615565387
3989.83,-0.0008499733748879116
3990.73,-0.0008644196351409621
3991.63,-0.0008736816914164194
3992.53,-0.0008875285418163916
3993.43,-0.0008921088559836479
3994.33,-0.0008945181576147252
3995.23,-0.0008993503833648891
3996.13,-0.000892335198895611
3997.03,-0.0008912278504069587
3997.93,-0.000887656970190398
3998.83,-0.00089655073558075
3999.73,-0.0009133639131521591
4000.63,-0.0009309658015451768
4001.53,-0.0009466689762321587
4002.43,-0.0009642075276987437
4003.33,-0.0009695984442944609
4004.23,-0.0009681108369812315
4005.13,-0.0009624383962724351
4006.03,-0.0009551759058456586
4006.93,-0.0009590179414536867
4007.83,-0.0009707219218558724
4008.73,-0.0009889322909352241
4009.63,-0.0010086320072648512
4010.53,-0.0010299662504370721
4011.43,-0.0010464504756786484
4012.33,-0.001061861718126046
4013.23,-0.0010713765113794069
4014.13,-0.0010867157377596668
4015.03,-0.0010927325529594785
4015.93,-0.0011007469549926096
4016.84,-0.001107305931551909
4017.74,-0.0011146352572765604
4018.64,-0.0011237059273186004
4019.54,-0.001135494642011836
4020.44,-0.0011412611758225399
4021.34,-0.0011499273592593996
4022.24,-0.001154050109649007
4023.14,-0.001168574225237034
4024.04,-0.0011759073556648033
4024.94,-0.0011840133756149383
4025.84,-0.0011932363109155143
4026.74,-0.001210357768189663
4027.64,-0.0012207242310048176
4028.54,-0.0012246683810811724
4029.44,-0.0012221276994750945
4030.34,-0.0012071856276662724
4031.24,-0.001191036486908038
4032.14,-0.0011706914844308274
4033.04,-0.0011698199770792416
4033.94,-0.0011728767920937098
4034.84,-0.0011919783528911594
4035.74,-0.001228583286182819
4036.64,-0.0012633535515044812
4037.54,-0.0013107567600336165
4038.44,-0.0013411082792533838
4039.34,-0.0013666509369854953
4040.24,-0.0013723310440668778
4041.14,-0.0013786987634574251
4042.04,-0.0013695711930723205
4042.94,-0.0013517376628162038
4043.84,-0.0013262265923984634
4044.74,-0.0013043328158492925
4045.64,-0.0012758275244125659
4046.54,-0.0012736294093744448
4047.44,-0.0012862865363388325
4048.34,-0.0013292207975191363
4049.24,-0.0013629638879938911
4050.14,-0.0014097552404383755
4051.04,-0.0014472723110573625
4051.94,-0.0014740371912361396
4052.84,-0.0014845020126667645
4053.74,-0.0014880694041927538
4054.65,-0.0014869981963064561
4055.55,-0.0014823617399506927
4056.45,-0.0014889561153403536
4057.35,-0.0014893219366469204
4058.25,-0.001493581793209863
4059.15,-0.0015085017916551696
4060.05,-0.001515899076170183
4060.95,-0.0015261685004904998
4061.85,-0.001522436118044989
4062.75,-0.0015140651400455867
4063.65,-0.0015018354176601645
4064.55,-0.001494488787151023
4065.45,-0.0014956824451852748
4066.35,-0.001517851078431646
4067.25,-0.0015440506747655955
4068.15,-0.0015807127777119857
4069.05,-0.0016102430029333065
4069.95,-0.0016374539421132052
4070.85,-0.001654142114346374
4071.75,-0.001653366392469272
4072.65,-0.0016587097611848963
4073.55,-0.0016614098745350026
4074.45,-0.0016652210477797042
4075.35,-0.0016643146667564546
4076.25,-0.0016506681344776938
4077.15,-0.001639092786821113
4078.05,-0.001634926075323626
4078.95,-0.0016496759172598971
4079.85,-0.0016769879510336548
4080.75,-0.0017221328544832595
4081.65,-0.0017705694314231635
4082.55,-0.0018192154378976154
4083.45,-0.0018509949806901152
4084.35,-0.0018760442129752224
4085.25,-0.0019003339091764491
4086.15,-0.0019243671600622412
4087.05,-0.0019657035274120885
4087.95,-0.0020118922541836662
4088.85,-0.0020471329105809424
4089.75,-0.0020980531828236086
4090.65,-0.0021158418206730168
4091.55,-0.002128124638183928
4092.45,-0.002128411555108276
4093.36,-0.0021202612458715016
4094.26,-0.0021087184625928996
4095.16,-0.0020937725627869987
4096.06,-0.0020645007793183437
4096.96,-0.0020364193271597275
4097.86,-0.0019885730415701206
4098.76,-0.0019422510852944931
4099.66,-0.0018799252908418896
4100.56,-0.001820824296940964
4101.46,-0.0017684507754304067
4102.36,-0.0017512601402029464
4103.26,-0.0017639217547882479
4104.16,-0.0018132458455176331
4105.06,-0.001887760822291382
4105.96,-0.0019836065318882437
4106.86,-0.002077194966051727
4107.76,-0.002152066081960795
4108.66,-0.0022096720165824795
4109.56,-0.0022515128728984235
4110.46,-0.0022877727939022542
4111.36,-0.0023202419340751846
4112.26,-0.0023606875164395927
4113.16,-0.0023947427906849997
4114.06,-0.002443054532112134
4114.96,-0.0024765559067649917
4115.86,-0.0025165451414017985
4116.76,-0.0025377582297094856
4117.66,-0.002557686861410898
4118.56,-0.002558523065902137
4119.46,-0.002558431090854504
4120.36,-0.0025520191849470455
4121.26,-0.0025687021440947587
4122.16,-0.0025755879943536943
4123.06,-0.0026092146232582947
4123.96,-0.002643506007332192
4124.86,-0.0026803313938715306
4125.76,-0.002690793271460991
4126.66,-0.0027234862953000507
4127.56,-0.0027281782072669223
4128.46,-0.002732515147202986
4129.36,-0.0027345597029293017
4130.26,-0.0027312693366051046
4131.17,-0.002712957285689639
4132.06,-0.0027098695771591206
4132.97,-0.0027072135708020597
4133.87,-0.0027206462874671444
4134.77,-0.0027554262435068176
4135.67,-0.002815168296506651
4136.57,-0.0028827790052751963
4137.47,-0.002963513812763794
4138.37,-0.003027248689786669
4139.27,-0.0030850354939224753
4140.17,-0.0030996716005339884
4141.07,-0.0030988197441376712
4141.97,-0.003067434898110898
4142.87,-0.0030440616313721558
4143.77,-0.0030106245024255325
4144.67,-0.0030035387289730694
4145.57,-0.003034989450523716
4146.47,-0.0030780907971090956
4147.37,-0.00314140255308012
4148.27,-0.0032037952541658777
4149.17,-0.00325576315847128
4150.07,-0.0032843235658457227
4150.97,-0.0033185070418174792
4151.87,-0.003321266663735983
4152.77,-0.0033389209321352184
4153.67,-0.0033475601671668328
4154.57,-0.0033517510353141566
4155.47,-0.0033734328524633395
4156.37,-0.0034139488751518056
4157.27,-0.0034560524687221555
4158.17,-0.0035086875884653393
4159.07,-0.003565407503335836
4159.97,-0.0036490280535129557
4160.87,-0.003697282144525284
4161.77,-0.003773689070072115
4162.67,-0.0038209363200064172
4163.57,-0.003861972838321126
4164.47,-0.0038808215391770134
4165.37,-0.003899158379349322
4166.27,-0.003922463284539333
4167.17,-0.0039182431850741765
4168.07,-0.003922222906824005
4168.98,-0.003938070964122821
4169.88,-0.003909925169492208
4170.78,-0.003891493952922128
4171.68,-0.0038766135472968755
4172.58,-0.0038184835549358353
4173.48,-0.0037956396712430928
4174.38,-0.003819647291314418
4175.28,-0.003819821951866301
4176.18,-0.0038788585453327397
4177.08,-0.003951169422222643
4177.98,-0.004028717526886353
4178.88,-0.004099108803861462
4179.78,-0.004168578693880046
4180.68,-0.004249575622940365
4181.58,-0.004301827078230875
4182.48,-0.004349286283591288
4183.38,-0.00435891685363544
4184.28,-0.004401164058777818
4185.18,-0.00445973636988492
4186.08,-0.004451088953222421
4186.98,-0.004467486318961659
4187.88,-0.004486613411405271
4188.78,-0.004506547127141876
4189.68,-0.0045641433499152275
4190.58,-0.004636069783056615
4191.48,-0.004701273953509361
4192.38,-0.00478936891934445
4193.28,-0.004865696855701894
4194.18,-0.004900456934748901
4195.08,-0.004915245586817101
4195.98,-0.004929731724003162
4196.88,-0.00488611788439327
4197.78,-0.004862540374216304
4198.68,-0.00484209860163694
4199.58,-0.004801566280105397
4200.48,-0.004807916805900272
4201.38,-0.0048419738210491855
4202.28,-0.004898806314874496
4203.18,-0.004956585256783384
4204.08,-0.005071632982363035
4204.98,-0.005153436428570719
4205.88,-0.0052316583103069764
4206.79,-0.005390213568408365
4207.69,-0.005487675810277074
4208.59,-0.005604333689110009
4209.49,-0.005676346069783807
4210.39,-0.005759235704453403
4211.29,-0.00583095838741711
4212.19,-0.005844069262670919
4213.09,-0.00588004799776201
4213.99,-0.0058937185229529215
4214.89,-0.005861122261486339
4215.79,-0.005836859623862735
4216.69,-0.005879008803135633
4217.59,-0.005921195037323762
4218.49,-0.006018990689435175
4219.39,-0.00610918874824013
4220.29,-0.006215188015824732
4221.19,-0.006284726907540124
4222.09,-0.006291484672174708
4222.99,-0.006225991054647968
4223.89,-0.006122169611331804
4224.79,-0.005923871929860511
4225.69,-0.005744881223364816
4226.59,-0.005615742032817686
4227.49,-0.005583711764883178
4228.39,-0.005688323986137564
4229.29,-0.005915382595684181
4230.19,-0.0061474767981256236
4231.09,-0.006422656959616871
4231.99,-0.006630479630949835
4232.89,-0.006778511836924277
4233.79,-0.006919621588459831
4234.69,-0.0069215877692279555
4235.59,-0.006935075830269991
4236.49,-0.006939037084878416
4237.39,-0.0069625944468210245
4238.29,-0.007071057734854495
4239.19,-0.007154272270526232
4240.09,-0.007296788006641803
4240.99,-0.0074028166196655806
4241.89,-0.007530287691105438
4242.79,-0.007718965350941337
4243.69,-0.00783469531758185
4244.59,-0.007881387102242366
4245.5,-0.0079749475199591
4246.4,-0.007976489534846384
4247.3,-0.00796976348916677
4248.2,-0.007886645692688758
4249.1,-0.00790779390710295
4250.0,-0.007889356387849966
4250.9,-0.007954999976246786
4251.8,-0.008010011977955806
4252.7,-0.008112350526460485
4253.6,-0.008238486395806278
4254.5,-0.00833668809802174
4255.4,-0.008452461249684916
4256.3,-0.008587208269795072
4257.2,-0.008669073843528594
4258.1,-0.008747989458572311
4259.0,-0.008760858393552248
4259.9,-0.008776291723730071
4260.8,-0.008828904284815866
4261.7,-0.00893614493477559
4262.6,-0.009095480105942102
4263.5,-0.009338743711912402
4264.4,-0.009586330287018338
4265.3,-0.00979544856041481
4266.2,-0.00997124625387782
4267.1,-0.010011259219159031
4268.0,-0.010041218009153788
4268.9,-0.00989853463420661
4269.8,-0.00978602245985289
4270.7,-0.009626532124260472
4271.6,-0.009493676316339246
4272.5,-0.009396014581780352
4273.4,-0.009323902558335385
4274.3,-0.009451875749040217
4275.2,-0.009622124666521365
4276.1,-0.009868680525235516
4277.0,-0.01023439431127028
4277.9,-0.010481080984677276
4278.8,-0.010778488585790827
4279.7,-0.010919681500448496
4280.6,-0.011031313630066888
4281.5,-0.011089348041446907
4282.4,-0.011180288790861692
4283.31,-0.0112366293656762
4284.21,-0.011279465904850346
