wave,flux
3700.85,-0.012815905364712327
3701.75,-0.012813386325852416
3702.65,-0.012564241523249014
3703.55,-0.012097065368263379
3704.45,-0.011553243002123315
3705.35,-0.011050520637288702
3706.25,-0.01073123782443111
3707.15,-0.010644803711975914
3708.05,-0.010752682687098248
3708.96,-0.011180547310553473
3709.86,-0.011731478249638622
3710.76,-0.012361334913732652
3711.66,-0.013218695116095093
3712.56,-0.014120375146427812
3713.46,-0.01500553751526098
3714.36,-0.015844657142876237
3715.26,-0.016346354019857574
3716.16,-0.016575494321775075
3717.06,-0.016406471344261608
3717.96,-0.015951564547574043
3718.86,-0.015153680187388075
3719.76,-0.014159642430826895
3720.66,-0.013281271974476327
3721.56,-0.012685865633732288
3722.46,-0.012793243446215425
3723.36,-0.01344048051036639
3724.26,-0.014456375256226542
3725.16,-0.01573442006905455
3726.06,-0.016783498546872305
3726.96,-0.017462191200297735
3727.86,-0.017900416550512697
3728.76,-0.018197723763084362
3729.66,-0.01826512848979709
3730.56,-0.018199513325693605
3731.46,-0.017712499786938073
3732.36,-0.016987586843630685
3733.26,-0.015914988126304135
3734.16,-0.014857878261978137
3735.06,-0.014134135915348907
3735.96,-0.013954753046578956
3736.86,-0.014445239872920347
3737.76,-0.015513493271857182
3738.66,-0.017146616602901087
3739.56,-0.019021775580116827
3740.46,-0.020722986012745425
3741.36,-0.021954072592658518
3742.26,-0.02255668171658082
3743.16,-0.022469480410132053
3744.06,-0.021999928695840224
3744.96,-0.0210643702772718
3745.86,-0.020296613081920437
3746.76,-0.019493239263389375
3747.67,-0.018751196538397377
3748.57,-0.018282624316843032
3749.47,-0.01831951059208469
3750.37,-0.019012752547449708
3751.27,-0.020564173100624375
3752.17,-0.022978068729684296
3753.07,-0.02554062840530905
3753.97,-0.028283386456686908
3754.87,-0.030430581593253417
3755.77,-0.031761475210389474
3756.67,-0.03215308954589997
3757.57,-0.03172911432882317
3758.47,-0.03083430045745574
3759.37,-0.030364814111145607
3760.27,-0.030348948943175292
3761.17,-0.0309249646891714
3762.07,-0.03196830827030616
3762.97,-0.03307502613018468
3763.87,-0.03393337008245867
3764.77,-0.03456437901850818
3765.67,-0.03544493954509877
3766.57,-0.03571376547768664
3767.47,-0.03602813008922558
3768.37,-0.03627908990929939
3769.27,-0.03669582975303994
3770.17,-0.03758632302459897
3771.07,-0.038840087833163485
3771.97,-0.04049381527388968
3772.87,-0.04276496629374387
3773.77,-0.04511443088897273
3774.67,-0.047416048279531484
3775.57,-0.04935901315205558
3776.47,-0.0511816988201193
3777.37,-0.05335641095745134
3778.27,-0.05503687881614419
3779.17,-0.05729816192797995
3780.07,-0.05973716563066546
3780.97,-0.06216893476357002
3781.87,-0.06441228078072446
3782.77,-0.06612175585622863
3783.67,-0.06708378427229619
3784.57,-0.0674453062901869
3785.47,-0.06707909349429064
3786.38,-0.06582853083239912
3787.28,-0.06426186390486072
3788.18,-0.06273002322846798
3789.08,-0.06215105452541586
3789.98,-0.06200980066655565
3790.88,-0.06285294370350644
3791.78,-0.06386488215551696
3792.68,-0.06409425732432006
3793.58,-0.0646091540220136
3794.48,-0.06390779097670754
3795.38,-0.06301063377666839
3796.28,-0.06143870063588727
3797.18,-0.060349588001186685
3798.08,-0.06022949028803908
3798.98,-0.06165534631035348
3799.88,-0.06469169665307085
3800.78,-0.07000580270250027
3801.68,-0.07709292795804114
3802.58,-0.08428899447567642
3803.48,-0.0910008051067902
3804.38,-0.09669239095636778
3805.28,-0.10045780198364353
3806.18,-0.10356259219418215
3807.08,-0.10583632559757009
3807.98,-0.10847779331135678
3808.88,-0.11175576529303952
3809.78,-0.11562626960942875
3810.68,-0.11941772793114544
3811.58,-0.12138447761428996
3812.48,-0.1216258681563309
3813.38,-0.12018877495814835
3814.28,-0.11789616576873858
3815.18,-0.11591389686973824
3816.08,-0.11455782663429055
3816.98,-0.11615592795635575
3817.88,-0.11846219737230608
3818.78,-0.12057318994740976
3819.68,-0.12184595643575427
3820.58,-0.12285721505772987
3821.48,-0.12464182932998408
3822.38,-0.1263515529870276
3823.28,-0.1277121783681007
3824.18,-0.1281623982962814
3825.09,-0.12757536667965658
3825.99,-0.1268523947339266
3826.89,-0.12648797488117947
3827.79,-0.12641423518961983
3828.69,-0.12898564958153022
3829.59,-0.1312123317397284
3830.49,-0.13333901737031792
3831.39,-0.13410909779869157
3832.29,-0.13389508934398175
3833.19,-0.13241872066604637
3834.09,-0.13076813846859695
3834.99,-0.13128066348705594
3835.89,-0.13417251870500874
3836.79,-0.13929807125228635
3837.69,-0.14625087263153783
3838.59,-0.1540131951310832
3839.49,-0.16401861652135577
3840.39,-0.17779202200359723
3841.29,-0.19407986458572318
3842.19,-0.21565170851902957
3843.09,-0.2379601555653139
3843.99,-0.2616261347023355
3844.89,-0.2841798898655408
3845.79,-0.3035114532964687
3846.69,-0.3213578361767068
3847.59,-0.3388839306794427
3848.49,-0.3509448145950941
3849.39,-0.36575545491478245
3850.29,-0.379315496803532
3851.19,-0.39296767604972027
3852.09,-0.4080944438901849
3852.99,-0.4250607965597574
3853.89,-0.4407664596435076
3854.79,-0.45556020307306855
3855.69,-0.46588587394024883
3856.59,-0.47315310680872885
3857.49,-0.48067555955123237
3858.39,-0.4889074406349047
3859.29,-0.5009700930719132
3860.19,-0.5237741751803028
3861.09,-0.5590482773354527
3861.99,-0.6043185313376077
3862.9,-0.6611587373605371
3863.8,-0.7194693803959464
3864.7,-0.7801251946875649
3865.6,-0.8326618053842609
3866.5,-0.8801371763817949
3867.4,-0.9254815705899265
3868.3,-0.975752340009752
3869.2,-1.01784516363881
3870.1,-1.0634526609610238
3871.0,-1.11372187332731
3871.9,-1.1742771493313993
3872.8,-1.2575251283453857
3873.7,-1.365947683831947
3874.6,-1.5109745239380477
3875.5,-1.685232548231304
3876.4,-1.8890919428634814
3877.3,-2.109009392873756
3878.2,-2.3563231293610962
3879.1,-2.6534867382042004
3880.0,-3.066947100592485
3880.9,-3.623561197502466
3881.8,-4.454552900040571
3882.7,-5.712824524784344
3883.6,-7.954810029746653
3884.5,-12.83068056920729
3885.4,-33.87681530016539
3886.3,48.84464587748144
3887.2,13.654109857443975
3888.1,7.883694939180234
3889.0,5.5501281078727995
3889.9,4.42599450940666
3890.8,3.8012493740834743
3891.7,3.422794864846237
3892.6,3.1429771316571937
3893.5,2.924658036124079
3894.4,2.742770803049608
3895.3,2.552385860426247
3896.2,2.4033656440202122
3897.1,2.2633948233523706
3898.0,2.1391911584926215
3898.9,2.030016983220567
3899.8,1.9302845670867277
3900.7,1.84649364877391
3901.6,1.7617212675728011
3902.51,1.6860331644138724
3903.41,1.6011622251364452
3904.31,1.5273152348153043
3905.21,1.46363205457671
3906.11,1.406559230507752
3907.01,1.3781460197712985
3907.91,1.373790096855062
3908.81,1.3678852886262844
3909.71,1.382399179822497
3910.61,1.3779096038245398
3911.51,1.3715441338077483
3912.41,1.3542981616892666
3913.31,1.3301546079405917
3914.21,1.301615522445598
3915.11,1.2567810413620588
3916.01,1.215228242558787
3916.91,1.178788545075174
3917.81,1.1336040891351309
3918.71,1.086068761941191
3919.61,1.0440050052339147
3920.51,1.0018290867646873
3921.41,0.9670384602170614
3922.31,0.941429742704154
3923.21,0.9188580711363625
3924.11,0.8901363214421278
3925.01,0.8673391836364666
3925.91,0.8307680189074917
3926.81,0.7797529659422029
3927.71,0.7171340007950918
3928.61,0.6448069894253494
3929.51,0.5711319212233285
3930.41,0.4960360792169649
3931.31,0.4247612447555196
3932.21,0.3658835114788317
3933.11,0.31887706979350183
3934.01,0.2926867179146563
3934.91,0.28806192236485084
3935.81,0.3049328966799939
3936.71,0.34211810837434514
3937.61,0.3914450736873667
3938.51,0.4522316336442144
3939.42,0.5108647239166237
3940.32,0.5653605708264433
3941.22,0.6076922371346429
3942.12,0.642796519821461
3943.02,0.6673347446366362
3943.92,0.6807424837450295
3944.82,0.7049282327474549
3945.72,0.7255556484683796
3946.62,0.7469972164717743
3947.52,0.7708781095360515
3948.42,0.7925517620496583
3949.32,0.8074107105288976
3950.22,0.8247862868520617
3951.12,0.832878623684608
3952.02,0.8377728239374023
3952.92,0.8414332448540309
3953.82,0.8403541003110614
3954.72,0.8360235751195969
3955.62,0.8345167746143188
3956.52,0.8275591013180909
3957.42,0.8129465201964937
3958.32,0.8006706325069155
3959.22,0.7835176467009736
3960.12,0.7554666178576801
3961.02,0.7204205582001563
3961.92,0.6778792945092807
3962.82,0.6247327499704841
3963.72,0.5744721871772277
3964.62,0.5210430021821423
3965.52,0.4701296687604903
3966.42,0.41405839559415814
3967.32,0.36220910126562184
3968.22,0.3220145844206378
3969.12,0.2965260136476154
3970.02,0.29229554378687345
3970.92,0.3083870230604186
3971.82,0.34520089955490013
3972.72,0.39446859572276977
3973.62,0.4512299202993951
3974.52,0.510046220387796
3975.42,0.566634218407646
3976.32,0.6256833246442777
3977.22,0.6730797056499825
3978.13,0.7201350154495835
3979.03,0.7647236761415052
3979.93,0.7995248175340005
3980.83,0.8226097851572788
3981.73,0.8421229249695051
3982.63,0.8560612876892322
3983.53,0.8620328710604727
3984.43,0.860915611766905
3985.33,0.8728129906662637
3986.23,0.8826376967325046
3987.13,0.8933660096353275
3988.03,0.900499983410737
3988.93,0.9191849271581183
3989.83,0.9265718998964004
3990.73,0.9334377671489755
3991.63,0.9424346341600475
3992.53,0.9471205107785157
3993.43,0.9534511661860219
3994.33,0.9537181285255658
3995.23,0.9487269449567929
3996.13,0.9393796737459581
3997.03,0.9325423398507203
3997.93,0.9313916944610122
3998.83,0.936449218413682
3999.73,0.9472987929117225
4000.63,0.967480045094586
4001.53,0.9818141129436385
4002.43,0.9863654660822527
4003.33,0.9848903827290177
4004.23,0.9764077644760298
4005.13,0.9604531973311989
4006.03,0.9417641427799205
4006.93,0.9431364383348126
4007.83,0.9402864575351498
4008.73,0.9526736353183547
4009.63,0.9680060943293456
4010.53,0.9851152417685516
4011.43,1.0031867522881965
4012.33,1.0120164561870868
4013.23,1.0198768520815062
4014.13,1.0227525544612768
4015.03,1.0327153476400892
4015.93,1.0307001213647509
4016.84,1.0358433722550124
4017.74,1.0332044122035602
4018.64,1.0407970461947595
4019.54,1.0452193166039345
4020.44,1.048038958989081
4021.34,1.051970275980442
4022.24,1.0498734795872506
4023.14,1.0458040068364938
4024.04,1.0431354395424335
4024.94,1.0479355870623426
4025.84,1.0466970052516813
4026.74,1.0514891627861191
4027.64,1.055588318208013
4028.54,1.0521615849498822
4029.44,1.0362405920416173
4030.34,1.013266319744373
4031.24,0.983068782863991
4032.14,0.9555385805833444
4033.04,0.9385746979205296
4033.94,0.9338668989474319
4034.84,0.9442899258733205
4035.74,0.9684077715335452
4036.64,1.0037615021880106
4037.54,1.0390263705507736
4038.44,1.063489953532013
4039.34,1.0826482042019427
4040.24,1.084066273492297
4041.14,1.0809549001419092
4042.04,1.0572465219884672
4042.94,1.0352983416595716
4043.84,1.0065315841426024
4044.74,0.9704478821621341
4045.64,0.9427256857870671
4046.54,0.9316228276734844
4047.44,0.9371829021543032
4048.34,0.9604038044686668
4049.24,0.9925056510132991
4050.14,1.0232487939666113
4051.04,1.0470830859876075
4051.94,1.052240135290156
4052.84,1.059699829721483
4053.74,1.0445435935234955
4054.65,1.0267634831803032
4055.55,1.0130995091875792
4056.45,0.9979686335412505
4057.35,0.9872879874770208
4058.25,0.9819500810691261
4059.15,0.9811627656039767
4060.05,0.9855539198058166
4060.95,0.9826958379903292
4061.85,0.9813797834568693
4062.75,0.9667996557171223
4063.65,0.9525083112034229
4064.55,0.9416115309801208
4065.45,0.9390677045352501
4066.35,0.9522423369086963
4067.25,0.9623655331679073
4068.15,0.9777962545207891
4069.05,0.9911657369178498
4069.95,1.0000307734802945
4070.85,1.0023111659826964
4071.75,0.996360015714886
4072.65,0.9958487121418655
4073.55,0.9893858100853327
4074.45,0.9819925802518719
4075.35,0.9713264799186236
4076.25,0.9583785442110002
4077.15,0.9438445143290356
4078.05,0.9368936174401918
4078.95,0.9419078555354496
4079.85,0.9596040775216993
4080.75,0.9798882097146815
4081.65,1.0035830241687358
4082.55,1.0228782430763679
4083.45,1.0332971748234698
4084.35,1.0405427609611577
4085.25,1.0403050636929145
4086.15,1.0472023511317146
4087.05,1.0636955320865962
4087.95,1.0758985283986835
4088.85,1.093151271483021
4089.75,1.101513062593004
4090.65,1.1060515561146276
4091.55,1.0979993908181052
4092.45,1.0868922015185263
4093.36,1.0713502940897388
4094.26,1.0506311936782968
4095.16,1.0298876915159272
4096.06,1.0032820906438853
4096.96,0.9747552705246162
4097.86,0.9442441563902573
4098.76,0.910178078426753
4099.66,0.8760008128681176
4100.56,0.8422369725610088
4101.46,0.8137314841311247
4102.36,0.7964019094139801
4103.26,0.7963223807870408
4104.16,0.8217480257165949
4105.06,0.849736401939564
4105.96,0.8893376994106232
4106.86,0.927014837955276
4107.76,0.9585246586507973
4108.66,0.9759740228763428
4109.56,0.9875696018696589
4110.46,0.9966116743803684
4111.36,0.999972970776394
4112.26,1.0045378529954234
4113.16,1.0207646161652426
4114.06,1.0308234508608507
4114.96,1.0486901957799222
4115.86,1.0540778220632505
4116.76,1.0578680824468234
4117.66,1.0584687519140548
4118.56,1.0502254618566285
4119.46,1.0405925385495562
4120.36,1.030836963155556
4121.26,1.0231690032913603
4122.16,1.0233336475861576
4123.06,1.0259992848219688
4123.96,1.0305470293288588
4124.86,1.0374622015731807
4125.76,1.0314692877671283
4126.66,1.03050758507869
4127.56,1.0302624044602517
4128.46,1.0211118002265758
4129.36,1.0118079716070614
4130.26,0.9964931036665486
4131.17,0.9862354665613663
4132.06,0.9673898642424215
4132.97,0.96685742547193
4133.87,0.9673352445518892
4134.77,0.9686242672239885
4135.67,0.9824528895823194
4136.57,1.0079719695526823
4137.47,1.0274409728858225
4138.37,1.049130501523121
4139.27,1.059516163805192
4140.17,1.0581886577112813
4141.07,1.0489317589652585
4141.97,1.0293005984374866
4142.87,1.0064608722134456
4143.77,0.985056375338082
4144.67,0.9717877956024287
4145.57,0.9710630599288166
4146.47,0.980424480242586
4147.37,0.9935862757595098
4148.27,1.0025298213222917
4149.17,1.0139855703654792
4150.07,1.0104143878210876
4150.97,1.006078624286283
4151.87,0.9981157825163234
4152.77,0.9916411289427278
4153.67,0.986075228589629
4154.57,0.9817708241358333
4155.47,0.9817481026202944
4156.37,0.9821491371957553
4157.27,0.9841626359938268
4158.17,0.9933436876325804
4159.07,1.0116816125615438
4159.97,1.022185182254719
4160.87,1.0390156049956054
4161.77,1.0510649398190448
4162.67,1.0615120344293527
4163.57,1.0656413068671438
4164.47,1.0681065343577831
4165.37,1.0643539729716893
4166.27,1.0542878235262214
4167.17,1.044391388125789
4168.07,1.0360110204866468
4168.98,1.0209983708356472
4169.88,1.006989960389779
4170.78,0.996261679663847
4171.68,0.9800896326628006
4172.58,0.9611048499793653
4173.48,0.944757281246143
4174.38,0.9391250592168847
4175.28,0.9318648173175292
4176.18,0.9366949956654309
4177.08,0.9452493084498069
4177.98,0.9559561533795271
4178.88,0.9620519486760762
4179.78,0.9716796175279441
4180.68,0.9768578111600538
4181.58,0.985694068339827
4182.48,0.9891206353994576
4183.38,0.9950200788964008
4184.28,0.9955411663482311
4185.18,1.0001380483217412
4186.08,0.9994198592711884
4186.98,0.9984510860652542
4187.88,0.994313616234754
4188.78,0.9945737176119627
4189.68,1.002596097022062
4190.58,1.0068419212937714
4191.48,1.0199734042275705
4192.38,1.029905201028387
4193.28,1.0336234717430588
4194.18,1.0348454612418474
4195.08,1.028986110329662
4195.98,1.0129968778920169
4196.88,0.9944113462789369
4197.78,0.9743203486161751
4198.68,0.9589767934985045
4199.58,0.945816421900394
4200.48,0.9412881273172559
4201.38,0.9422183579070981
4202.28,0.9451410746696688
4203.18,0.9556428993648205
4204.08,0.9668568258314539
4204.98,0.986551617085549
4205.88,1.0053871820618887
4206.79,1.0256132838668117
4207.69,1.0431491119221845
4208.59,1.0584759010381095
4209.49,1.0574919176990953
4210.39,1.0688803156328686
4211.29,1.0647544711415058
4212.19,1.0634589634635694
4213.09,1.0573760253492717
4213.99,1.0536412623169218
4214.89,1.0333821599274522
4215.79,1.0263989451623727
4216.69,1.022921312842117
4217.59,1.0358153131493244
4218.49,1.0486510698074247
4219.39,1.063165712489619
4220.29,1.0728269782679336
4221.19,1.0777615879593967
4222.09,1.0662503114566648
4222.99,1.0437569094362742
4223.89,1.006188115887705
4224.79,0.9603949095553094
4225.69,0.915102029549262
4226.59,0.8809099630080418
4227.49,0.8639453375233203
4228.39,0.8763972579090324
4229.29,0.901487709426462
4230.19,0.9429631083423978
4231.09,0.9869979019247198
4231.99,1.015729329199481
4232.89,1.0262139957957939
4233.79,1.032088258022725
4234.69,1.0301230664118473
4235.59,1.024541674843516
4236.49,1.0129551676565842
4237.39,1.0055264596655449
4238.29,1.0092959287466232
4239.19,1.0158736959117367
4240.09,1.0246470659662148
4240.99,1.035907039229092
4241.89,1.0529829870085081
4242.79,1.074260798060509
4243.69,1.0869141416197599
4244.59,1.0959482945434278
4245.5,1.091796619157154
4246.4,1.090192268387073
4247.3,1.0768805958563963
4248.2,1.057742790971754
4249.1,1.0354267466386164
4250.0,1.0191810874731833
4250.9,1.011466193619296
4251.8,1.0075949948809069
4252.7,1.009023993604543
4253.6,1.0208976879076699
4254.5,1.0198593908995086
4255.4,1.0221811050703735
4256.3,1.030322994283297
4257.2,1.0333793782948888
4258.1,1.0342946120532244
4259.0,1.017887221797695
4259.9,1.0113769130114048
4260.8,1.0123061117259056
4261.7,1.0151382921502705
4262.6,1.0289721499856974
4263.5,1.0537117561657665
4264.4,1.077021174593668
4265.3,1.1024618853544863
4266.2,1.1093425035222342
4267.1,1.1072470811745903
4268.0,1.0948470719171728
4268.9,1.069780347076493
4269.8,1.0306207378077628
4270.7,0.992847156625151
4271.6,0.9627081810812707
4272.5,0.933729611098351
4273.4,0.922648114161411
4274.3,0.9217904819101156
4275.2,0.9383722310574755
4276.1,0.9627122984518711
4277.0,0.997947043706714
4277.9,1.0194461744692571
4278.8,1.0406734165796434
4279.7,1.0526657054769484
4280.6,1.0584019928825417
4281.5,1.0535165321398243
4282.4,1.0482997119281885
4283.31,1.0439457162339407
4284.21,1.035639474323168
4285.11,1.0237379937750088
4286.01,1.0125404344345457
4286.91,0.9979765316019781
4287.81,0.980628957381583
4288.71,0.9622123856428456
4289.61,0.943502396528476
4290.51,0.9370293401465581
4291.41,0.9360060974058844
4292.31,0.9426221841394772
4293.21,0.9516451452302828
4294.11,0.9614916296309328
4295.01,0.9655825436555665
4295.91,0.9627287872946958
4296.81,0.948068603775584
4297.71,0.9177477514471529
4298.61,0.8843745839186549
4299.51,0.8529772367660767
4300.41,0.8234592653141104
4301.31,0.8025433406376166
4302.21,0.7919912266007173
4303.11,0.7860356736869144
4304.01,0.7847686368796682
4304.91,0.7835257967081863
4305.81,0.7828847117259963
4306.71,0.7746910564348413
4307.61,0.7672000718369606
4308.51,0.7603818679213494
4309.41,0.7652618008105848
4310.31,0.7757680755985603
4311.21,0.8001570159954652
4312.11,0.8283864140556096
4313.01,0.8652812201714397
4313.91,0.9170323465420022
4314.81,0.9682383996574654
4315.71,1.0177493299315363
4316.61,1.0661081980920417
4317.51,1.1112731519512102
4318.41,1.1465183853980212
4319.31,1.1581828461600137
4320.21,1.1587979984870167
4321.12,1.1429619695788227
4322.02,1.1115799073196362
4322.92,1.0699842301683555
4323.82,1.0286516779974888
4324.72,0.986535560888028
4325.62,0.9618837843203181
4326.52,0.9554580460652453
4327.42,0.9634170804494155
4328.32,0.9888026298504194
4329.22,1.022020106421093
4330.12,1.0538811947605875
4331.02,1.0844809504104669
4331.92,1.1074761675921987
4332.82,1.1129420452199492
4333.72,1.1145088227038051
4334.62,1.1039313893585108
4335.52,1.0891703767719458
4336.42,1.0529691870621682
4337.32,1.0063180083276613
4338.22,0.955618385787577
4339.12,0.9078785683420458
4340.02,0.8652558728730692
4340.92,0.8439623623650233
4341.82,0.8372783662623356
4342.72,0.8563916443989237
4343.62,0.8874232811778007
4344.52,0.9250683557512204
4345.42,0.966843460288692
4346.32,1.0031107410336904
4347.22,1.0330116366696833
4348.12,1.0514960991583628
4349.02,1.0621054818264362
4349.92,1.062132117298958
4350.82,1.0521636216364223
4351.72,1.0344598764764752
4352.62,1.023433582823636
4353.52,1.0177034875363342
4354.42,1.018118794055358
4355.32,1.02419884311755
4356.22,1.0458784463051731
4357.12,1.0572517018122396
4358.02,1.0683135292946921
4358.92,1.0835180974886043
