wave,flux
3700.85,-8.318584068838507e-05
3701.75,-8.270549141615805e-05
3702.65,-8.078914242891839e-05
3703.55,-7.805381510328557e-05
3704.45,-7.437247364694324e-05
3705.35,-7.171744176259495e-05
3706.25,-7.002439040859202e-05
3707.15,-6.968479704868295e-05
3708.05,-7.036327591968648e-05
3708.96,-7.158002446901192e-05
3709.86,-7.344357140342579e-05
3710.76,-7.578011516197712e-05
3711.66,-7.82818639351829e-05
3712.56,-8.155954821884926e-05
3713.46,-8.499236982348559e-05
3714.36,-8.880460805878525e-05
3715.26,-9.143177578165734e-05
3716.16,-9.298574279842762e-05
3717.06,-9.261534482102089e-05
3717.96,-9.029184110871865e-05
3718.86,-8.657330670607478e-05
3719.76,-8.166796921593371e-05
3720.66,-7.675154271941105e-05
3721.56,-7.291133052817873e-05
3722.46,-7.206573851716018e-05
3723.36,-7.407375076663417e-05
3724.26,-7.808360333964535e-05
3725.16,-8.338458997058858e-05
3726.06,-8.765195328619822e-05
3726.96,-9.071356664856781e-05
3727.86,-9.32018101871108e-05
3728.76,-9.375102525661409e-05
3729.66,-9.346515134824608e-05
3730.56,-9.222150700761406e-05
3731.46,-8.928840566277865e-05
3732.36,-8.500861034211961e-05
3733.26,-7.987843589174813e-05
3734.16,-7.441984422965967e-05
3735.06,-7.095215740028456e-05
3735.96,-6.95527544099926e-05
3736.86,-7.10395295554913e-05
3737.76,-7.568544153283393e-05
3738.66,-8.178666780454806e-05
3739.56,-8.891787067535425e-05
3740.46,-9.452258149359354e-05
3741.36,-9.92949281964296e-05
3742.26,-0.00010087946093949905
3743.16,-0.00010072231134742487
3744.06,-9.840389405448233e-05
3744.96,-9.49117691488205e-05
3745.86,-9.134481122323225e-05
3746.76,-8.661311638874343e-05
3747.67,-8.25753977374728e-05
3748.57,-7.906084022980971e-05
3749.47,-7.721797024524235e-05
3750.37,-7.760282204728615e-05
3751.27,-8.11108412630555e-05
3752.17,-8.750268653118229e-05
3753.07,-9.584886145634795e-05
3753.97,-0.00010382379217106818
3754.87,-0.00011081203995815713
3755.77,-0.00011464173006470075
3756.67,-0.00011582657561851243
3757.57,-0.00011452450646643723
3758.47,-0.00011244703256772544
3759.37,-0.0001098724744341896
3760.27,-0.00010987584204432506
3761.17,-0.00011072915009829618
3762.07,-0.0001130121685610505
3762.97,-0.00011493343244452034
3763.87,-0.00011734366202443095
3764.77,-0.00011849633015212206
3765.67,-0.00011813582733304617
3766.57,-0.00011740145618749034
3767.47,-0.00011519344898832428
3768.37,-0.00011321839679737302
3769.27,-0.00011081403058785273
3770.17,-0.0001099300815523931
3771.07,-0.00011047103881841852
3771.97,-0.00011254069661801707
3772.87,-0.00011720929352986426
3773.77,-0.00012152629085813711
3774.67,-0.00012736674396877156
3775.57,-0.00013170267114572537
3776.47,-0.00013595277208653598
3777.37,-0.0001405954825107524
3778.27,-0.00014479589072072743
3779.17,-0.00014855676433905
3780.07,-0.0001531829872569491
3780.97,-0.00015704050514669804
3781.87,-0.00015990868204469622
3782.77,-0.00016200661925514512
3783.67,-0.00016291652170043243
3784.57,-0.00016207778889366074
3785.47,-0.00015974814348275324
3786.38,-0.00015625219847207602
3787.28,-0.00015228702745279706
3788.18,-0.00014839767944197437
3789.08,-0.000145671561467963
3789.98,-0.00014445216070626093
3790.88,-0.00014325928015113479
3791.78,-0.00014330961479216018
3792.68,-0.00014137712050107484
3793.58,-0.00013877364876709288
3794.48,-0.00013501308486055976
3795.38,-0.00012969805320537533
3796.28,-0.00012472685598437103
3797.18,-0.00011987762627479471
3798.08,-0.0001171348874391881
3798.98,-0.00011773938598525466
3799.88,-0.0001216374185963271
3800.78,-0.00012923884916577895
3801.68,-0.00013949604282052774
3802.58,-0.00014984779379474333
3803.48,-0.0001593034470445315
3804.38,-0.00016712937379580916
3805.28,-0.00017184238428018958
3806.18,-0.00017520184587323302
3807.08,-0.00017720340447049065
3807.98,-0.00017976076626184304
3808.88,-0.00018268632844232823
3809.78,-0.0001852259747714713
3810.68,-0.00018712066549397602
3811.58,-0.00018756159261578025
3812.48,-0.00018644011168381512
3813.38,-0.00018244740026538211
3814.28,-0.00017800771660993455
3815.18,-0.00017465877626275916
3816.08,-0.00017340620282106303
3816.98,-0.00017241683425873937
3817.88,-0.00017403076819982324
3818.78,-0.00017470460632536353
3819.68,-0.00017468323508965875
3820.58,-0.00017424250005211643
3821.48,-0.00017370922779174985
3822.38,-0.00017148228146675903
3823.28,-0.0001701347929888597
3824.18,-0.00016857277534241554
3825.09,-0.00016543919649033098
3825.99,-0.00016258669292883914
3826.89,-0.0001589169568709081
3827.79,-0.00015584291097477758
3828.69,-0.0001542924644929315
3829.59,-0.00015243824847878312
3830.49,-0.00015047184981646433
3831.39,-0.00014621917459199373
3832.29,-0.00014090283845246708
3833.19,-0.00013457459400027818
3834.09,-0.00012930188013860538
3834.99,-0.00012514428659246747
3835.89,-0.00012311431408116417
3836.79,-0.00012420426744113065
3837.69,-0.00012714258220898795
3838.59,-0.00013205211085519383
3839.49,-0.00013928702224296527
3840.39,-0.00014838902222155632
3841.29,-0.0001591786541096516
3842.19,-0.00017115225540551205
3843.09,-0.00018138914762643132
3843.99,-0.0001937270088047452
3844.89,-0.0002033944430312063
3845.79,-0.00021079226934401244
3846.69,-0.00021806476822345148
3847.59,-0.0002218269882519045
3848.49,-0.0002256100479361707
3849.39,-0.00022736968400658366
3850.29,-0.00023041910939917284
3851.19,-0.000232451333578938
3852.09,-0.0002352495836760842
3852.99,-0.0002372181107794056
3853.89,-0.00023774905899306493
3854.79,-0.00024008668700046783
3855.69,-0.00023927594320874717
3856.59,-0.000235542039767919
3857.49,-0.0002319917519864738
3858.39,-0.00022983352320672256
3859.29,-0.00022769342968173675
3860.19,-0.00022764352834544818
3861.09,-0.0002322434334445845
3861.99,-0.000239090425888867
3862.9,-0.00024709730820053036
3863.8,-0.00025492339801019706
3864.7,-0.00025973117764952673
3865.6,-0.00026402323092860567
3866.5,-0.00026576273117597817
3867.4,-0.0002667584752732346
3868.3,-0.0002678180408882199
3869.2,-0.0002655569380290217
3870.1,-0.0002629432778769584
3871.0,-0.00025938906468877187
3871.9,-0.0002551320190318131
3872.8,-0.000251619444361542
3873.7,-0.00025199318564667213
3874.6,-0.00025236425386512644
3875.5,-0.00025587019270711773
3876.4,-0.00025739529005501896
3877.3,-0.00025841533229501915
3878.2,-0.00025702131018890187
3879.1,-0.0002562260551759339
3880.0,-0.0002554421963510104
3880.9,-0.0002547717587447884
3881.8,-0.00025647702090991255
3882.7,-0.0002551544374564138
3883.6,-0.0002534144333974277
3884.5,-0.00024720977348766197
3885.4,-0.00023946148303862158
3886.3,-0.00023121547656774976
3887.2,-0.0002211836834455453
3888.1,-0.00021362463468671422
3889.0,-0.00021050962511747368
3889.9,-0.00021070173588657573
3890.8,-0.00021762660912692046
3891.7,-0.00022799312958581843
3892.6,-0.00024228864213241723
3893.5,-0.0002546083705751171
3894.4,-0.00026584405641009014
3895.3,-0.0002750534924288626
3896.2,-0.0002828224637692167
3897.1,-0.0002905709739572028
3898.0,-0.0002978648784990324
3898.9,-0.0003019675435259497
3899.8,-0.00030651615407663476
3900.7,-0.0003122002570777741
3901.6,-0.0003150495917217828
3902.51,-0.0003179966439861706
3903.41,-0.0003186524365206005
3904.31,-0.0003195429484329045
3905.21,-0.00031927860473963813
3906.11,-0.0003221206061920507
3907.01,-0.00032529255481440647
3907.91,-0.0003333076028872052
3908.81,-0.00034378452173518254
3909.71,-0.00035368478171517403
3910.61,-0.0003647539412045628
3911.51,-0.00037272394109762023
3912.41,-0.000377301518582797
3913.31,-0.00037986091711841337
3914.21,-0.000380354703875134
3915.11,-0.0003791264084384445
3916.01,-0.0003776521642375498
3916.91,-0.0003748902676560648
3917.81,-0.00037004416333079077
3918.71,-0.0003686092911435762
3919.61,-0.00036282744919197504
3920.51,-0.00035949646281704695
3921.41,-0.0003585884147982496
3922.31,-0.00035630614650682666
3923.21,-0.0003556018322416875
3924.11,-0.00035418181506029293
3925.01,-0.00035027542566476823
3925.91,-0.00034136507110175225
3926.81,-0.0003305216755071493
3927.71,-0.0003130059945561398
3928.61,-0.00028805760696035436
3929.51,-0.0002622319125440176
3930.41,-0.00023329871067470694
3931.31,-0.0002056903926679189
3932.21,-0.0001798718035045221
3933.11,-0.00015852362803173804
3934.01,-0.00014630857368018644
3934.91,-0.00014479758909467886
3935.81,-0.00015501663533470675
3936.71,-0.00017566297290851784
3937.61,-0.00020355601930061785
3938.51,-0.00023692904649605276
3939.42,-0.0002709731707449321
3940.32,-0.00030070972236699784
3941.22,-0.0003282504625562155
3942.12,-0.00034570192106315545
3943.02,-0.00036363138660054433
3943.92,-0.00037697151821878167
3944.82,-0.0003896765108448826
3945.72,-0.0004032575106602981
3946.62,-0.00041471978633889425
3947.52,-0.00042649430595252316
3948.42,-0.00043871505656554376
3949.32,-0.00044687870418024536
3950.22,-0.00045598604740385495
3951.12,-0.00046170756289256904
3952.02,-0.0004678524811867282
3952.92,-0.00047115452499257724
3953.82,-0.0004760319333042487
3954.72,-0.0004788847767180172
3955.62,-0.00048104828342467406
3956.52,-0.0004811283244795105
3957.42,-0.00048029286880490145
3958.32,-0.0004764968754783729
3959.22,-0.0004719430421222312
3960.12,-0.0004644867876034346
3961.02,-0.0004516804430898773
3961.92,-0.00043015046576230483
3962.82,-0.00040721525927710017
3963.72,-0.0003785465777014023
3964.62,-0.00034861202452777775
3965.52,-0.0003166324013535309
3966.42,-0.000281825685804238
3967.32,-0.0002491100110743484
3968.22,-0.00022048432824207652
3969.12,-0.0002023147356037736
3970.02,-0.00019856113924167913
3970.92,-0.0002094105759657334
3971.82,-0.0002334001356126336
3972.72,-0.0002680778185193268
3973.62,-0.0003088117695163426
3974.52,-0.00035172813192503236
3975.42,-0.00039332158716646765
3976.32,-0.0004342237771884469
3977.22,-0.00046671942910429755
3978.13,-0.0005006459483958836
3979.03,-0.0005275791915656785
3979.93,-0.0005527477758138443
3980.83,-0.0005718280769225299
3981.73,-0.0005874107461699634
3982.63,-0.0005997003974916407
3983.53,-0.0006068234742495328
3984.43,-0.0006131146175451495
3985.33,-0.0006272583070037958
3986.23,-0.0006348904839095813
3987.13,-0.0006442662864902133
3988.03,-0.0006596063482408799
3988.93,-0.0006707520722588073
3989.83,-0.0006800295218610102
3990.73,-0.0006913628350703028
3991.63,-0.0006990823547953096
3992.53,-0.000708628691593058
3993.43,-0.0007177041037352545
3994.33,-0.0007187456300483091
3995.23,-0.0007208869689946061
3996.13,-0.0007178576152916849
3997.03,-0.0007189655502416767
3997.93,-0.0007207099708086515
3998.83,-0.0007280706363261037
3999.73,-0.0007386762119284667
4000.63,-0.0007521554219963752
4001.53,-0.0007647440592497187
4002.43,-0.0007743350369502647
4003.33,-0.000782571982536986
4004.23,-0.0007823618303784196
4005.13,-0.0007779693342149433
4006.03,-0.0007756782577543302
4006.93,-0.0007778807589347053
4007.83,-0.000784534055451185
4008.73,-0.000795702532116065
4009.63,-0.000813584198018143
4010.53,-0.0008302748275683428
4011.43,-0.000842074126747205
4012.33,-0.0008546693677519232
4013.23,-0.0008638101467000993
4014.13,-0.0008695641146539364
4015.03,-0.0008766190750940659
4015.93,-0.0008794319153078755
4016.84,-0.0008896089111389924
4017.74,-0.0009010114015856599
4018.64,-0.0009051629101388915
4019.54,-0.0009133980492274079
4020.44,-0.0009241802368935784
4021.34,-0.0009286098425612648
4022.24,-0.0009333767762558441
4023.14,-0.0009436753123692387
4024.04,-0.0009480475400823589
4024.94,-0.000957158530241446
4025.84,-0.0009643518093906047
4026.74,-0.0009740185654382954
4027.64,-0.0009824744331498431
4028.54,-0.0009913840543207602
4029.44,-0.0009855761510995733
4030.34,-0.000977048118158621
4031.24,-0.0009617342499045197
4032.14,-0.000951048331133238
4033.04,-0.0009440418667444098
4033.94,-0.0009530944967446586
4034.84,-0.0009667746562942798
4035.74,-0.0009906773632773784
4036.64,-0.0010244702915854348
4037.54,-0.0010509439639612276
4038.44,-0.0010790612169987335
4039.34,-0.001093780599243351
4040.24,-0.0011035708350446674
4041.14,-0.001107667334619726
4042.04,-0.0010982386600886377
4042.94,-0.0010870145429202813
4043.84,-0.0010690196904641017
4044.74,-0.0010518494800311432
4045.64,-0.0010425041492717094
4046.54,-0.00103924289676601
4047.44,-0.001049613774400352
4048.34,-0.0010736014244933582
4049.24,-0.0011109223658571554
4050.14,-0.0011409831380328913
4051.04,-0.001160116807565896
4051.94,-0.0011736765784676453
4052.84,-0.0011787991404131565
4053.74,-0.0011844924241933333
4054.65,-0.0011737462778290322
4055.55,-0.0011747669114019013
4056.45,-0.0011755999650058134
4057.35,-0.0011758668265037073
4058.25,-0.0011819095376730832
4059.15,-0.0011887164631831293
4060.05,-0.0011994274565257385
4060.95,-0.0012110402453316474
4061.85,-0.0012133583688115285
4062.75,-0.0012096391111461225
4063.65,-0.0012085070623727018
4064.55,-0.0011985017143722326
4065.45,-0.0012103016151165274
4066.35,-0.00122204842975087
4067.25,-0.0012359290183745866
4068.15,-0.0012613459987296464
4069.05,-0.0012870298079351475
4069.95,-0.0013001586066344452
4070.85,-0.0013182288866827267
4071.75,-0.001318090416543654
4072.65,-0.0013231262322374857
4073.55,-0.0013266580623513787
4074.45,-0.001321073270585262
4075.35,-0.0013156070004722317
4076.25,-0.0013113814304675164
4077.15,-0.0013006830290092344
4078.05,-0.001293659883479293
4078.95,-0.0013047250279618892
4079.85,-0.0013233125452928366
4080.75,-0.001360228874970892
4081.65,-0.0013946347123135305
4082.55,-0.0014238961479131043
4083.45,-0.0014470612496810165
4084.35,-0.0014582723904008154
4085.25,-0.0014826214824093548
4086.15,-0.0014894427174847625
4087.05,-0.00152078639926519
4087.95,-0.0015537347227973573
4088.85,-0.001574865131005432
4089.75,-0.0016040846958674446
4090.65,-0.0016193610870818252
4091.55,-0.0016174673013158566
4092.45,-0.0016201446434332078
4093.36,-0.0016163206205856168
4094.26,-0.0015993277746682393
4095.16,-0.0015747039578843307
4096.06,-0.0015455741385755283
4096.96,-0.0015230876278029516
4097.86,-0.0014793623314436207
4098.76,-0.0014382159742129625
4099.66,-0.0013826773470525587
4100.56,-0.0013322601432487154
4101.46,-0.001289412258723119
4102.36,-0.0012685173973138628
4103.26,-0.0012828991048203743
4104.16,-0.0013158486607120824
4105.06,-0.0013786239092324218
4105.96,-0.001456327191518942
4106.86,-0.0015282526949580266
4107.76,-0.0015911677398112206
4108.66,-0.0016429583584542456
4109.56,-0.0016881117643123978
4110.46,-0.0017208080538257098
4111.36,-0.0017498112431155674
4112.26,-0.0017865879192128797
4113.16,-0.0018208277633646813
4114.06,-0.0018634125823206306
4114.96,-0.001893996060899977
4115.86,-0.0019257805044447427
4116.76,-0.0019560548581907615
4117.66,-0.0019623022841839498
4118.56,-0.0019718807263644916
4119.46,-0.0019644403470637528
4120.36,-0.0019703109419644065
4121.26,-0.001984116718006685
4122.16,-0.0019947634571619638
4123.06,-0.0020116486150136494
4123.96,-0.0020486635227801022
4124.86,-0.0020607558623717834
4125.76,-0.002089457237177151
4126.66,-0.00210254037924654
4127.56,-0.002104268171540284
4128.46,-0.0021160387069974022
4129.36,-0.0021284364239346374
4130.26,-0.0021173353391224577
4131.17,-0.0021123486044993408
4132.06,-0.002108695987775022
4132.97,-0.0021114249548570946
4133.87,-0.002132498258591653
4134.77,-0.0021577029562373576
4135.67,-0.00220604586793236
4136.57,-0.0022593362255770954
4137.47,-0.0023091385538533257
4138.37,-0.0023485430150278785
4139.27,-0.002414436357439685
4140.17,-0.002424525584886207
4141.07,-0.0024143801027270064
4141.97,-0.002404576269036365
4142.87,-0.0023906264315359045
4143.77,-0.002374052596196824
4144.67,-0.0023702463406230717
4145.57,-0.002388134265482465
4146.47,-0.0024305603569091594
4147.37,-0.002468523615247454
4148.27,-0.002508556489077162
4149.17,-0.002549337220630466
4150.07,-0.0025677085753920414
4150.97,-0.002580628851331288
4151.87,-0.0025890343803199813
4152.77,-0.002598378068716849
4153.67,-0.0026094230880837144
4154.57,-0.002616224786554676
4155.47,-0.002621424999100033
4156.37,-0.0026577099604855065
4157.27,-0.002682177680871663
4158.17,-0.0027153010310632586
4159.07,-0.002762787320554089
4159.97,-0.002818984889717528
4160.87,-0.002876054476400101
4161.77,-0.0029115254260426247
4162.67,-0.0029597117180890763
4163.57,-0.0029938868311704977
4164.47,-0.0030098706615565934
4165.37,-0.0030416078452550985
4166.27,-0.0030295010659135754
4167.17,-0.0030356783982019514
4168.07,-0.003044619875794307
4168.98,-0.0030469624477033135
4169.88,-0.003047134137008877
4170.78,-0.0030081646651543984
4171.68,-0.003002441987461821
4172.58,-0.002973776522510654
4173.48,-0.0029558613832194563
4174.38,-0.002951776879285513
4175.28,-0.0029765586123077664
4176.18,-0.0030078809813361878
4177.08,-0.0030671888197854134
4177.98,-0.0031031518427414215
4178.88,-0.0031684467212978107
4179.78,-0.003235287278249649
4180.68,-0.003258728135470432
4181.58,-0.0033045184617712907
4182.48,-0.003351641431834511
4183.38,-0.0033763978575581783
4184.28,-0.003396709208151141
4185.18,-0.0034351526620912485
4186.08,-0.0034568762017100083
4186.98,-0.0034812826194744184
4187.88,-0.0035023527743872898
4188.78,-0.0035323547045364658
4189.68,-0.0035530561533429505
4190.58,-0.0036126643907511136
4191.48,-0.0036678832560967166
4192.38,-0.003731067896760365
4193.28,-0.0037739288980088515
4194.18,-0.003816700614125644
4195.08,-0.003829374036141825
4195.98,-0.00382769983713493
4196.88,-0.003790379202644741
4197.78,-0.0037781177677201926
4198.68,-0.0037477532778287504
4199.58,-0.003747417935771144
4200.48,-0.003762918306317842
4201.38,-0.003783479513927918
4202.28,-0.0038205823567484067
4203.18,-0.0038905578817395895
4204.08,-0.003941836958484661
4204.98,-0.004005481535096388
4205.88,-0.004103018572119106
4206.79,-0.0041733771323618695
4207.69,-0.004260439985314381
4208.59,-0.00434662112675729
4209.49,-0.004401455715410215
4210.39,-0.004450609856189153
4211.29,-0.004491804929248876
4212.19,-0.0045346679997830186
4213.09,-0.004565789009420422
4213.99,-0.004557869173556661
4214.89,-0.004565886131975885
4215.79,-0.004563373541433021
4216.69,-0.004580457691338125
4217.59,-0.0046302213008186
4218.49,-0.004679469174684469
4219.39,-0.0047770920931230225
4220.29,-0.004847821429854617
4221.19,-0.004918594771174154
4222.09,-0.004899622491514379
4222.99,-0.0048807866746699525
4223.89,-0.004794976052729689
4224.79,-0.004683169471743429
4225.69,-0.004573411550251137
4226.59,-0.004480240673106178
4227.49,-0.004463099094354584
4228.39,-0.004541014942449138
4229.29,-0.004691114860885997
4230.19,-0.004871010345661763
4231.09,-0.005060554314458082
4231.99,-0.005205612575406257
4232.89,-0.0053151530016931495
4233.79,-0.0053793944269036375
4234.69,-0.00539018552654138
4235.59,-0.005391269183586074
4236.49,-0.0054177013927016624
4237.39,-0.005415221785332152
4238.29,-0.005458807420319808
4239.19,-0.00555503493530523
4240.09,-0.0056382010156571525
4240.99,-0.0057348884553253595
4241.89,-0.005828415719323689
4242.79,-0.005946843574736505
4243.69,-0.006028377815550646
4244.59,-0.006115088352516308
4245.5,-0.006131961339550621
4246.4,-0.006163262257922214
4247.3,-0.006161062072083757
4248.2,-0.006126382523831097
4249.1,-0.006131026866144674
4250.0,-0.006109851226125819
4250.9,-0.006171122634663606
4251.8,-0.006229131953898019
4252.7,-0.006313282523811624
4253.6,-0.006402355318951893
4254.5,-0.00651619991506294
4255.4,-0.006560173486476334
4256.3,-0.0066477545485155295
4257.2,-0.006699222225275334
4258.1,-0.0067693344413821
4259.0,-0.006801998790861761
4259.9,-0.006781621576658686
4260.8,-0.006843858938714193
4261.7,-0.006916710440811246
4262.6,-0.007019993609265588
4263.5,-0.007198371475554889
4264.4,-0.007377615092825909
4265.3,-0.0075620293135627665
4266.2,-0.007658971345206927
4267.1,-0.007695647283189381
4268.0,-0.007726103460937456
4268.9,-0.0076920268071800375
4269.8,-0.007578125480393965
4270.7,-0.007433915193038768
4271.6,-0.00733691188309221
4272.5,-0.007292063605250095
4273.4,-0.007287390613210759
4274.3,-0.007383329390425013
4275.2,-0.0075144840631099314
4276.1,-0.007690373764421955
4277.0,-0.00792865681755044
4277.9,-0.008123504477801352
4278.8,-0.008328889210960599
4279.7,-0.008404998541255981
4280.6,-0.008475573226531847
4281.5,-0.00855436014480799
4282.4,-0.008638455287318842
4283.31,-0.00866139985325373
