wave,flux
3700.85,-0.006748689661055862
3701.75,-0.006759205902851455
3702.65,-0.00661350976948159
3703.55,-0.006396995072162438
3704.45,-0.006136370614039171
3705.35,-0.0059285614344534296
3706.25,-0.005788131830031099
3707.15,-0.005769592781649731
3708.05,-0.005890998496254566
3708.96,-0.00607150553360612
3709.86,-0.006308068785593527
3710.76,-0.006587779507866198
3711.66,-0.006969529579732511
3712.56,-0.007425871899246761
3713.46,-0.007806277716801996
3714.36,-0.008198196649952055
3715.26,-0.00852771555479201
3716.16,-0.008677547321036816
3717.06,-0.00870944600612368
3717.96,-0.008514524109547044
3718.86,-0.008130055388998325
3719.76,-0.0077189613970822125
3720.66,-0.00727566973397478
3721.56,-0.006971766313803416
3722.46,-0.0069789523526487835
3723.36,-0.007277529186282071
3724.26,-0.007782145140446187
3725.16,-0.00839638841357252
3726.06,-0.008937906387479705
3726.96,-0.009295512237450355
3727.86,-0.009572027902213643
3728.76,-0.009715348903082871
3729.66,-0.009798949940653912
3730.56,-0.009733108426928417
3731.46,-0.009517900428269827
3732.36,-0.009126430493744953
3733.26,-0.008600760278179256
3734.16,-0.008066460892177652
3735.06,-0.007723053348998397
3735.96,-0.007620672813192248
3736.86,-0.00786798724013582
3737.76,-0.008487133105421115
3738.66,-0.009333708645820388
3739.56,-0.010272526349956462
3740.46,-0.011126811264776881
3741.36,-0.01182703190515632
3742.26,-0.012079276268471214
3743.16,-0.012133525384163056
3744.06,-0.011895508059638158
3744.96,-0.011516164262479641
3745.86,-0.01109019756069407
3746.76,-0.010688730359167257
3747.67,-0.010252484334686781
3748.57,-0.009961701393492539
3749.47,-0.009862883330982173
3750.37,-0.010097464288264442
3751.27,-0.010781142080876941
3752.17,-0.011847682882170344
3753.07,-0.013181943460623511
3753.97,-0.014500901314989953
3754.87,-0.015616979742693448
3755.77,-0.016347304787794885
3756.67,-0.016540608700543906
3757.57,-0.01649637685060365
3758.47,-0.01626234380696803
3759.37,-0.015912274993624798
3760.27,-0.016024514505533254
3761.17,-0.01634938359185155
3762.07,-0.016837568799378828
3762.97,-0.01746476270671849
3763.87,-0.017846438823430493
3764.77,-0.01824366275381773
3765.67,-0.018609353600508905
3766.57,-0.018678449868229845
3767.47,-0.018658281391443442
3768.37,-0.018488643467031777
3769.27,-0.018528277413748028
3770.17,-0.018754530758661455
3771.07,-0.019114907672681394
3771.97,-0.01987775167366471
3772.87,-0.02087460027635928
3773.77,-0.022017811268028577
3774.67,-0.02322885715308403
3775.57,-0.02425173932913266
3776.47,-0.02535415171891201
3777.37,-0.026369334692957675
3778.27,-0.027287148024796953
3779.17,-0.0284066850277621
3780.07,-0.029710729353729887
3780.97,-0.03070611490026598
3781.87,-0.03178650966937226
3782.77,-0.03251643100132804
3783.67,-0.033091439071697364
3784.57,-0.03333793667033731
3785.47,-0.03311157332147304
3786.38,-0.032615368629740626
3787.28,-0.03206054343997299
3788.18,-0.03160238223044471
3789.08,-0.03126589514459422
3789.98,-0.031186655906685345
3790.88,-0.031461334964073
3791.78,-0.03165404644979013
3792.68,-0.03171363489689199
3793.58,-0.03161820617768856
3794.48,-0.031301572393789626
3795.38,-0.03035978131569388
3796.28,-0.02970800492385866
3797.18,-0.029122591708223827
3798.08,-0.028838857682106606
3798.98,-0.029367120595232166
3799.88,-0.030918720466067584
3800.78,-0.033272297575306545
3801.68,-0.03629675812681606
3802.58,-0.039738555959065044
3803.48,-0.042773849689717335
3804.38,-0.045578836920398595
3805.28,-0.0473429969661799
3806.18,-0.04896897690944887
3807.08,-0.0501730980938964
3807.98,-0.051370730665247194
3808.88,-0.05286199822418525
3809.78,-0.054150535190696576
3810.68,-0.056014416566285044
3811.58,-0.05699027701704594
3812.48,-0.0570268932965625
3813.38,-0.05662601443322585
3814.28,-0.05551158460420061
3815.18,-0.054840882067170714
3816.08,-0.05484063844361261
3816.98,-0.05540315366962549
3817.88,-0.056752253514239286
3818.78,-0.05756382489037474
3819.68,-0.058406694814599126
3820.58,-0.05874385540995072
3821.48,-0.059362510870130954
3822.38,-0.05975352496118105
3823.28,-0.06014339177703498
3824.18,-0.06024416335818524
3825.09,-0.06021928223512575
3825.99,-0.059473355942473424
3826.89,-0.05905995391384853
3827.79,-0.05899923008712335
3828.69,-0.059269437449510555
3829.59,-0.059784687411326407
3830.49,-0.060005030758829514
3831.39,-0.059931756636568426
3832.29,-0.058972797216452585
3833.19,-0.05742641949290224
3834.09,-0.05632013805535351
3834.99,-0.055686370150686705
3835.89,-0.05624758134182674
3836.79,-0.05764330203688636
3837.69,-0.059996286810933636
3838.59,-0.06314897244240514
3839.49,-0.0673059878629184
3840.39,-0.07322034340694838
3841.29,-0.07987569626479545
3842.19,-0.08739950395516873
3843.09,-0.0956696004990593
3843.99,-0.10405865576420008
3844.89,-0.11132025732879303
3845.79,-0.1183869656809102
3846.69,-0.12475657698087228
3847.59,-0.12970398989827878
3848.49,-0.13375004132509744
3849.39,-0.13766477452745624
3850.29,-0.14163491824049526
3851.19,-0.14599656803404334
3852.09,-0.15054758343719424
3852.99,-0.15485086377456966
3853.89,-0.15901522104600496
3854.79,-0.16289200501628737
3855.69,-0.16466380377892523
3856.59,-0.16557796534000177
3857.49,-0.16599185280413395
3858.39,-0.1675038699032905
3859.29,-0.16966080449072668
3860.19,-0.1736961163043627
3861.09,-0.18124838199797008
3861.99,-0.19161505298128417
3862.9,-0.20453091684076485
3863.8,-0.2148166726817998
3864.7,-0.22602084010379533
3865.6,-0.2365553031819971
3866.5,-0.2427772026538456
3867.4,-0.24970978234915453
3868.3,-0.2551706891095532
3869.2,-0.26030615136591745
3870.1,-0.2630392090784241
3871.0,-0.26665323311874384
3871.9,-0.27025684014729046
3872.8,-0.2742919661023345
3873.7,-0.28269295438450975
3874.6,-0.29296925510171734
3875.5,-0.30780436347128115
3876.4,-0.32031631119575177
3877.3,-0.3305575995320574
3878.2,-0.3394837989413638
3879.1,-0.3482050075128015
3880.0,-0.3570400345317063
3880.9,-0.3690417487294585
3881.8,-0.38167580961046305
3882.7,-0.3939851021278449
3883.6,-0.4043516710291785
3884.5,-0.4118812841812844
3885.4,-0.4162918291829034
3886.3,-0.4153064637203612
3887.2,-0.41633098196947044
3888.1,-0.42049389187322506
3889.0,-0.4316626511275096
3889.9,-0.45544735116959784
3890.8,-0.49518387854384827
3891.7,-0.5476720803285476
3892.6,-0.6041504885119688
3893.5,-0.667710654254374
3894.4,-0.7321506537268602
3895.3,-0.793749398457946
3896.2,-0.8603142738469395
3897.1,-0.9317300317231781
3898.0,-1.0082840169282876
3898.9,-1.0862034918595636
3899.8,-1.179054609875399
3900.7,-1.2818734959434637
3901.6,-1.3883399948377342
3902.51,-1.5062051711138462
3903.41,-1.6338941648749157
3904.31,-1.7775821900797137
3905.21,-1.9549657418039155
3906.11,-2.1829862642802373
3907.01,-2.4920439463232325
3907.91,-2.882838262178245
3908.81,-3.434463827930854
3909.71,-4.194296334984768
3910.61,-5.230568274685058
3911.51,-6.757675678259382
3912.41,-9.316149435268658
3913.31,-14.485117161314383
3914.21,-31.107673777679395
3915.11,235.95347268559865
3916.01,24.71890898610003
3916.91,12.980617948645225
3917.81,8.792289767985586
3918.71,6.60155319168234
3919.61,5.26056304690154
3920.51,4.398466812319152
3921.41,3.7524053392378627
3922.31,3.272985758497685
3923.21,2.9338859489724594
3924.11,2.64020202889531
3925.01,2.3890583968213717
3925.91,2.1555117500554446
3926.81,1.9228053995101788
3927.71,1.6865646638873588
3928.61,1.4655715489901544
3929.51,1.2418059243304767
3930.41,1.0482527732535971
3931.31,0.8692154949792891
3932.21,0.7238664527424445
3933.11,0.6120611841903023
3934.01,0.5449013362140483
3934.91,0.5183574960026175
3935.81,0.5360564923366565
3936.71,0.5820524826951415
3937.61,0.6559762039315677
3938.51,0.7353962413693869
3939.42,0.8205699556919178
3940.32,0.8856628072539093
3941.22,0.9356199400388291
3942.12,0.9641412664301531
3943.02,0.9884073824055453
3943.92,1.001680679138811
3944.82,1.0102218387337394
3945.72,1.025706148448709
3946.62,1.0377580335816257
3947.52,1.0493536039186004
3948.42,1.0570770576291049
3949.32,1.0628184875299438
3950.22,1.0636690864792484
3951.12,1.0585721718897914
3952.02,1.0556309770011572
3952.92,1.051635117654013
3953.82,1.0406523909742762
3954.72,1.0303142043721163
3955.62,1.0151126367957293
3956.52,0.9984164841565955
3957.42,0.9763331085758736
3958.32,0.9558838326439779
3959.22,0.9302246400217458
3960.12,0.8994649310779583
3961.02,0.852705772322245
3961.92,0.8001842059414644
3962.82,0.7431133063094086
3963.72,0.6814206849190741
3964.62,0.6166863129297803
3965.52,0.55032050992721
3966.42,0.48360884103534524
3967.32,0.4200747742323647
3968.22,0.37087535964315216
3969.12,0.3393451460481417
3970.02,0.33004434966584234
3970.92,0.34613755519129086
3971.82,0.38271218971906307
3972.72,0.43308944633649676
3973.62,0.49633728675380856
3974.52,0.5561892938562141
3975.42,0.6165292468939375
3976.32,0.6704596761287676
3977.22,0.7241320332402882
3978.13,0.7750011094355234
3979.03,0.8131785129089781
3979.93,0.8447134655129099
3980.83,0.8652504545561766
3981.73,0.8836950203562237
3982.63,0.8875721244922644
3983.53,0.8948687924690079
3984.43,0.8993690902750658
3985.33,0.9014451151338896
3986.23,0.9137377602871535
3987.13,0.924887308018456
3988.03,0.9299845719919477
3988.93,0.9425938466571115
3989.83,0.9477595528942192
3990.73,0.9559480890594672
3991.63,0.9629642284453175
3992.53,0.9743888133298506
3993.43,0.970931406809372
3994.33,0.9723270117290508
3995.23,0.9619028783131268
3996.13,0.9501028213149803
3997.03,0.9436801534487653
3997.93,0.9417303016736941
3998.83,0.9441588088323907
3999.73,0.9584670878725905
4000.63,0.9689963004350702
4001.53,0.9802156047107988
4002.43,0.9904931499480377
4003.33,0.9902274380770012
4004.23,0.9747921495646155
4005.13,0.9641656900563789
4006.03,0.9503450908902923
4006.93,0.9418260022875006
4007.83,0.945499325759652
4008.73,0.9591721770066789
4009.63,0.9716031828846639
4010.53,0.9874764519133967
4011.43,0.9974225730930594
4012.33,1.0106248710107013
4013.23,1.0156355154100776
4014.13,1.0190567907849961
4015.03,1.0226419087454546
4015.93,1.018961645103114
4016.84,1.0250288528625893
4017.74,1.0288600985153176
4018.64,1.0263503292813385
4019.54,1.0306031688328723
4020.44,1.0353855679235058
4021.34,1.0356318101219353
4022.24,1.0352836183233705
4023.14,1.0325793291023542
4024.04,1.0342639488008625
4024.94,1.0357235980698423
4025.84,1.0376508874369907
4026.74,1.0433829240907297
4027.64,1.0491833115640306
4028.54,1.0451371917722974
4029.44,1.0334266384346955
4030.34,1.0099228094207495
4031.24,0.9861665731941407
4032.14,0.9655558949996003
4033.04,0.9488678964778997
4033.94,0.9529231064002539
4034.84,0.9570636679801152
4035.74,0.9839076544193507
4036.64,1.0113086169629395
4037.54,1.036905681931242
4038.44,1.0604291124104224
4039.34,1.0722395827950804
4040.24,1.0781223181590094
4041.14,1.0734770512586578
4042.04,1.0597420086875848
4042.94,1.0320409920863147
4043.84,1.0070303028422498
4044.74,0.9815127144469316
4045.64,0.9583382550503492
4046.54,0.9443472899592829
4047.44,0.9551653712222853
4048.34,0.977108399829017
4049.24,1.0055235941825003
4050.14,1.0295008593539587
4051.04,1.0479025760643008
4051.94,1.0522821821953177
4052.84,1.0490200099191442
4053.74,1.0406454665087383
4054.65,1.0281011401519755
4055.55,1.011434194710316
4056.45,1.0031447985936273
4057.35,0.995650418904039
4058.25,0.997489513252177
4059.15,0.9978577270543603
4060.05,0.9995126955566385
4060.95,0.99920975117639
4061.85,0.9921618667305039
4062.75,0.9868032390918217
4063.65,0.9716673763995977
4064.55,0.9604108062985239
4065.45,0.957930211986511
4066.35,0.9658532168137459
4067.25,0.9782298766817462
4068.15,0.9925442169690714
4069.05,1.0030332033223863
4069.95,1.0167027228119734
4070.85,1.0156388896070556
4071.75,1.012720705692754
4072.65,1.0044576320459255
4073.55,0.998563740016639
4074.45,0.9908165021532438
4075.35,0.9809455644637942
4076.25,0.9680858491889278
4077.15,0.9518866113923292
4078.05,0.9465008104108009
4078.95,0.9498456291668176
4079.85,0.9544765628313439
4080.75,0.9761932722729607
4081.65,1.001221559145476
4082.55,1.0165491286965294
4083.45,1.0261010089247173
4084.35,1.0274981601910147
4085.25,1.0323441893313166
4086.15,1.038096633319283
4087.05,1.048241481623072
4087.95,1.0641544836312977
4088.85,1.0724846380272335
4089.75,1.0870134748933264
4090.65,1.0871569655611149
4091.55,1.0848872285276503
4092.45,1.07491484709723
4093.36,1.0610198838847398
4094.26,1.0393549690923518
4095.16,1.0183392079227818
4096.06,0.9934147780382755
4096.96,0.964560411407491
4097.86,0.9333154648412936
4098.76,0.8945642792845889
4099.66,0.8569065698305348
4100.56,0.8200734085418266
4101.46,0.793701847261732
4102.36,0.7785356245761917
4103.26,0.7778191770982018
4104.16,0.7966483214367029
4105.06,0.8270190246675166
4105.96,0.865612920408214
4106.86,0.9067262178853572
4107.76,0.9330642900118702
4108.66,0.958759413082243
4109.56,0.9728654252310561
4110.46,0.9775155602613083
4111.36,0.9896926348190391
4112.26,1.0006765024708688
4113.16,1.01062950255287
4114.06,1.0247228862702655
4114.96,1.0359633976175062
4115.86,1.0420006090030391
4116.76,1.046185068546203
4117.66,1.0434645388607873
4118.56,1.0411181546237958
4119.46,1.0357255711472997
4120.36,1.0287868766858226
4121.26,1.0239076474903137
4122.16,1.0229539114706212
4123.06,1.020880015052913
4123.96,1.025526002945696
4124.86,1.029182343548035
4125.76,1.0327014520244284
4126.66,1.030093184481277
4127.56,1.0288190229835612
4128.46,1.0229152299354936
4129.36,1.0114602363624856
4130.26,1.0006263042742254
4131.17,0.9891601362219283
4132.06,0.9820704402887768
4132.97,0.9729882699415168
4133.87,0.9717236504944134
4134.77,0.9828532212520174
4135.67,0.9955672631555026
4136.57,1.0162012383176369
4137.47,1.0365840618619941
4138.37,1.0538535795682515
4139.27,1.0603637733969857
4140.17,1.0558337651951153
4141.07,1.0517872548315426
4141.97,1.0345750432611818
4142.87,1.0125666976254948
4143.77,0.9982720253893871
4144.67,0.9833309881650947
4145.57,0.9808723106377882
4146.47,0.9982244013743666
4147.37,1.0059083623089577
4148.27,1.0130120784136094
4149.17,1.0189294346026747
4150.07,1.0227124392457183
4150.97,1.0134507990037387
4151.87,1.0083911419369294
4152.77,1.0034195830774446
4153.67,0.999458254018581
4154.57,0.9925567579687965
4155.47,0.9881392577213988
4156.37,0.9924954715775347
4157.27,1.0002215297346393
4158.17,1.0022702086771864
4159.07,1.0176288096288866
4159.97,1.0282820723900459
4160.87,1.0421695732467153
4161.77,1.0481763472976457
4162.67,1.0587326126590757
4163.57,1.0672960283015176
4164.47,1.0648877303281317
4165.37,1.057790650750418
4166.27,1.0519646826698739
4167.17,1.0450202261156343
4168.07,1.0370123098659894
4168.98,1.0283040327007877
4169.88,1.0170137680024183
4170.78,0.998366008517749
4171.68,0.9791283648409431
4172.58,0.969238550724932
4173.48,0.950578141556955
4174.38,0.9430170620192101
4175.28,0.9438773785970791
4176.18,0.9476276342084465
4177.08,0.9537168574795508
4177.98,0.9617261640789051
4178.88,0.9724396130126238
4179.78,0.9785247278335379
4180.68,0.9839877655172161
4181.58,0.9937538260799418
4182.48,0.9982109041433497
4183.38,1.000161373030856
4184.28,1.001807719272614
4185.18,0.9998992280381913
4186.08,1.001954631611487
4186.98,1.0028395392793161
4187.88,0.9987056130829999
4188.78,0.9995550912821725
4189.68,1.0003877707232252
4190.58,1.0081681793441983
4191.48,1.0147001997842546
4192.38,1.0256662423303846
4193.28,1.0327928146718395
4194.18,1.0370735154474326
4195.08,1.0275584583372042
4195.98,1.0171063258586444
4196.88,0.9986713735488788
4197.78,0.9812351390930449
4198.68,0.9682323246193655
4199.58,0.9553124344278461
4200.48,0.9482687225003598
4201.38,0.9517676000141871
4202.28,0.954620832481224
4203.18,0.960783924759653
4204.08,0.9698147725639986
4204.98,0.9867507237131274
4205.88,0.9993699387602436
4206.79,1.0183257996737218
4207.69,1.0283969024696893
4208.59,1.0428354688935668
4209.49,1.05185307341247
4210.39,1.0569939315995331
4211.29,1.0601747802839228
4212.19,1.0555872985177983
4213.09,1.0488777720689124
4213.99,1.0444828493982778
4214.89,1.0385948470450854
4215.79,1.0266621124666602
4216.69,1.0205416264568623
4217.59,1.0248142795392172
4218.49,1.0395128623382657
4219.39,1.0470133996088924
4220.29,1.0615243593514336
4221.19,1.063489104440063
4222.09,1.0588488410089194
4222.99,1.0392205746475316
4223.89,1.0040122114318841
4224.79,0.9664688955926158
4225.69,0.9249004283032698
4226.59,0.8983973974563169
4227.49,0.8854171586145818
4228.39,0.8920656492662526
4229.29,0.9197350387866581
4230.19,0.9534693590734757
4231.09,0.9874927565099411
4231.99,1.015356350168602
4232.89,1.0280946134620736
4233.79,1.0269906624550795
4234.69,1.0255962287150275
4235.59,1.0147326994793697
4236.49,1.0058747364983185
4237.39,1.0011165607602985
4238.29,1.0058890231741995
4239.19,1.0080176631062874
4240.09,1.0143875621931682
4240.99,1.0321607208225776
4241.89,1.0426558416548883
4242.79,1.0533165594490295
4243.69,1.0670621465675263
4244.59,1.070332388282661
4245.5,1.073741866481318
4246.4,1.0647186784739016
4247.3,1.0523688268534408
4248.2,1.0365008892200207
4249.1,1.0232541469567817
4250.0,1.0107683420723528
4250.9,1.0090479578668912
4251.8,1.0099064540147982
4252.7,1.0145957021419667
4253.6,1.0189400057765525
4254.5,1.0229645528601918
4255.4,1.0252319117483861
4256.3,1.0339729528152668
4257.2,1.0347998619042782
4258.1,1.0285547566750615
4259.0,1.0227572128683742
4259.9,1.0224223034471784
4260.8,1.0138089033058637
4261.7,1.01840359883685
4262.6,1.033093840205684
4263.5,1.0447674529378486
4264.4,1.0657162892485426
4265.3,1.086270666059606
4266.2,1.093809717482465
4267.1,1.0936441468718898
4268.0,1.0810585968055177
4268.9,1.0605662584203095
4269.8,1.0328038003835647
4270.7,1.0035503971564455
4271.6,0.9754538260853152
4272.5,0.9530166148821779
4273.4,0.9437442827415305
4274.3,0.9395799193148309
4275.2,0.9617278133443073
4276.1,0.9806062796172721
4277.0,1.0061877421679681
4277.9,1.0228427242306308
4278.8,1.0426863213488142
4279.7,1.0502948014063245
4280.6,1.0482650864213958
4281.5,1.0443214517817265
4282.4,1.0439371460553348
4283.31,1.0350347974907326
4284.21,1.0304161189857128
4285.11,1.0209253238291096
4286.01,1.0097059559437338
4286.91,0.995465707686577
4287.81,0.9800324476212293
4288.71,0.9647469162040121
4289.61,0.9497184715843255
4290.51,0.9433292791908336
4291.41,0.9415503945496216
4292.31,0.9520926757651378
4293.21,0.9583811772844825
4294.11,0.9650085596226265
4295.01,0.9748232848887812
4295.91,0.969150925053069
4296.81,0.9497118050986707
4297.71,0.9295910715059955
4298.61,0.899950681649533
4299.51,0.8720482523029556
4300.41,0.8431183313270226
4301.31,0.8228842609960122
4302.21,0.8096005086509873
4303.11,0.8061114804350235
4304.01,0.8062662289525617
4304.91,0.805926675929393
4305.81,0.8063021299218671
4306.71,0.8040375058736511
4307.61,0.7990249881265932
4308.51,0.7945942119096305
4309.41,0.794851279474993
4310.31,0.8044839124877068
4311.21,0.8245614095398262
4312.11,0.8518059990066218
4313.01,0.8826987339021645
4313.91,0.9203709734452209
4314.81,0.9680312665058988
4315.71,1.0128681280922638
4316.61,1.0540769456513923
4317.51,1.0951400991799884
4318.41,1.1251104635283722
4319.31,1.1400662551114316
4320.21,1.1384420428592787
4321.12,1.1254120634391542
4322.02,1.0993387483190524
4322.92,1.0621047333337155
4323.82,1.0252332251506142
4324.72,0.9937682333419743
4325.62,0.9695978773105177
4326.52,0.9615956440169248
4327.42,0.9720850647935498
4328.32,0.9892917673674267
4329.22,1.0197013840219704
4330.12,1.0464746932947855
4331.02,1.073417407257788
4331.92,1.0817070420288408
4332.82,1.0884025570160627
4333.72,1.0896047869267447
4334.62,1.0797220353151997
4335.52,1.0585868417985704
4336.42,1.0241523709698925
4337.32,0.9756219931631082
4338.22,0.9323278668649142
4339.12,0.8812686796561882
4340.02,0.8389366991371094
4340.92,0.8210158102045675
4341.82,0.8149382797978422
4342.72,0.827939870369637
4343.62,0.8597939312796339
4344.52,0.9002095483645578
4345.42,0.9432401731239684
4346.32,0.9785084088952815
4347.22,1.0053767518197236
4348.12,1.028404337632732
4349.02,1.0381779834561187
4349.92,1.0400765754571626
4350.82,1.0369519433533387
4351.72,1.019178395475467
4352.62,1.0129610816701686
4353.52,1.005852045442131
4354.42,1.0129792451899011
