wave,flux
3700.85,-6.109034513339663e-05
3701.75,-6.012860618713806e-05
3702.65,-5.784573730860768e-05
3703.55,-5.481059673677637e-05
3704.45,-5.06832717933391e-05
3705.35,-4.6975708022770495e-05
3706.25,-4.428548244543831e-05
3707.15,-4.287298494098949e-05
3708.05,-4.282602327787428e-05
3708.96,-4.411318442213123e-05
3709.86,-4.6602130562599894e-05
3710.76,-5.0432184617157934e-05
3711.66,-5.47696058432964e-05
3712.56,-5.929540630458191e-05
3713.46,-6.37101645965809e-05
3714.36,-6.57698558852585e-05
3715.26,-6.679865734893981e-05
3716.16,-6.529822951653366e-05
3717.06,-6.243145174424736e-05
3717.96,-5.799587442747308e-05
3718.86,-5.2456345866052345e-05
3719.76,-4.6674111831611036e-05
3720.66,-4.250761096414606e-05
3721.56,-4.014882612151553e-05
3722.46,-4.040885116055191e-05
3723.36,-4.3190018764917434e-05
3724.26,-4.723779786403846e-05
3725.16,-5.142570168332231e-05
3726.06,-5.453651599925904e-05
3726.96,-5.629915528892277e-05
3727.86,-5.7209485434016146e-05
3728.76,-5.735159247818579e-05
3729.66,-5.6702546804906205e-05
3730.56,-5.567353347790822e-05
3731.46,-5.344606507304196e-05
3732.36,-4.9967865026462215e-05
3733.26,-4.558640684901079e-05
3734.16,-4.100067433677065e-05
3735.06,-3.7347627515255836e-05
3735.96,-3.573051885502415e-05
3736.86,-3.6069521717953374e-05
3737.76,-3.856078933819738e-05
3738.66,-4.322871967411349e-05
3739.56,-4.8509269304684394e-05
3740.46,-5.3105565605121374e-05
3741.36,-5.619612364257608e-05
3742.26,-5.724307345288818e-05
3743.16,-5.569113348196885e-05
3744.06,-5.275262838367897e-05
3744.96,-4.90628942731609e-05
3745.86,-4.5562586560382454e-05
3746.76,-4.25540611718537e-05
3747.67,-4.075027924715128e-05
3748.57,-3.978833657696804e-05
3749.47,-4.047815135338073e-05
3750.37,-4.319307821819678e-05
3751.27,-4.802651349363674e-05
3752.17,-5.4053026896741235e-05
3753.07,-6.085051733633462e-05
3753.97,-6.648285308847591e-05
3754.87,-7.047137977600249e-05
3755.77,-7.189352140722219e-05
3756.67,-7.088105527897716e-05
3757.57,-6.759388247065235e-05
3758.47,-6.423859113935501e-05
3759.37,-6.113956377224337e-05
3760.27,-6.0211592817882914e-05
3761.17,-6.082915009851189e-05
3762.07,-6.201205153273941e-05
3762.97,-6.348994233593057e-05
3763.87,-6.453060231934853e-05
3764.77,-6.491335690831605e-05
3765.67,-6.558589969540684e-05
3766.57,-6.645983593918703e-05
3767.47,-6.77919883676419e-05
3768.37,-6.971510980986748e-05
3769.27,-7.211467982288452e-05
3770.17,-7.505191235482763e-05
3771.07,-7.857635056511761e-05
3771.97,-8.186135216427542e-05
3772.87,-8.455775015594426e-05
3773.77,-8.739971560241639e-05
3774.67,-8.97444290302725e-05
3775.57,-9.025145599596297e-05
3776.47,-9.149723759332675e-05
3777.37,-9.268715740358141e-05
3778.27,-9.443856721971744e-05
3779.17,-9.562522244714471e-05
3780.07,-9.834494612968376e-05
3780.97,-0.00010052853082247385
3781.87,-0.00010227435447193172
3782.77,-0.00010330204996620071
3783.67,-0.00010378044143759309
3784.57,-0.00010171175862345346
3785.47,-9.873522034148923e-05
3786.38,-9.405124289247688e-05
3787.28,-8.90554916989636e-05
3788.18,-8.513411785834583e-05
3789.08,-8.220153365155278e-05
3789.98,-8.127176230431643e-05
3790.88,-8.115958674254772e-05
3791.78,-8.169043142319587e-05
3792.68,-8.173041159933467e-05
3793.58,-8.156435142886952e-05
3794.48,-8.047317048377998e-05
3795.38,-7.87601994927251e-05
3796.28,-7.660835346320742e-05
3797.18,-7.496347031023906e-05
3798.08,-7.425994151237374e-05
3798.98,-7.514799727253296e-05
3799.88,-7.763198827226287e-05
3800.78,-8.214755642237483e-05
3801.68,-8.808365300419586e-05
3802.58,-9.467452919344709e-05
3803.48,-0.00010061188223021002
3804.38,-0.00010459358024146228
3805.28,-0.00010650548235807603
3806.18,-0.00010664832234608374
3807.08,-0.00010616507241557177
3807.98,-0.00010644653360770291
3808.88,-0.00010614013528331803
3809.78,-0.00010764902848444267
3810.68,-0.00010833749556717846
3811.58,-0.00010774325092485696
3812.48,-0.0001049691799597312
3813.38,-0.00010075305706594849
3814.28,-9.45437841618904e-05
3815.18,-8.984785611114717e-05
3816.08,-8.629498664688378e-05
3816.98,-8.36944150656968e-05
3817.88,-8.22406821394276e-05
3818.78,-8.124965763249243e-05
3819.68,-7.9795004568644e-05
3820.58,-7.781384706692944e-05
3821.48,-7.631326098623756e-05
3822.38,-7.559857193824271e-05
3823.28,-7.429914847894809e-05
3824.18,-7.296052245717833e-05
3825.09,-7.083634270483559e-05
3825.99,-6.825879531586964e-05
3826.89,-6.640769140294743e-05
3827.79,-6.532235205786742e-05
3828.69,-6.56697658074377e-05
3829.59,-6.69182803925636e-05
3830.49,-6.764790299395572e-05
3831.39,-6.765596142116698e-05
3832.29,-6.710133493188516e-05
3833.19,-6.627168435841494e-05
3834.09,-6.597765483612654e-05
3834.99,-6.639631916881915e-05
3835.89,-6.712555520966894e-05
3836.79,-6.818769771931478e-05
3837.69,-6.895838392935944e-05
3838.59,-6.921254044214597e-05
3839.49,-7.03473076704837e-05
3840.39,-7.302368601549949e-05
3841.29,-7.77602009587245e-05
3842.19,-8.514988582286659e-05
3843.09,-9.315609258286516e-05
3843.99,-0.00010129743018506722
3844.89,-0.00010811192890889033
3845.79,-0.00011316278277738364
3846.69,-0.0001164908711373017
3847.59,-0.00011798107281572945
3848.49,-0.00011800048886836014
3849.39,-0.0001173769139093998
3850.29,-0.00011633412908546756
3851.19,-0.00011573368479319663
3852.09,-0.00011650279191777421
3852.99,-0.00011642016713631483
3853.89,-0.0001157537614800513
3854.79,-0.00011425455083140258
3855.69,-0.00011186339589126612
3856.59,-0.00010732572073997219
3857.49,-0.00010358498025988583
3858.39,-9.978146758147195e-05
3859.29,-9.757714575512828e-05
3860.19,-9.652021513301166e-05
3861.09,-9.951605565140148e-05
3861.99,-0.00010502307252187085
3862.9,-0.00011270002132505326
3863.8,-0.00011991240969923416
3864.7,-0.00012505852456153
3865.6,-0.0001285481235919972
3866.5,-0.00012917789255946876
3867.4,-0.00012884961966195434
3868.3,-0.00012685171129839598
3869.2,-0.00012405809930606394
3870.1,-0.00012145235889292988
3871.0,-0.00011827879987281025
3871.9,-0.00011631657243042587
3872.8,-0.00011685228497285454
3873.7,-0.00011981846967966854
3874.6,-0.00012412454082993168
3875.5,-0.00012845971743140745
3876.4,-0.0001309296344379714
3877.3,-0.00013260950971225667
3878.2,-0.00013050191688794896
3879.1,-0.00012834630466898876
3880.0,-0.00012712386242228976
3880.9,-0.00012751098400631315
3881.8,-0.00012886935736457073
3882.7,-0.00013138147795514806
3883.6,-0.0001325631105840313
3884.5,-0.00013405629803815835
3885.4,-0.00013338231465815452
3886.3,-0.00013220632424395536
3887.2,-0.00013031765947228775
3888.1,-0.0001305799168109246
3889.0,-0.00013365184975958614
3889.9,-0.00014039404482490186
3890.8,-0.00014909578673865642
3891.7,-0.00015945325696993328
3892.6,-0.00016828404771654373
3893.5,-0.00017465065960173634
3894.4,-0.0001783936419121553
3895.3,-0.0001812161448735616
3896.2,-0.0001824371290931325
3897.1,-0.00018340700539951733
3898.0,-0.00018505807438016887
3898.9,-0.00018515543838901733
3899.8,-0.00018607393828786267
3900.7,-0.00018746733130196833
3901.6,-0.00018670869720053732
3902.51,-0.00018664592996149162
3903.41,-0.00018541335619224952
3904.31,-0.000183937850710085
3905.21,-0.0001832532492858922
3906.11,-0.0001839877846236669
3907.01,-0.00018882841667015608
3907.91,-0.00019566896297284897
3908.81,-0.00020449931889958704
3909.71,-0.0002141454746315969
3910.61,-0.00022384207381755014
3911.51,-0.00023154523558276284
3912.41,-0.00023714738554941374
3913.31,-0.00023947813807051086
3914.21,-0.0002403651785239847
3915.11,-0.0002396880437727683
3916.01,-0.00023660489751233898
3916.91,-0.0002333724396764085
3917.81,-0.00022691534158629503
3918.71,-0.00022036083495363727
3919.61,-0.00021248199178862994
3920.51,-0.0002050172593329907
3921.41,-0.00019794860102496746
3922.31,-0.00019354550294026625
3923.21,-0.00019036208133919714
3924.11,-0.0001893497432382294
3925.01,-0.00018638634962550154
3925.91,-0.00018191018260064193
3926.81,-0.0001727776020301261
3927.71,-0.00016107818144091954
3928.61,-0.000145715931413517
3929.51,-0.0001296360607539937
3930.41,-0.0001140678079525679
3931.31,-9.974787522730092e-05
3932.21,-8.80234231916703e-05
3933.11,-7.91880211341425e-05
3934.01,-7.45024396994977e-05
3934.91,-7.559887917124116e-05
3935.81,-8.089187150084696e-05
3936.71,-9.141083346741532e-05
3937.61,-0.00010537035933000805
3938.51,-0.000121772349005619
3939.42,-0.00013951421208673176
3940.32,-0.00015590326370765807
3941.22,-0.00016980033016363095
3942.12,-0.0001812183924345662
3943.02,-0.00018976892958514735
3943.92,-0.00019737994231951029
3944.82,-0.0002075373457315653
3945.72,-0.00021883388096085815
3946.62,-0.00023256929661965515
3947.52,-0.00024616944631868255
3948.42,-0.00025980771543324
3949.32,-0.00027208097475096377
3950.22,-0.0002808498049990017
3951.12,-0.00029011529352890476
3952.02,-0.00029811810248627277
3952.92,-0.00030230393484417757
3953.82,-0.00030588219329100646
3954.72,-0.0003091002190676549
3955.62,-0.00030877376864167253
3956.52,-0.00030792936562622957
3957.42,-0.00030473955332236194
3958.32,-0.0002997464832659159
3959.22,-0.00029119919291403307
3960.12,-0.00028046982693196186
3961.02,-0.00026390705956592627
3961.92,-0.00024585751219224894
3962.82,-0.00022596888264545103
3963.72,-0.00020690797689307583
3964.62,-0.00018741123191128408
3965.52,-0.0001696166427112581
3966.42,-0.00015220302142891575
3967.32,-0.00013576257212961587
3968.22,-0.0001236018714155886
3969.12,-0.00011591702416833021
3970.02,-0.00011686243060529803
3970.92,-0.00012599958895648166
3971.82,-0.00014162725802769087
3972.72,-0.00016458498573548242
3973.62,-0.0001909786331607694
3974.52,-0.0002184273822912692
3975.42,-0.0002466352643327993
3976.32,-0.0002767653429738021
3977.22,-0.00030386545770825086
3978.13,-0.00033007535680689044
3979.03,-0.00035485780309536173
3979.93,-0.000373769537825575
3980.83,-0.00038930477885062384
3981.73,-0.0004028909731529435
3982.63,-0.00041108260376577485
3983.53,-0.00041663523859674517
3984.43,-0.0004222647846895976
3985.33,-0.0004303652127947727
3986.23,-0.00043823183563491996
3987.13,-0.00044852038402513065
3988.03,-0.0004600259260424166
3988.93,-0.00046732282833712306
3989.83,-0.0004762324180674905
3990.73,-0.00048428783269740134
3991.63,-0.0004904439603135933
3992.53,-0.000496753416299241
3993.43,-0.000502307013352258
3994.33,-0.0005026704459249381
3995.23,-0.0005030752810726265
3996.13,-0.0005042537748559582
3997.03,-0.0005003096816075484
3997.93,-0.0005023629700891309
3998.83,-0.0005103347271411021
3999.73,-0.0005207791814247672
4000.63,-0.0005350104903073278
4001.53,-0.0005476302513436629
4002.43,-0.0005554060304679846
4003.33,-0.0005602920953370244
4004.23,-0.0005536612829454955
4005.13,-0.000547891564436577
4006.03,-0.0005398407976131319
4006.93,-0.0005403322991616135
4007.83,-0.0005439400511033055
4008.73,-0.0005587664066271534
4009.63,-0.0005721547975606685
4010.53,-0.0005902450630026623
4011.43,-0.0006035889074300318
4012.33,-0.0006170434024480415
4013.23,-0.0006273790990658112
4014.13,-0.0006349024960955283
4015.03,-0.0006419343503397317
4015.93,-0.0006469406218680867
4016.84,-0.0006514618272558212
4017.74,-0.0006539121351161476
4018.64,-0.0006622633307613506
4019.54,-0.000666594084051282
4020.44,-0.0006716136394550893
4021.34,-0.000675882141686106
4022.24,-0.0006789186727050893
4023.14,-0.0006823047650158545
4024.04,-0.0006857776490041562
4024.94,-0.0006938837407744906
4025.84,-0.000700433135998383
4026.74,-0.000708006104028373
4027.64,-0.0007186987456068489
4028.54,-0.0007179424892998174
4029.44,-0.0007100646780561568
4030.34,-0.0006998222284230778
4031.24,-0.0006758663804276204
4032.14,-0.0006538009531190922
4033.04,-0.0006392071503111664
4033.94,-0.0006407028792998912
4034.84,-0.0006534825629665756
4035.74,-0.0006761355390146423
4036.64,-0.0007119616923893839
4037.54,-0.0007430233424476268
4038.44,-0.0007791739598348428
4039.34,-0.0007951831133574034
4040.24,-0.0008036233663409035
4041.14,-0.0008044917621251843
4042.04,-0.0007918524128780163
4042.94,-0.0007747334505799772
4043.84,-0.0007466463048648868
4044.74,-0.0007155571863321753
4045.64,-0.0006921631148261002
4046.54,-0.0006844880564128537
4047.44,-0.0006913403072935195
4048.34,-0.0007210625548710949
4049.24,-0.0007599059307451185
4050.14,-0.0007990077849357407
4051.04,-0.0008331954610513455
4051.94,-0.0008540468160800821
4052.84,-0.0008644443755690998
4053.74,-0.0008643380722525171
4054.65,-0.0008559494519788201
4055.55,-0.0008463266423364684
4056.45,-0.0008386598859785389
4057.35,-0.0008330604114735596
4058.25,-0.0008309149529213931
4059.15,-0.0008350265026747561
4060.05,-0.0008413179669749807
4060.95,-0.0008419478088574294
4061.85,-0.0008369048363225989
4062.75,-0.0008271356802927407
4063.65,-0.0008099974956483502
4064.55,-0.0008056641272324783
4065.45,-0.0008071900772345808
4066.35,-0.0008261324108425881
4067.25,-0.0008488107113245001
4068.15,-0.0008800537610381693
4069.05,-0.0009035209651504089
4069.95,-0.0009240073434726108
4070.85,-0.0009284731931989812
4071.75,-0.0009352759710555531
4072.65,-0.0009343968590730248
4073.55,-0.0009335050176728793
4074.45,-0.0009407252700284432
4075.35,-0.0009399849378176173
4076.25,-0.0009361065554721791
4077.15,-0.0009376451975803624
4078.05,-0.0009394807812653186
4078.95,-0.0009503432596386669
4079.85,-0.000978622715469957
4080.75,-0.0010154674916410555
4081.65,-0.0010553045875315943
4082.55,-0.001085153013043641
4083.45,-0.001105303333874975
4084.35,-0.0011197110657777782
4085.25,-0.0011338462279209293
4086.15,-0.0011543122635969286
4087.05,-0.0011823351002308226
4087.95,-0.0012198337762702755
4088.85,-0.0012517290285173133
4089.75,-0.0012713157950876614
4090.65,-0.0012955096838789294
4091.55,-0.001295220458030197
4092.45,-0.001289172533369142
4093.36,-0.0012819347248953052
4094.26,-0.0012703845275947182
4095.16,-0.00125395262706068
4096.06,-0.0012313620238370991
4096.96,-0.0012069704143703383
4097.86,-0.0011788261853365246
4098.76,-0.0011563556145808003
4099.66,-0.0011284107279246793
4100.56,-0.0011017338040564912
4101.46,-0.0010920108331933616
4102.36,-0.0010826637510179835
4103.26,-0.0010968316335746595
4104.16,-0.001128872116102518
4105.06,-0.0011765905811108434
4105.96,-0.0012249438180075216
4106.86,-0.0012766139433027152
4107.76,-0.0013171274064424975
4108.66,-0.0013434266776201878
4109.56,-0.0013588029994831816
4110.46,-0.0013718402097294441
4111.36,-0.001383015724190552
4112.26,-0.0013971007387749053
4113.16,-0.0014176609123368674
4114.06,-0.0014472809646151894
4114.96,-0.0014722153356158168
4115.86,-0.001488912965097558
4116.76,-0.0015112004815113125
4117.66,-0.001518653580422556
4118.56,-0.0015078405784161016
4119.46,-0.0015033206489859041
4120.36,-0.0015035213826079896
4121.26,-0.0015135890144595242
4122.16,-0.001524606089834096
4123.06,-0.0015408311239517591
4123.96,-0.0015598767946076414
4124.86,-0.0015825463128774705
4125.76,-0.001599204121081394
4126.66,-0.0016047426938673624
4127.56,-0.0016067982656738735
4128.46,-0.0016077374676218242
4129.36,-0.0015842799669031297
4130.26,-0.0015653560700864442
4131.17,-0.0015498574828558109
4132.06,-0.0015367012621278035
4132.97,-0.0015287519395866006
4133.87,-0.001529592610087212
4134.77,-0.0015575407177390156
4135.67,-0.001603634429227772
4136.57,-0.0016558663020821475
4137.47,-0.0017131502451175852
4138.37,-0.0017610931253420636
4139.27,-0.001798970873536188
4140.17,-0.0017992238021140071
4141.07,-0.001783586162738135
4141.97,-0.0017540907902008315
4142.87,-0.0017157884097329162
4143.77,-0.0016850523962166576
4144.67,-0.0016617830696110925
4145.57,-0.0016783111806634558
4146.47,-0.0017058816582925273
4147.37,-0.0017607774659647308
4148.27,-0.0017999379124205895
4149.17,-0.0018461329225666827
4150.07,-0.0018585834006271797
4150.97,-0.0018707628733252548
4151.87,-0.0018809865184749803
4152.77,-0.001880381108740505
4153.67,-0.0018771905370929404
4154.57,-0.0018875859251118103
4155.47,-0.0018873402828872821
4156.37,-0.0019219971482558856
4157.27,-0.001960845981878962
4158.17,-0.001999395940172364
4159.07,-0.0020465774850900536
4159.97,-0.002104786431364661
4160.87,-0.0021543354741093736
4161.77,-0.0022082067836012758
4162.67,-0.0022405116920108143
4163.57,-0.0022839318833895116
4164.47,-0.002291340269980447
4165.37,-0.002285757597365967
4166.27,-0.002268986617472325
4167.17,-0.0022622559117841876
4168.07,-0.002258300522882788
4168.98,-0.002254359653991139
4169.88,-0.0022482907293113453
4170.78,-0.0022349755015002976
4171.68,-0.0022052979347306134
4172.58,-0.0021863414591131013
4173.48,-0.002166131064777507
4174.38,-0.0021492887126692943
4175.28,-0.002163668998421273
4176.18,-0.0021918708439040493
4177.08,-0.002230973722655753
4177.98,-0.0022743770767423045
4178.88,-0.0023247746573328344
4179.78,-0.0023643688591477212
4180.68,-0.002410444111803961
4181.58,-0.0024323064464786917
4182.48,-0.002463161288733143
4183.38,-0.0024997847514401208
4184.28,-0.002535378551116459
4185.18,-0.002547443674173187
4186.08,-0.0025696302216897137
4186.98,-0.002568946009687189
4187.88,-0.0025691296676267324
4188.78,-0.0025988270626049587
4189.68,-0.002627304260858462
4190.58,-0.002671825623067671
4191.48,-0.0027230038168338496
4192.38,-0.0027676753976080912
4193.28,-0.0028094327240864516
4194.18,-0.002849009667859127
4195.08,-0.0028347458225851615
4195.98,-0.002815954940420913
4196.88,-0.0027586973700997677
4197.78,-0.0027314211192822485
4198.68,-0.0026769298868015738
4199.58,-0.002677561243547525
4200.48,-0.0026675787227369015
4201.38,-0.002687525102018663
4202.28,-0.0027346783124126217
4203.18,-0.0027946601677304624
4204.08,-0.0028855717735289687
4204.98,-0.0029772363459426125
4205.88,-0.0030996503551687224
4206.79,-0.0031942291277184095
4207.69,-0.003280413259451699
4208.59,-0.003356415115771257
4209.49,-0.0034070034936099737
4210.39,-0.003444412061627546
4211.29,-0.0034803442982668862
4212.19,-0.0034927042701051445
4213.09,-0.0034902374574065026
4213.99,-0.0034784178884048546
4214.89,-0.0034678266044689213
4215.79,-0.003459159277354546
4216.69,-0.003474802201866412
4217.59,-0.0035436156320036646
4218.49,-0.0036191497670941646
4219.39,-0.0037296017335782033
4220.29,-0.003795161740274578
4221.19,-0.0038431790755009848
4222.09,-0.0038016431149125148
4222.99,-0.0037064525693609645
4223.89,-0.003565264515614947
4224.79,-0.0033572326012522857
4225.69,-0.003152955365300999
4226.59,-0.003025154310218496
4227.49,-0.002970416936175511
4228.39,-0.0030436826881828924
4229.29,-0.0032204468780949315
4230.19,-0.003433789887062263
4231.09,-0.00365195909455582
4231.99,-0.0038429740862396494
4232.89,-0.00397156589162166
4233.79,-0.004062541531601387
4234.69,-0.004082856547727605
4235.59,-0.0040893004663376765
4236.49,-0.004067823739516418
4237.39,-0.004083059691386279
4238.29,-0.004147035203415451
4239.19,-0.004230044931922865
4240.09,-0.004322160053578422
4240.99,-0.004445467527419017
4241.89,-0.0045736308444475635
4242.79,-0.004694348255764845
4243.69,-0.004807399327067589
4244.59,-0.004936943246662811
4245.5,-0.004980213593726392
4246.4,-0.004984429461575723
4247.3,-0.004955300933370701
4248.2,-0.004859911356842373
4249.1,-0.004773418051753471
4250.0,-0.004690110472805733
4250.9,-0.004650398569567414
4251.8,-0.004644625014983008
4252.7,-0.004672201198824905
4253.6,-0.004747824990340448
4254.5,-0.004810470123905986
4255.4,-0.00488709356420178
4256.3,-0.004966233810222004
4257.2,-0.005044986281018818
4258.1,-0.005101929377645552
4259.0,-0.0051319392407807645
4259.9,-0.005134275539820255
4260.8,-0.005154704030823152
4261.7,-0.005231376831266865
4262.6,-0.005383523195858208
4263.5,-0.005580621249654449
4264.4,-0.005785704850599742
4265.3,-0.005996813914926318
4266.2,-0.006133644040140402
4267.1,-0.006187577894244122
4268.0,-0.006121128751486037
4268.9,-0.005980903134187158
4269.8,-0.0057855992171756895
4270.7,-0.005541187455323279
4271.6,-0.005345629904736686
4272.5,-0.0051844509602067
4273.4,-0.005137230656009576
4274.3,-0.005202774203140833
4275.2,-0.00535677927509356
4276.1,-0.0056012198820745976
4277.0,-0.005906405562447491
4277.9,-0.006175686938856112
4278.8,-0.006405785335295064
4279.7,-0.006580240969548866
4280.6,-0.006674302913899072
4281.5,-0.006726712626572332
4282.4,-0.006761769996895932
