wave,flux
3700.85,-3.7128195878017455e-07
3701.75,-3.6551459235890234e-07
3702.65,-3.5529380011261914e-07
3703.55,-3.372992269166791e-07
3704.45,-3.193093008611616e-07
3705.35,-3.022379571955833e-07
3706.25,-2.884899688727276e-07
3707.15,-2.8412179795365485e-07
3708.05,-2.828611470118607e-07
3708.96,-2.893351650708995e-07
3709.86,-2.9855416037784857e-07
3710.76,-3.1073801055350614e-07
3711.66,-3.27370562361019e-07
3712.56,-3.4542370321761035e-07
3713.46,-3.6074772200635814e-07
3714.36,-3.7481211752788915e-07
3715.26,-3.8259275498797163e-07
3716.16,-3.8321135887413303e-07
3717.06,-3.7485830403323747e-07
3717.96,-3.588725667704717e-07
3718.86,-3.3583240183214823e-07
3719.76,-3.0966876672223923e-07
3720.66,-2.885693642021386e-07
3721.56,-2.723183371538117e-07
3722.46,-2.6970936086321075e-07
3723.36,-2.7882585831494514e-07
3724.26,-2.9654925157808313e-07
3725.16,-3.166548990326687e-07
3726.06,-3.3216289603066635e-07
3726.96,-3.4232975273340927e-07
3727.86,-3.4694919448199823e-07
3728.76,-3.4720228618743856e-07
3729.66,-3.451470802012493e-07
3730.56,-3.3959654818212015e-07
3731.46,-3.25816789563146e-07
3732.36,-3.0829436279417307e-07
3733.26,-2.8647227169043633e-07
3734.16,-2.6317876190416866e-07
3735.06,-2.46899761228047e-07
3735.96,-2.375168332677453e-07
3736.86,-2.405210566641389e-07
3737.76,-2.5321794273689197e-07
3738.66,-2.76831902490133e-07
3739.56,-3.011434542124087e-07
3740.46,-3.2367137656998107e-07
3741.36,-3.388151704698088e-07
3742.26,-3.443475169908348e-07
3743.16,-3.381507895585134e-07
3744.06,-3.246948062621975e-07
3744.96,-3.0986282842243993e-07
3745.86,-2.9225562978264094e-07
3746.76,-2.7809827391740054e-07
3747.67,-2.6350193784832857e-07
3748.57,-2.5236682449115904e-07
3749.47,-2.4874216998225813e-07
3750.37,-2.544190476521064e-07
3751.27,-2.708335292214267e-07
3752.17,-2.947019140628395e-07
3753.07,-3.2490926857038966e-07
3753.97,-3.49209395962124e-07
3754.87,-3.705003992878523e-07
3755.77,-3.7922727448037176e-07
3756.67,-3.788569972587834e-07
3757.57,-3.6991958750799737e-07
3758.47,-3.540225668171669e-07
3759.37,-3.4251603202647415e-07
3760.27,-3.3624772553933956e-07
3761.17,-3.383247472743861e-07
3762.07,-3.4286062081310003e-07
3762.97,-3.5055182980703535e-07
3763.87,-3.5523443635348404e-07
3764.77,-3.6002593780806097e-07
3765.67,-3.5977333794286e-07
3766.57,-3.5934698408893165e-07
3767.47,-3.540753607533969e-07
3768.37,-3.5203248721111696e-07
3769.27,-3.5174326706872205e-07
3770.17,-3.518002019757861e-07
3771.07,-3.5754242278483543e-07
3771.97,-3.655096737369715e-07
3772.87,-3.7720269527078166e-07
3773.77,-3.9136373604678764e-07
3774.67,-4.031375858667786e-07
3775.57,-4.130153746079616e-07
3776.47,-4.1909056209870126e-07
3777.37,-4.259551772547974e-07
3778.27,-4.3361192803340495e-07
3779.17,-4.435686832264265e-07
3780.07,-4.518903459635392e-07
3780.97,-4.603564375782841e-07
3781.87,-4.68942258764391e-07
3782.77,-4.731874927344052e-07
3783.67,-4.733798673669422e-07
3784.57,-4.6670150041639267e-07
3785.47,-4.5391257296795207e-07
3786.38,-4.397827291862161e-07
3787.28,-4.2581674344534486e-07
3788.18,-4.084682831794869e-07
3789.08,-3.967957278458237e-07
3789.98,-3.9038639334348074e-07
3790.88,-3.883927468543167e-07
3791.78,-3.8644506882063154e-07
3792.68,-3.8462009702320933e-07
3793.58,-3.77577595021948e-07
3794.48,-3.6696236289155426e-07
3795.38,-3.569368762502703e-07
3796.28,-3.4345174698541743e-07
3797.18,-3.31321310617273e-07
3798.08,-3.2391722359362064e-07
3798.98,-3.2475540466063706e-07
3799.88,-3.342509293619384e-07
3800.78,-3.528465347706896e-07
3801.68,-3.787147178360371e-07
3802.58,-4.052370491646444e-07
3803.48,-4.2685135793324696e-07
3804.38,-4.4398097120863285e-07
3805.28,-4.538864318846886e-07
3806.18,-4.5555565140211294e-07
3807.08,-4.558242039531504e-07
3807.98,-4.566655801562575e-07
3808.88,-4.598800130453179e-07
3809.78,-4.628405055017009e-07
3810.68,-4.676098002346223e-07
3811.58,-4.632625144154745e-07
3812.48,-4.563387184802619e-07
3813.38,-4.41901370178157e-07
3814.28,-4.234934220999406e-07
3815.18,-4.066711886333078e-07
3816.08,-3.971483823430445e-07
3816.98,-3.9121091971484495e-07
3817.88,-3.889240794601689e-07
3818.78,-3.884264667959109e-07
3819.68,-3.8499384011273274e-07
3820.58,-3.786424063615993e-07
3821.48,-3.7285851995062417e-07
3822.38,-3.687314976498459e-07
3823.28,-3.641165424893422e-07
3824.18,-3.56034815470328e-07
3825.09,-3.481246477211151e-07
3825.99,-3.365407949279919e-07
3826.89,-3.2722360279314236e-07
3827.79,-3.1988727407090523e-07
3828.69,-3.161964929104453e-07
3829.59,-3.1584282599004285e-07
3830.49,-3.109856142719284e-07
3831.39,-3.0549959935883985e-07
3832.29,-2.960516433649655e-07
3833.19,-2.8477938812277064e-07
3834.09,-2.771692335946913e-07
3834.99,-2.711314292734609e-07
3835.89,-2.6760261226634166e-07
3836.79,-2.6870185767857533e-07
3837.69,-2.7235433927474466e-07
3838.59,-2.7963338344637664e-07
3839.49,-2.8882720830496713e-07
3840.39,-3.037701820983275e-07
3841.29,-3.212482455059704e-07
3842.19,-3.468211370072736e-07
3843.09,-3.737884574420049e-07
3843.99,-3.985275842986403e-07
3844.89,-4.184092227099723e-07
3845.79,-4.3434569901046846e-07
3846.69,-4.4446190770895756e-07
3847.59,-4.5120350872960314e-07
3848.49,-4.545860262365287e-07
3849.39,-4.559709366535427e-07
3850.29,-4.54031256783567e-07
3851.19,-4.547294993163422e-07
3852.09,-4.575788244576861e-07
3852.99,-4.568469036304594e-07
3853.89,-4.5614038966524246e-07
3854.79,-4.5227840632810553e-07
3855.69,-4.455544529731952e-07
3856.59,-4.3401765073269643e-07
3857.49,-4.222866740512079e-07
3858.39,-4.1152809510712585e-07
3859.29,-4.02524446931214e-07
3860.19,-4.020789169546002e-07
3861.09,-4.0612205106613963e-07
3861.99,-4.2128722217352276e-07
3862.9,-4.3842228971746456e-07
3863.8,-4.561235181706349e-07
3864.7,-4.688221686829718e-07
3865.6,-4.7529416430292125e-07
3866.5,-4.747590852806354e-07
3867.4,-4.7427846030572353e-07
3868.3,-4.7205065666326676e-07
3869.2,-4.64236091913369e-07
3870.1,-4.5507622060047534e-07
3871.0,-4.4318189162981236e-07
3871.9,-4.3162670062762166e-07
3872.8,-4.269821521902055e-07
3873.7,-4.26664246666471e-07
3874.6,-4.3210768786515294e-07
3875.5,-4.375919421048027e-07
3876.4,-4.4323095307676527e-07
3877.3,-4.4113412152442965e-07
3878.2,-4.390603595370724e-07
3879.1,-4.31727032512804e-07
3880.0,-4.3095134517926604e-07
3880.9,-4.298298668079782e-07
3881.8,-4.2810346137956233e-07
3882.7,-4.301309705064634e-07
3883.6,-4.264753185535758e-07
3884.5,-4.2082617489256063e-07
3885.4,-4.0966374586699837e-07
3886.3,-3.9513046570399943e-07
3887.2,-3.8321748935310364e-07
3888.1,-3.735874435517139e-07
3889.0,-3.6960432313993115e-07
3889.9,-3.747928908952073e-07
3890.8,-3.8895382531333904e-07
3891.7,-4.0846093931185806e-07
3892.6,-4.2868248148333595e-07
3893.5,-4.4743830586175627e-07
3894.4,-4.614889984308897e-07
3895.3,-4.7011762510240654e-07
3896.2,-4.78591009039681e-07
3897.1,-4.844523872968771e-07
3898.0,-4.874874897647906e-07
3898.9,-4.938998968223114e-07
3899.8,-4.974512315013737e-07
3900.7,-5.006285265436611e-07
3901.6,-5.011066835073474e-07
3902.51,-5.006201969825553e-07
3903.41,-4.981203648274371e-07
3904.31,-4.945808078057908e-07
3905.21,-4.901455955407672e-07
3906.11,-4.899307034435809e-07
3907.01,-4.942771212595806e-07
3907.91,-5.031121802842178e-07
3908.81,-5.19184002256422e-07
3909.71,-5.386533022421774e-07
3910.61,-5.509945273912221e-07
3911.51,-5.616360277446687e-07
3912.41,-5.712281221133292e-07
3913.31,-5.724777311226904e-07
3914.21,-5.735203083679436e-07
3915.11,-5.688451321238919e-07
3916.01,-5.609201525876045e-07
3916.91,-5.516248139759009e-07
3917.81,-5.418257668159401e-07
3918.71,-5.306486569931954e-07
3919.61,-5.17064326357263e-07
3920.51,-5.056184808123647e-07
3921.41,-4.933293348574042e-07
3922.31,-4.858475083387838e-07
3923.21,-4.801936388799829e-07
3924.11,-4.736771172521858e-07
3925.01,-4.6520255386109444e-07
3925.91,-4.5136056613260134e-07
3926.81,-4.281779785412317e-07
3927.71,-3.9894042653478156e-07
3928.61,-3.622542678938063e-07
3929.51,-3.220304297010758e-07
3930.41,-2.824828701296831e-07
3931.31,-2.453123225444572e-07
3932.21,-2.1182943480683758e-07
3933.11,-1.863262165958094e-07
3934.01,-1.7130043363111661e-07
3934.91,-1.6929254007155798e-07
3935.81,-1.7979543183042134e-07
3936.71,-2.0416400333748682e-07
3937.61,-2.3796488651910804e-07
3938.51,-2.7697499520412074e-07
3939.42,-3.1700458741232877e-07
3940.32,-3.5411330600398954e-07
3941.22,-3.8650520840488134e-07
3942.12,-4.1093476508130533e-07
3943.02,-4.2964191128054406e-07
3943.92,-4.4646438285991314e-07
3944.82,-4.6444842900496073e-07
3945.72,-4.826312422809341e-07
3946.62,-5.011071673716727e-07
3947.52,-5.182513147941142e-07
3948.42,-5.321805207204275e-07
3949.32,-5.481486340964812e-07
3950.22,-5.59573125121884e-07
3951.12,-5.678513120847476e-07
3952.02,-5.759600907713824e-07
3952.92,-5.794266710173203e-07
3953.82,-5.832478048015859e-07
3954.72,-5.856884095977021e-07
3955.62,-5.831085247063381e-07
3956.52,-5.809647757381e-07
3957.42,-5.749179562650592e-07
3958.32,-5.691413505864059e-07
3959.22,-5.571566559016265e-07
3960.12,-5.419623433457931e-07
3961.02,-5.17561233453657e-07
3961.92,-4.866932351505493e-07
3962.82,-4.5348394063112606e-07
3963.72,-4.148573827249063e-07
3964.62,-3.778323690880754e-07
3965.52,-3.389875023281451e-07
3966.42,-2.99807560029976e-07
3967.32,-2.631652146507478e-07
3968.22,-2.3251929932234132e-07
3969.12,-2.1406840969307e-07
3970.02,-2.114469785892772e-07
3970.92,-2.2423514452520364e-07
3971.82,-2.509319396544573e-07
3972.72,-2.8923982548055833e-07
3973.62,-3.3379957284447387e-07
3974.52,-3.7881733018515505e-07
3975.42,-4.243335627428745e-07
3976.32,-4.676848721948718e-07
3977.22,-5.068782571657059e-07
3978.13,-5.44544712642206e-07
3979.03,-5.767825458486079e-07
3979.93,-6.011292311936949e-07
3980.83,-6.204006900169957e-07
3981.73,-6.349057048696287e-07
3982.63,-6.413817138540705e-07
3983.53,-6.464615351003416e-07
3984.43,-6.536559163843391e-07
3985.33,-6.598142989942169e-07
3986.23,-6.678314753323504e-07
3987.13,-6.789674115896664e-07
3988.03,-6.833277868539467e-07
3988.93,-6.959627936219621e-07
3989.83,-7.055495425079302e-07
3990.73,-7.097239054155608e-07
3991.63,-7.175906297997453e-07
3992.53,-7.228180441650109e-07
3993.43,-7.282569333197494e-07
3994.33,-7.233513401042581e-07
3995.23,-7.234676345829823e-07
3996.13,-7.157048908828484e-07
3997.03,-7.106630972659951e-07
3997.93,-7.07047123446377e-07
3998.83,-7.086148690929401e-07
3999.73,-7.20417377333714e-07
4000.63,-7.342967609423886e-07
4001.53,-7.445773158740705e-07
4002.43,-7.542087478977536e-07
4003.33,-7.507829035738768e-07
4004.23,-7.426899276852482e-07
4005.13,-7.35961785077701e-07
4006.03,-7.262049431909827e-07
4006.93,-7.212676793209583e-07
4007.83,-7.23508096309675e-07
4008.73,-7.351260231235211e-07
4009.63,-7.476215992736e-07
4010.53,-7.604533232935121e-07
4011.43,-7.736223876089709e-07
4012.33,-7.798610226961506e-07
4013.23,-7.86319049650334e-07
4014.13,-7.872499059162728e-07
4015.03,-7.916758480093299e-07
4015.93,-7.940540450730917e-07
4016.84,-7.960702878636903e-07
4017.74,-7.96291953225028e-07
4018.64,-8.009191549390375e-07
4019.54,-8.028341323496129e-07
4020.44,-8.029240260404312e-07
4021.34,-8.042569221173697e-07
4022.24,-8.067336345932305e-07
4023.14,-8.111895891550563e-07
4024.04,-8.090323667185625e-07
4024.94,-8.110351290503231e-07
4025.84,-8.096351964812527e-07
4026.74,-8.190202390281645e-07
4027.64,-8.278350185301343e-07
4028.54,-8.229237325630299e-07
4029.44,-8.176500032554858e-07
4030.34,-7.978470596027041e-07
4031.24,-7.789047926879769e-07
4032.14,-7.593187621737147e-07
4033.04,-7.516546036554153e-07
4033.94,-7.494187517462153e-07
4034.84,-7.593179519012754e-07
4035.74,-7.755831945193326e-07
4036.64,-7.992964203679278e-07
4037.54,-8.26317027269693e-07
4038.44,-8.452336784946007e-07
4039.34,-8.550247314586732e-07
4040.24,-8.589180780154657e-07
4041.14,-8.539099536559494e-07
4042.04,-8.409269536563555e-07
4042.94,-8.193345351397349e-07
4043.84,-8.006449517173211e-07
4044.74,-7.763072435834851e-07
4045.64,-7.598377799281901e-07
4046.54,-7.485836840219372e-07
4047.44,-7.547745654634315e-07
4048.34,-7.714484526365116e-07
4049.24,-7.982853409837972e-07
4050.14,-8.250081167236271e-07
4051.04,-8.434836926392055e-07
4051.94,-8.522401084426653e-07
4052.84,-8.530809059668179e-07
4053.74,-8.48721622718473e-07
4054.65,-8.385396689530283e-07
4055.55,-8.248435897265616e-07
4056.45,-8.172031477644495e-07
4057.35,-8.132452184129592e-07
4058.25,-8.12474737343802e-07
4059.15,-8.125019046873023e-07
4060.05,-8.165359438090456e-07
4060.95,-8.197399735600039e-07
4061.85,-8.167051423207818e-07
4062.75,-8.016299837974542e-07
4063.65,-7.911665594918852e-07
4064.55,-7.819225990137399e-07
4065.45,-7.828593086004922e-07
4066.35,-7.879872402938985e-07
4067.25,-8.019955141121682e-07
4068.15,-8.187273826314693e-07
4069.05,-8.325855941966614e-07
4069.95,-8.394224360867618e-07
4070.85,-8.417264193065692e-07
4071.75,-8.353703605903658e-07
4072.65,-8.350406265489351e-07
4073.55,-8.301059925793063e-07
4074.45,-8.279827405833905e-07
4075.35,-8.17814929548569e-07
4076.25,-8.099681047939348e-07
4077.15,-7.974372841777525e-07
4078.05,-7.925316356524676e-07
4078.95,-7.918763654459783e-07
4079.85,-8.08294317416326e-07
4080.75,-8.267020131640598e-07
4081.65,-8.466188269493696e-07
4082.55,-8.646674604731208e-07
4083.45,-8.767762768426126e-07
4084.35,-8.792300892786375e-07
4085.25,-8.847449961065495e-07
4086.15,-8.967701250608672e-07
4087.05,-9.068952651371799e-07
4087.95,-9.253005123862533e-07
4088.85,-9.368875191157319e-07
4089.75,-9.502868077617782e-07
4090.65,-9.541391119685125e-07
4091.55,-9.548408056678553e-07
4092.45,-9.47273424351463e-07
4093.36,-9.365700507393982e-07
4094.26,-9.244118012977989e-07
4095.16,-9.102709402849805e-07
4096.06,-8.900418248533461e-07
4096.96,-8.691088134224415e-07
4097.86,-8.409801676285851e-07
4098.76,-8.191232702343926e-07
4099.66,-7.887031993784535e-07
4100.56,-7.611733705926032e-07
4101.46,-7.376253468177994e-07
4102.36,-7.225177869666602e-07
4103.26,-7.260962687204532e-07
4104.16,-7.409552162167505e-07
4105.06,-7.686110610713315e-07
4105.96,-8.036364513724055e-07
4106.86,-8.401877656087468e-07
4107.76,-8.656176852318949e-07
4108.66,-8.790654266978555e-07
4109.56,-8.871207480333857e-07
4110.46,-8.988687400708136e-07
4111.36,-9.033281411088544e-07
4112.26,-9.134001279539668e-07
4113.16,-9.223980059285946e-07
4114.06,-9.374268282899637e-07
4114.96,-9.503687744666571e-07
4115.86,-9.561363352659968e-07
4116.76,-9.607738954836434e-07
4117.66,-9.574873014882716e-07
4118.56,-9.550607419611162e-07
4119.46,-9.466508940630848e-07
4120.36,-9.415867502219449e-07
4121.26,-9.383733533493695e-07
4122.16,-9.41069800796923e-07
4123.06,-9.446469478940341e-07
4123.96,-9.473557574087399e-07
4124.86,-9.531806220333034e-07
4125.76,-9.581406161479213e-07
4126.66,-9.54436706597248e-07
4127.56,-9.556857451131832e-07
4128.46,-9.498025826692035e-07
4129.36,-9.407329913506345e-07
4130.26,-9.279425221408774e-07
4131.17,-9.186717636956198e-07
4132.06,-9.095920868807134e-07
4132.97,-9.039423004391366e-07
4133.87,-9.024239107962708e-07
4134.77,-9.138404071310661e-07
4135.67,-9.307101939451467e-07
4136.57,-9.473784091077605e-07
4137.47,-9.694864329546249e-07
4138.37,-9.84699454368393e-07
4139.27,-9.992173871298535e-07
4140.17,-9.994282176310945e-07
4141.07,-9.898875139299274e-07
4141.97,-9.73295026116069e-07
4142.87,-9.481105009497786e-07
4143.77,-9.339182368296194e-07
4144.67,-9.293250876068655e-07
4145.57,-9.317400307797469e-07
4146.47,-9.377365551305021e-07
4147.37,-9.548611922901412e-07
4148.27,-9.652688942083855e-07
4149.17,-9.773938757059053e-07
4150.07,-9.771936210358443e-07
4150.97,-9.808806837349255e-07
4151.87,-9.721894532006097e-07
4152.77,-9.689914790914604e-07
4153.67,-9.647873090427532e-07
4154.57,-9.63357335510643e-07
4155.47,-9.613811568700257e-07
4156.37,-9.604826451684776e-07
4157.27,-9.705593829048609e-07
4158.17,-9.814965721481125e-07
4159.07,-9.931719196259865e-07
4159.97,-1.0079767848320102e-06
4160.87,-1.0237832530532351e-06
4161.77,-1.0403430383013642e-06
4162.67,-1.0428938949453261e-06
4163.57,-1.0482298078090497e-06
4164.47,-1.048053285777378e-06
4165.37,-1.0502396747928873e-06
4166.27,-1.0406760139733857e-06
4167.17,-1.0313404859936497e-06
4168.07,-1.0273631922886485e-06
4168.98,-1.0184653049079808e-06
4169.88,-1.01050607990702e-06
4170.78,-9.952058473683674e-07
4171.68,-9.799076435156868e-07
4172.58,-9.64099581071651e-07
4173.48,-9.526495875436325e-07
4174.38,-9.413400181264352e-07
4175.28,-9.411353116442722e-07
4176.18,-9.464606843570306e-07
4177.08,-9.558346322488353e-07
4177.98,-9.69874640421461e-07
4178.88,-9.797307634262035e-07
4179.78,-9.938781802299836e-07
4180.68,-9.976594063663306e-07
4181.58,-1.0071101204269073e-06
4182.48,-1.0127760749486145e-06
4183.38,-1.016548948943993e-06
4184.28,-1.0184214105254465e-06
4185.18,-1.0191245382422762e-06
4186.08,-1.0180449032865961e-06
4186.98,-1.0144788269163038e-06
4187.88,-1.0138237630455459e-06
4188.78,-1.0169205514540457e-06
4189.68,-1.0167888563885621e-06
4190.58,-1.0279054325337986e-06
4191.48,-1.0405834030727155e-06
4192.38,-1.0454807950817127e-06
4193.28,-1.061023846158754e-06
4194.18,-1.060721427105294e-06
4195.08,-1.0539844337957055e-06
4195.98,-1.0416702232758532e-06
4196.88,-1.0240664081046454e-06
4197.78,-1.0084944370126653e-06
4198.68,-9.963351105520537e-07
4199.58,-9.84852477612724e-07
4200.48,-9.755588164224477e-07
4201.38,-9.778432055914354e-07
4202.28,-9.782180501955933e-07
4203.18,-9.883093902553261e-07
4204.08,-1.009092195906373e-06
4204.98,-1.024833045309314e-06
4205.88,-1.0411502633237447e-06
4206.79,-1.061914447219996e-06
4207.69,-1.0783643483560194e-06
4208.59,-1.0911270330585168e-06
4209.49,-1.104281190286401e-06
4210.39,-1.1086406627166174e-06
4211.29,-1.1143628298939662e-06
4212.19,-1.1086743036457389e-06
4213.09,-1.1085759110826673e-06
4213.99,-1.1003721440648408e-06
4214.89,-1.0857539858135185e-06
4215.79,-1.086120220437535e-06
4216.69,-1.0769872524299933e-06
4217.59,-1.0817998224241991e-06
4218.49,-1.0949621070015987e-06
4219.39,-1.1116703304247034e-06
4220.29,-1.1219332504458008e-06
4221.19,-1.1240788468112554e-06
4222.09,-1.114731702006858e-06
4222.99,-1.0931589814617263e-06
4223.89,-1.0540317973137806e-06
4224.79,-1.0100189838496755e-06
4225.69,-9.717375447516161e-07
4226.59,-9.336316003570591e-07
4227.49,-9.237691391355281e-07
4228.39,-9.330161158428856e-07
4229.29,-9.625118391912575e-07
4230.19,-1.0098792707297325e-06
4231.09,-1.050176300338268e-06
4231.99,-1.0810053489256611e-06
4232.89,-1.0957690815337882e-06
4233.79,-1.100320907329283e-06
4234.69,-1.0962067623246317e-06
4235.59,-1.094182224797938e-06
4236.49,-1.0820955497564195e-06
4237.39,-1.0741904997164372e-06
4238.29,-1.0751726631667185e-06
4239.19,-1.0855934146923047e-06
4240.09,-1.097967527362578e-06
4240.99,-1.1118318694978315e-06
4241.89,-1.1297376510378173e-06
4242.79,-1.146036815800735e-06
4243.69,-1.1589743345977388e-06
4244.59,-1.1631894807304142e-06
4245.5,-1.1664833509360122e-06
4246.4,-1.1594712116369162e-06
4247.3,-1.1448850664752684e-06
4248.2,-1.1320192371862447e-06
4249.1,-1.1106868322152907e-06
4250.0,-1.100505626048198e-06
4250.9,-1.0931617269419958e-06
4251.8,-1.0951223095858036e-06
4252.7,-1.0997201865249427e-06
4253.6,-1.104136831706357e-06
4254.5,-1.1151410004474784e-06
4255.4,-1.1238169438442336e-06
4256.3,-1.1281818313713379e-06
4257.2,-1.1345810366567198e-06
4258.1,-1.1318254527499885e-06
4259.0,-1.1254848571608766e-06
4259.9,-1.1177226863514908e-06
4260.8,-1.1123612323902326e-06
4261.7,-1.1243535163566393e-06
4262.6,-1.130400269757856e-06
4263.5,-1.1572331057025709e-06
4264.4,-1.186229569241212e-06
4265.3,-1.2030097816113572e-06
4266.2,-1.2135812702629124e-06
4267.1,-1.215278674694922e-06
4268.0,-1.2029742761237615e-06
4268.9,-1.1759262302418416e-06
4269.8,-1.1490997230600704e-06
4270.7,-1.1099596618331353e-06
4271.6,-1.0776555455028712e-06
4272.5,-1.0538412152234137e-06
4273.4,-1.041215667492158e-06
4274.3,-1.0463963665414264e-06
4275.2,-1.0657919365945754e-06
4276.1,-1.089003250396848e-06
4277.0,-1.1209078693552293e-06
4277.9,-1.1459893829666348e-06
