wave,flux
3700.85,-0.002458446346198752
3701.75,-0.0024574064765653823
3702.65,-0.0024258284108436053
3703.55,-0.0023642439136227263
3704.45,-0.002310752747640425
3705.35,-0.0022619395573939484
3706.25,-0.0022518121524700467
3707.15,-0.0022790662112881863
3708.05,-0.002328645279529551
3708.96,-0.0024011706943002707
3709.86,-0.002457980420998715
3710.76,-0.002508887914837208
3711.66,-0.0025797388023412887
3712.56,-0.0026825934113607823
3713.46,-0.002812786131225154
3714.36,-0.0029661883936210856
3715.26,-0.003072457638079778
3716.16,-0.0031784322067939866
3717.06,-0.003242666865630063
3717.96,-0.003224540657798793
3718.86,-0.003151047786367036
3719.76,-0.003008374674195895
3720.66,-0.0028720856922242353
3721.56,-0.002761402492744443
3722.46,-0.002741333615007979
3723.36,-0.002824619869037969
3724.26,-0.0029908368324320115
3725.16,-0.0032061075030039216
3726.06,-0.0034122750286304246
3726.96,-0.003603781946411408
3727.86,-0.003729002414170989
3728.76,-0.0037883601006295626
3729.66,-0.003833604799597141
3730.56,-0.0037909562856046114
3731.46,-0.0037307421815160296
3732.36,-0.003587651484665297
3733.26,-0.0033896271424361125
3734.16,-0.0032048359274413464
3735.06,-0.003080504486786013
3735.96,-0.0030958801878385755
3736.86,-0.0032037590034873793
3737.76,-0.0034684921112463673
3738.66,-0.0038061665643484258
3739.56,-0.004155306067495956
3740.46,-0.00445694103279088
3741.36,-0.0046992972566984245
3742.26,-0.004856077762003787
3743.16,-0.004891329289070948
3744.06,-0.004853508713629984
3744.96,-0.004759297944051858
3745.86,-0.004612961530283536
3746.76,-0.0044512463889259226
3747.67,-0.004245659154105203
3748.57,-0.004088286650240091
3749.47,-0.003971567636887317
3750.37,-0.003985567965184924
3751.27,-0.004159123241783562
3752.17,-0.00448087079066643
3753.07,-0.00492718115116708
3753.97,-0.005422300623291771
3754.87,-0.005840569661761969
3755.77,-0.006173293790934676
3756.67,-0.006398963537967811
3757.57,-0.006449780470319588
3758.47,-0.006439607654392292
3759.37,-0.006472634610598195
3760.27,-0.00657104526195397
3761.17,-0.006692129322092478
3762.07,-0.006870372893681977
3762.97,-0.007075438758197335
3763.87,-0.0072193580335358064
3764.77,-0.007322167279203045
3765.67,-0.007341532958988916
3766.57,-0.007301518335563582
3767.47,-0.007168071563687344
3768.37,-0.007031687735970371
3769.27,-0.006853902202762284
3770.17,-0.006743497992271335
3771.07,-0.0067329684328381436
3771.97,-0.006960158646461542
3772.87,-0.007319943607215581
3773.77,-0.007760898328512936
3774.67,-0.008250531828659917
3775.57,-0.008762365651730357
3776.47,-0.009296800686998969
3777.37,-0.009746040636363711
3778.27,-0.010216333722909882
3779.17,-0.010711826356025309
3780.07,-0.011224155540303154
3780.97,-0.011622942624222643
3781.87,-0.012011879929023705
3782.77,-0.012320476414430008
3783.67,-0.012565252732317797
3784.57,-0.012645460864035191
3785.47,-0.012654852935930152
3786.38,-0.012647857246947662
3787.28,-0.012495477942955833
3788.18,-0.012389774675992907
3789.08,-0.012366470638123309
3789.98,-0.012304955812446929
3790.88,-0.012337283691990197
3791.78,-0.012318773656106702
3792.68,-0.012214868075706938
3793.58,-0.011987409069665264
3794.48,-0.011723238036134146
3795.38,-0.011275607007036012
3796.28,-0.010831494515576296
3797.18,-0.010442974813418828
3798.08,-0.010247924511293754
3798.98,-0.010396088671244154
3799.88,-0.010932710476593858
3800.78,-0.011786569902140923
3801.68,-0.01298382851927322
3802.58,-0.014144149194914213
3803.48,-0.015343672093927216
3804.38,-0.01636772486119914
3805.28,-0.017315879513359143
3806.18,-0.01786828158817919
3807.08,-0.01849112919703879
3807.98,-0.019078458728538413
3808.88,-0.019805487138104847
3809.78,-0.020434052707191147
3810.68,-0.02108534446977688
3811.58,-0.021562299718229202
3812.48,-0.02181189063812068
3813.38,-0.02197041557567489
3814.28,-0.021840835457791783
3815.18,-0.02202746472432443
3816.08,-0.02223238292022183
3816.98,-0.02278446414223879
3817.88,-0.02307540008964936
3818.78,-0.023573600048057322
3819.68,-0.02388528636549013
3820.58,-0.02415037382985986
3821.48,-0.02445582550786773
3822.38,-0.02464939580943196
3823.28,-0.024701825034476935
3824.18,-0.024774891624227472
3825.09,-0.024554369652900084
3825.99,-0.024540492619583614
3826.89,-0.0243368937409828
3827.79,-0.02423822526612499
3828.69,-0.02404879474367247
3829.59,-0.023893476488258243
3830.49,-0.02372668838979421
3831.39,-0.02315667901558233
3832.29,-0.02240916129782302
3833.19,-0.02151262590940783
3834.09,-0.020606659302100455
3834.99,-0.020007837244306867
3835.89,-0.019907758300607703
3836.79,-0.020220572459810012
3837.69,-0.02129044965652821
3838.59,-0.02276504826308152
3839.49,-0.02456488130815567
3840.39,-0.026603037212643142
3841.29,-0.029141758234628026
3842.19,-0.03180664143896765
3843.09,-0.03442031591474405
3843.99,-0.037006000955627685
3844.89,-0.039508947460859645
3845.79,-0.041720250163451385
3846.69,-0.043585955850200774
3847.59,-0.045201790418830955
3848.49,-0.046999879700784
3849.39,-0.048531382007862264
3850.29,-0.050058032035592934
3851.19,-0.05161350500986613
3852.09,-0.05324717318460811
3852.99,-0.05527956601755389
3853.89,-0.056469573552542306
3854.79,-0.057655005709443104
3855.69,-0.0592147566571838
3856.59,-0.05975932528176574
3857.49,-0.06051876902251358
3858.39,-0.06127123819618679
3859.29,-0.06236589813914099
3860.19,-0.0636640657350922
3861.09,-0.06574222155226801
3861.99,-0.06843449252430682
3862.9,-0.0713035090889598
3863.8,-0.07436515559653711
3864.7,-0.07654373650409613
3865.6,-0.07906863406995071
3866.5,-0.08104537395447889
3867.4,-0.08280767146935454
3868.3,-0.08456144956733273
3869.2,-0.08635629518130222
3870.1,-0.08711030051329995
3871.0,-0.08798818290440136
3871.9,-0.08878210432111208
3872.8,-0.0895145713093117
3873.7,-0.0910871960571582
3874.6,-0.09263421567072999
3875.5,-0.09496710133824252
3876.4,-0.09707531160145787
3877.3,-0.09830968575568334
3878.2,-0.09983829459574743
3879.1,-0.10085162296744644
3880.0,-0.10226021477098102
3880.9,-0.10366550242615989
3881.8,-0.10576564082238908
3882.7,-0.10679088846174298
3883.6,-0.10686640351550922
3884.5,-0.10654872547257908
3885.4,-0.10483501173033251
3886.3,-0.10150548845247342
3887.2,-0.09878046104135088
3888.1,-0.09642997358685049
3889.0,-0.09576922879545288
3889.9,-0.09741021459443691
3890.8,-0.10222185874050736
3891.7,-0.11078910858213549
3892.6,-0.12065864491244542
3893.5,-0.13196771360572823
3894.4,-0.14205656318814128
3895.3,-0.15227129965132988
3896.2,-0.1626986974935726
3897.1,-0.17215714549034936
3898.0,-0.1825758968135446
3898.9,-0.19194297705793417
3899.8,-0.2009336178109788
3900.7,-0.2110964571043769
3901.6,-0.22112888962861396
3902.51,-0.2321074624617927
3903.41,-0.24027670872050805
3904.31,-0.25003649135509437
3905.21,-0.25930384697423337
3906.11,-0.26894890297549595
3907.01,-0.28174425365200567
3907.91,-0.29821588565827384
3908.81,-0.3149327287794312
3909.71,-0.3334455029995943
3910.61,-0.353361030452574
3911.51,-0.37315142556454284
3912.41,-0.3926303515410257
3913.31,-0.4086691628661977
3914.21,-0.42530664767014453
3915.11,-0.4384546011075078
3916.01,-0.4546769466909966
3916.91,-0.4713796107314092
3917.81,-0.4890595936559342
3918.71,-0.5074777231370745
3919.61,-0.5299347822674525
3920.51,-0.5473501333873461
3921.41,-0.5736677528403009
3922.31,-0.5998256017540974
3923.21,-0.6333662457219632
3924.11,-0.66569557429711
3925.01,-0.6923157607122641
3925.91,-0.7218190864002678
3926.81,-0.7430815602160634
3927.71,-0.7549436230807104
3928.61,-0.7581212772235062
3929.51,-0.7480150178154492
3930.41,-0.7334341188462715
3931.31,-0.7054060512205769
3932.21,-0.6775195009233227
3933.11,-0.6552595626330668
3934.01,-0.6635280950545859
3934.91,-0.7190707746275958
3935.81,-0.8346741747810168
3936.71,-1.0306693980061625
3937.61,-1.3112682855947688
3938.51,-1.685788872084788
3939.42,-2.1813656547843117
3940.32,-2.772544640306569
3941.22,-3.592310175274713
3942.12,-4.741822407539159
3943.02,-6.562066291267347
3943.92,-10.14090647119381
3944.82,-20.45529934254155
3945.72,-609.2877391271867
3946.62,23.42048224239289
3947.52,11.772379057798503
3948.42,7.979926710908167
3949.32,6.104767744214643
3950.22,4.94497657579593
3951.12,4.21098045635494
3952.02,3.6543987558572275
3952.92,3.24997603531209
3953.82,2.9206711164839474
3954.72,2.6418668965358894
3955.62,2.4356398451791565
3956.52,2.24065751807452
3957.42,2.0738663597399816
3958.32,1.9277992601492004
3959.22,1.7921574892453334
3960.12,1.6595029931574488
3961.02,1.534400102977891
3961.92,1.4146370632516048
3962.82,1.2792404349514037
3963.72,1.1567412205741776
3964.62,1.031448206977172
3965.52,0.905885610221011
3966.42,0.7899698884872507
3967.32,0.6741769550207212
3968.22,0.5817460132372861
3969.12,0.5156192997484162
3970.02,0.48461169695357925
3970.92,0.48709471568854573
3971.82,0.5218235194296107
3972.72,0.5745494918975631
3973.62,0.6379789683482414
3974.52,0.7024197307306637
3975.42,0.7604382311042163
3976.32,0.8155901054265464
3977.22,0.863054819348458
3978.13,0.9047886126217515
3979.03,0.9327449012359386
3979.93,0.9554217507865068
3980.83,0.9736519709151152
3981.73,0.9832728172589923
3982.63,0.9838240333340891
3983.53,0.9869116420741043
3984.43,0.9855644656270685
3985.33,0.9869877632381295
3986.23,0.987588831042947
3987.13,0.9899444729856575
3988.03,0.9941080837305452
3988.93,0.998985240074644
3989.83,1.002800502716918
3990.73,1.011209906431522
3991.63,1.0111556261596966
3992.53,1.008726114835734
3993.43,1.011954004899024
3994.33,1.0022283775813838
3995.23,0.9987636628852172
3996.13,0.9853926418024831
3997.03,0.9737621134247587
3997.93,0.967072886095766
3998.83,0.9699486291023949
3999.73,0.9749325564972029
4000.63,0.9839930495599872
4001.53,0.9875666883694442
4002.43,0.9937060802458126
4003.33,0.9890395190240002
4004.23,0.9800345906723859
4005.13,0.9710921337366643
4006.03,0.9642023399299492
4006.93,0.9628123080308808
4007.83,0.9627797597073215
4008.73,0.9690243657930437
4009.63,0.9802895538821816
4010.53,0.987224123173032
4011.43,0.9912176994203951
4012.33,0.9992135837658749
4013.23,0.9966155460652261
4014.13,1.0002437167859428
4015.03,1.0047799665002017
4015.93,0.9958557945334601
4016.84,1.0031513298374897
4017.74,1.0029074130580242
4018.64,1.0110509779020704
4019.54,1.0079953423147754
4020.44,1.0173135633183101
4021.34,1.0193703460746002
4022.24,1.0136852693642375
4023.14,1.0151088407117224
4024.04,1.0131634815136146
4024.94,1.0155594304921747
4025.84,1.0172099986844245
4026.74,1.0200936488597458
4027.64,1.0250566217822061
4028.54,1.0255749077541096
4029.44,1.0130188467458956
4030.34,0.9994807724838115
4031.24,0.9877770157448394
4032.14,0.970887645139338
4033.04,0.9667366901348458
4033.94,0.9698463813576208
4034.84,0.975737326633889
4035.74,0.9952539177162312
4036.64,1.0103762841265247
4037.54,1.0310700261784502
4038.44,1.0467836871517353
4039.34,1.061042810382157
4040.24,1.0571067730121768
4041.14,1.0543938517702165
4042.04,1.0435667989723074
4042.94,1.0329629159919218
4043.84,1.014017240722396
4044.74,1.002804802572813
4045.64,0.9872153572184514
4046.54,0.9856314041970236
4047.44,0.9894165464110584
4048.34,1.003559321198623
4049.24,1.0223972523029243
4050.14,1.038829659157634
4051.04,1.049055343640165
4051.94,1.0536657181457845
4052.84,1.0543101777887482
4053.74,1.0446926640746022
4054.65,1.041113292622902
4055.55,1.029042748171083
4056.45,1.023307450761443
4057.35,1.0222694809639346
4058.25,1.0250086702232313
4059.15,1.0299930231561811
4060.05,1.0352721374292788
4060.95,1.0339418824342597
4061.85,1.0278861495325924
4062.75,1.024975964707786
4063.65,1.0169488669820153
4064.55,1.0086470530682021
4065.45,1.0091589818082813
4066.35,1.0140811225115367
4067.25,1.017791460947392
4068.15,1.0280116755401045
4069.05,1.0362377255849897
4069.95,1.0412425265433816
4070.85,1.044236613645641
4071.75,1.0382606513596808
4072.65,1.0405817430516526
4073.55,1.0319745230180077
4074.45,1.0233399259473013
4075.35,1.0102883307550101
4076.25,1.000883039701337
4077.15,0.9859364286208624
4078.05,0.9736955793368817
4078.95,0.9814755232483643
4079.85,0.9858973729864479
4080.75,0.9995985727395279
4081.65,1.011009032781894
4082.55,1.0155531639628488
4083.45,1.027939693406691
4084.35,1.0277076730206562
4085.25,1.0249409113080272
4086.15,1.0264960421327218
4087.05,1.0281518528135707
4087.95,1.0387893510820836
4088.85,1.0482740153975647
4089.75,1.0509815107570355
4090.65,1.0476634528743765
4091.55,1.0392929414127139
4092.45,1.0279643142687063
4093.36,1.009061614394815
4094.26,0.9910388241581909
4095.16,0.96524676857694
4096.06,0.93939069203736
4096.96,0.9084423838446033
4097.86,0.8740063953047016
4098.76,0.8355637647342491
4099.66,0.7960463033558303
4100.56,0.753958338070778
4101.46,0.7221468577102783
4102.36,0.7060427592401801
4103.26,0.7023786648095766
4104.16,0.7200958153483592
4105.06,0.7513319351370815
4105.96,0.792293321015062
4106.86,0.831626128675013
4107.76,0.865016765191231
4108.66,0.8956258053989405
4109.56,0.9176881953025146
4110.46,0.9362941868596042
4111.36,0.9467959698554615
4112.26,0.9640897795131919
4113.16,0.9789385220896988
4114.06,0.9972715347294665
4114.96,1.008371421352547
4115.86,1.017209779409512
4116.76,1.028011127355175
4117.66,1.0313904623232917
4118.56,1.027375504808772
4119.46,1.0176281724250524
4120.36,1.0209538579960526
4121.26,1.0256706952712005
4122.16,1.026660114448182
4123.06,1.0249864153293273
4123.96,1.027193641479529
4124.86,1.0328312915268665
4125.76,1.0383189285628076
4126.66,1.038108547228109
4127.56,1.036508723835157
4128.46,1.0340068847264094
4129.36,1.0274282565782789
4130.26,1.0256156891161636
4131.17,1.016160745444649
4132.06,1.010128331655658
4132.97,1.004108377164519
4133.87,1.0072969009823631
4134.77,1.0131093784916736
4135.67,1.0196189315119693
4136.57,1.036090288095454
4137.47,1.0484600094609322
4138.37,1.0628359258994786
4139.27,1.0659437640517024
4140.17,1.0712144393480374
4141.07,1.0632178448300873
4141.97,1.0509603434807686
4142.87,1.0419729101603028
4143.77,1.0292582587252601
4144.67,1.0178466303043094
4145.57,1.0196267440918039
4146.47,1.0263483228026251
4147.37,1.0291836393638958
4148.27,1.0390827181568625
4149.17,1.0372618042787318
4150.07,1.0423000965137459
4150.97,1.0383725440800915
4151.87,1.0338644273049595
4152.77,1.0332401078563118
4153.67,1.028135894974001
4154.57,1.022427942885475
4155.47,1.015733119725047
4156.37,1.0194013325926121
4157.27,1.0209716952353647
4158.17,1.026428202014593
4159.07,1.0321089115221487
4159.97,1.0388868019986632
4160.87,1.0500208145718422
4161.77,1.0535903441207537
4162.67,1.05845811932391
4163.57,1.0593054301599742
4164.47,1.0590130399687792
4165.37,1.0555667993357158
4166.27,1.054827276037158
4167.17,1.0519194010398298
4168.07,1.0441398854015684
4168.98,1.0338829337389426
4169.88,1.0283134521550883
4170.78,1.0140652735336226
4171.68,0.9999210870002696
4172.58,0.988106818367754
4173.48,0.9759237241588349
4174.38,0.9690109552447462
4175.28,0.9631071631087584
4176.18,0.9690249861838303
4177.08,0.9697700407671738
4177.98,0.9801242918414618
4178.88,0.9851942498315128
4179.78,0.9932964283553583
4180.68,0.9975125521560392
4181.58,0.9997442070840216
4182.48,1.0065102840129763
4183.38,1.009185668013614
4184.28,1.0098283369638967
4185.18,1.0115240941242312
4186.08,1.010600088885079
4186.98,1.0040866414519987
4187.88,1.0073148592404475
4188.78,1.0028981159982753
4189.68,1.0041818860638172
4190.58,1.0140073835894932
4191.48,1.0142292072902566
4192.38,1.0239644357386986
4193.28,1.0234106696109284
4194.18,1.024285276062557
4195.08,1.02444719291705
4195.98,1.0169834010053347
4196.88,1.0038960752260622
4197.78,0.9930908651780251
4198.68,0.9827989164600474
4199.58,0.9736129397181136
4200.48,0.9700039808376797
4201.38,0.9676998999769705
4202.28,0.9676868121002117
4203.18,0.9741388694752184
4204.08,0.9794092854292726
4204.98,0.9856879257471515
4205.88,0.9988931955988862
4206.79,1.0106894555929338
4207.69,1.0143810412764798
4208.59,1.0229899079317202
4209.49,1.024860983266116
4210.39,1.0265938317824685
4211.29,1.0320757930031836
4212.19,1.0310102235510468
4213.09,1.0300184609164154
4213.99,1.0213721038599035
4214.89,1.0131874187362853
4215.79,1.0086668418073341
4216.69,1.0025782210420373
4217.59,1.0039170608639663
4218.49,1.0142903458329722
4219.39,1.0227159048295789
4220.29,1.0265446690400661
4221.19,1.0281501826487256
4222.09,1.0279127719256198
4222.99,1.0132076051026897
4223.89,0.9913636812775659
4224.79,0.9732621423225779
4225.69,0.9451677016558214
4226.59,0.9258318712336012
4227.49,0.9156710544460297
4228.39,0.9291938421668393
4229.29,0.9450728031957405
4230.19,0.9697721767858002
4231.09,0.9880576283769905
4231.99,1.0047269400965102
4232.89,1.0107900699753378
4233.79,1.008526380135568
4234.69,1.0073853517266733
4235.59,1.005172765653841
4236.49,0.9987974452128071
4237.39,0.9931171563689397
4238.29,0.9943181423291946
4239.19,1.0018962763528758
4240.09,1.0048500166559537
4240.99,1.0124701463412498
4241.89,1.016952277961809
4242.79,1.0288419394542303
4243.69,1.0343966487074288
4244.59,1.0394314457225902
4245.5,1.0321256292185081
4246.4,1.0267275663117803
4247.3,1.0220703111150307
4248.2,1.0141185851434285
4249.1,1.0059101993173931
4250.0,1.0002597544634526
4250.9,0.9985834657223049
4251.8,1.0071416888050633
4252.7,1.0116821883488747
4253.6,1.0130997612733472
4254.5,1.0208100362688677
4255.4,1.0247780753197235
4256.3,1.029660540534643
4257.2,1.0276431869249707
4258.1,1.0267745322061916
4259.0,1.028547910410885
4259.9,1.023027477371452
4260.8,1.0189540918397584
4261.7,1.021196583496931
4262.6,1.0250151689981748
4263.5,1.0405838089907589
4264.4,1.0547002231712503
4265.3,1.0590691775988261
4266.2,1.06687892902366
4267.1,1.0698844084382515
4268.0,1.0626657950383134
4268.9,1.0441039384146054
4269.8,1.031980852220264
4270.7,1.0141892301945004
4271.6,1.001357730027055
4272.5,0.9843688331063303
4273.4,0.9759030536348625
4274.3,0.9845386555810752
4275.2,0.9929676591626049
4276.1,1.0022079482308974
4277.0,1.0139825384544539
4277.9,1.0317630638552213
4278.8,1.0442467004782914
4279.7,1.0464371330693096
4280.6,1.0455491335781193
4281.5,1.0408950889501067
4282.4,1.0399048218926215
4283.31,1.0326618437342494
4284.21,1.0223165016541034
4285.11,1.0236538733579434
4286.01,1.0122166214430142
4286.91,1.004180096305808
4287.81,0.9959922630513199
4288.71,0.9841204956122361
4289.61,0.9726375128110595
4290.51,0.9692950254449083
4291.41,0.9684902229932764
4292.31,0.973282356997638
4293.21,0.9841283412163593
4294.11,0.9894123615351098
4295.01,0.9944120945225021
4295.91,0.9899836136154934
4296.81,0.9792890696686471
4297.71,0.960716227834079
4298.61,0.9440516172578232
4299.51,0.9197164333447245
4300.41,0.9010536499827252
4301.31,0.8936186385190554
4302.21,0.8852407586449688
4303.11,0.8811546149844005
4304.01,0.8793329168784049
4304.91,0.8872832438717313
4305.81,0.8905500144706386
4306.71,0.8890096676123388
4307.61,0.8843222088034767
4308.51,0.8829610905962497
4309.41,0.8843196696517466
4310.31,0.8867712348587287
4311.21,0.9012790454820095
4312.11,0.9131100704853079
4313.01,0.929827897786025
4313.91,0.9512358341035931
4314.81,0.9794322755138176
4315.71,1.0069769943665974
4316.61,1.0335254255736483
4317.51,1.0639154336983918
4318.41,1.0749317865829517
4319.31,1.08145190533577
4320.21,1.0899079041152722
4321.12,1.0797507452341766
4322.02,1.061377122974586
4322.92,1.0413254173936077
4323.82,1.016732931927235
4324.72,0.9894048183834078
4325.62,0.9772010921001549
4326.52,0.9699824285468418
4327.42,0.9743075727874706
4328.32,0.9825158494697748
4329.22,0.9937614292499739
4330.12,1.0103037876147727
4331.02,1.0167474250365367
4331.92,1.0192462166004341
4332.82,1.0107033214998562
4333.72,1.0050776053413881
4334.62,0.9834260562373084
4335.52,0.9645241574660698
4336.42,0.9249322382997618
4337.32,0.8857571651576714
4338.22,0.8415403513154116
4339.12,0.7951718135887365
4340.02,0.7573602399257096
4340.92,0.734963484052479
4341.82,0.7301547194344078
4342.72,0.749992127490726
4343.62,0.7760071960889324
4344.52,0.8148904131058103
4345.42,0.8516817468137357
4346.32,0.8943055326734557
4347.22,0.9295540690133217
4348.12,0.9511801634106075
4349.02,0.969393235079293
4349.92,0.9771246779152502
4350.82,0.9764196285163996
