wave,flux
3700.85,-5.540700779528806e-07
3701.75,-5.481650823690124e-07
3702.65,-5.356833704177138e-07
3703.55,-5.127457007274606e-07
3704.45,-4.923389249549356e-07
3705.35,-4.753781176995825e-07
3706.25,-4.6788030516538956e-07
3707.15,-4.658427784579804e-07
3708.05,-4.6765225697350107e-07
3708.96,-4.7603258176245576e-07
3709.86,-4.830581053932584e-07
3710.76,-4.944741751487203e-07
3711.66,-5.051362541374651e-07
3712.56,-5.196151200113145e-07
3713.46,-5.352304205468543e-07
3714.36,-5.567853732288101e-07
3715.26,-5.70776353419214e-07
3716.16,-5.805826642524709e-07
3717.06,-5.795346601315417e-07
3717.96,-5.654286774938387e-07
3718.86,-5.42260653179693e-07
3719.76,-5.168679161306747e-07
3720.66,-4.861176120771748e-07
3721.56,-4.626705106498483e-07
3722.46,-4.5406939843983e-07
3723.36,-4.626827000300086e-07
3724.26,-4.849652825035289e-07
3725.16,-5.113702668497375e-07
3726.06,-5.373420868641244e-07
3726.96,-5.52743638374981e-07
3727.86,-5.640933283325318e-07
3728.76,-5.67149170338823e-07
3729.66,-5.66225801473315e-07
3730.56,-5.557235383812091e-07
3731.46,-5.39439096066853e-07
3732.36,-5.127193108678903e-07
3733.26,-4.816860947131377e-07
3734.16,-4.5290388093967276e-07
3735.06,-4.2947997615034954e-07
3735.96,-4.2218262681683345e-07
3736.86,-4.3042893093642696e-07
3737.76,-4.5274463116499983e-07
3738.66,-4.847018156972074e-07
3739.56,-5.207668889344651e-07
3740.46,-5.52260271093989e-07
3741.36,-5.729455500984226e-07
3742.26,-5.797416553885513e-07
3743.16,-5.776337142938583e-07
3744.06,-5.655836172670622e-07
3744.96,-5.47620698885009e-07
3745.86,-5.259691624762387e-07
3746.76,-5.02891472595991e-07
3747.67,-4.776015430009079e-07
3748.57,-4.5506216024012235e-07
3749.47,-4.4208134482373203e-07
3750.37,-4.410055312654518e-07
3751.27,-4.5690356451131295e-07
3752.17,-4.85676434383638e-07
3753.07,-5.253863370767298e-07
3753.97,-5.677090599955626e-07
3754.87,-5.98067796633606e-07
3755.77,-6.187509679283496e-07
3756.67,-6.248049210379726e-07
3757.57,-6.161794378875042e-07
3758.47,-6.030295400426208e-07
3759.37,-5.932736436224049e-07
3760.27,-5.883234558943752e-07
3761.17,-5.928008326377946e-07
3762.07,-6.006670449760382e-07
3762.97,-6.108729220310364e-07
3763.87,-6.217904103895661e-07
3764.77,-6.250598225776759e-07
3765.67,-6.244523100396995e-07
3766.57,-6.174776017637748e-07
3767.47,-6.011438493296195e-07
3768.37,-5.897949871894246e-07
3769.27,-5.735641555342726e-07
3770.17,-5.618091746278398e-07
3771.07,-5.575870372489203e-07
3771.97,-5.659407556112793e-07
3772.87,-5.838651081415702e-07
3773.77,-6.071492555266229e-07
3774.67,-6.274598259458645e-07
3775.57,-6.517785857000817e-07
3776.47,-6.68773266112475e-07
3777.37,-6.855143059778216e-07
3778.27,-7.033455511419514e-07
3779.17,-7.211878000906087e-07
3780.07,-7.371657427943122e-07
3780.97,-7.504808436424926e-07
3781.87,-7.609476514251028e-07
3782.77,-7.665569130030371e-07
3783.67,-7.664970413314487e-07
3784.57,-7.60394799159274e-07
3785.47,-7.481113006493429e-07
3786.38,-7.344788837508531e-07
3787.28,-7.161617767018919e-07
3788.18,-7.045224251121923e-07
3789.08,-6.884686444577346e-07
3789.98,-6.84009729970214e-07
3790.88,-6.78886205226273e-07
3791.78,-6.748803964940922e-07
3792.68,-6.651472883806029e-07
3793.58,-6.498161311283896e-07
3794.48,-6.269573934065585e-07
3795.38,-6.019535246596426e-07
3796.28,-5.776092281931483e-07
3797.18,-5.545258706109341e-07
3798.08,-5.405039171279683e-07
3798.98,-5.368356624160778e-07
3799.88,-5.523628771643388e-07
3800.78,-5.832406024947125e-07
3801.68,-6.22322507126387e-07
3802.58,-6.65656050488324e-07
3803.48,-7.043790391642835e-07
3804.38,-7.328831111825325e-07
3805.28,-7.50708977916992e-07
3806.18,-7.5957676215971e-07
3807.08,-7.657646196424268e-07
3807.98,-7.693239478684496e-07
3808.88,-7.774512529682938e-07
3809.78,-7.841963867126525e-07
3810.68,-7.887926642187765e-07
3811.58,-7.885477575672789e-07
3812.48,-7.798405192128693e-07
3813.38,-7.649044454458923e-07
3814.28,-7.437485014206516e-07
3815.18,-7.328721228224976e-07
3816.08,-7.262965483533408e-07
3816.98,-7.219783863732319e-07
3817.88,-7.227860318022352e-07
3818.78,-7.223322317491808e-07
3819.68,-7.238497022344462e-07
3820.58,-7.187338453886846e-07
3821.48,-7.136053199707016e-07
3822.38,-7.09980026298767e-07
3823.28,-6.999030941960495e-07
3824.18,-6.91693524557711e-07
3825.09,-6.769222712237972e-07
3825.99,-6.63288050175927e-07
3826.89,-6.48687816799292e-07
3827.79,-6.406264341535644e-07
3828.69,-6.303622341289353e-07
3829.59,-6.217596861141538e-07
3830.49,-6.073526964081983e-07
3831.39,-5.917533639985488e-07
3832.29,-5.67499537862707e-07
3833.19,-5.406786892652044e-07
3834.09,-5.150824505441835e-07
3834.99,-4.958723426274756e-07
3835.89,-4.861875930396952e-07
3836.79,-4.870072007278688e-07
3837.69,-4.978315302960959e-07
3838.59,-5.14177812973462e-07
3839.49,-5.417903940421719e-07
3840.39,-5.713352869994442e-07
3841.29,-6.080503306047511e-07
3842.19,-6.447553595970858e-07
3843.09,-6.832933513502721e-07
3843.99,-7.195346293459595e-07
3844.89,-7.483746084359388e-07
3845.79,-7.699785318710572e-07
3846.69,-7.854383503864645e-07
3847.59,-7.977051134435096e-07
3848.49,-8.033433538929538e-07
3849.39,-8.092822862633233e-07
3850.29,-8.162286410471645e-07
3851.19,-8.193366544427165e-07
3852.09,-8.233191700342299e-07
3852.99,-8.302394009859817e-07
3853.89,-8.323730573299034e-07
3854.79,-8.312197470813938e-07
3855.69,-8.283507526557973e-07
3856.59,-8.114057406691055e-07
3857.49,-7.996654546059055e-07
3858.39,-7.850764319243589e-07
3859.29,-7.779818623781821e-07
3860.19,-7.790255727890174e-07
3861.09,-7.809492314090236e-07
3861.99,-7.959044149492395e-07
3862.9,-8.206217708409464e-07
3863.8,-8.38399568471395e-07
3864.7,-8.525902322650731e-07
3865.6,-8.645554345019642e-07
3866.5,-8.648190504253378e-07
3867.4,-8.679031855406988e-07
3868.3,-8.699099367047709e-07
3869.2,-8.620242264577762e-07
3870.1,-8.542177350148909e-07
3871.0,-8.390758183446555e-07
3871.9,-8.231714079163432e-07
3872.8,-8.042225783986301e-07
3873.7,-7.93099300460328e-07
3874.6,-7.948621868244753e-07
3875.5,-7.950040038067476e-07
3876.4,-7.951120877918022e-07
3877.3,-7.963493098028701e-07
3878.2,-7.918998281872321e-07
3879.1,-7.909028653996082e-07
3880.0,-7.869682135189162e-07
3880.9,-7.842586544783343e-07
3881.8,-7.816420959660654e-07
3882.7,-7.796543081531894e-07
3883.6,-7.707926375740929e-07
3884.5,-7.522150505531152e-07
3885.4,-7.246259416871361e-07
3886.3,-6.944826323458432e-07
3887.2,-6.62584055885521e-07
3888.1,-6.36776786206493e-07
3889.0,-6.144843889194412e-07
3889.9,-6.122390449464645e-07
3890.8,-6.253769083293983e-07
3891.7,-6.502955015158227e-07
3892.6,-6.848668865498609e-07
3893.5,-7.126630404271288e-07
3894.4,-7.426652586620606e-07
3895.3,-7.64300040558987e-07
3896.2,-7.804329285355319e-07
3897.1,-7.915217280481953e-07
3898.0,-8.094990236088153e-07
3898.9,-8.176728032033417e-07
3899.8,-8.244618305978042e-07
3900.7,-8.325339172293435e-07
3901.6,-8.412417796264402e-07
3902.51,-8.387830978632267e-07
3903.41,-8.403644101706656e-07
3904.31,-8.390564288147678e-07
3905.21,-8.388129888783417e-07
3906.11,-8.343575857104229e-07
3907.01,-8.444028425341882e-07
3907.91,-8.545402505229411e-07
3908.81,-8.733942545283623e-07
3909.71,-8.888245434324503e-07
3910.61,-9.137685083452658e-07
3911.51,-9.273351728448389e-07
3912.41,-9.360262709657299e-07
3913.31,-9.351206792763315e-07
3914.21,-9.303049332726306e-07
3915.11,-9.248480002802037e-07
3916.01,-9.145166443560777e-07
3916.91,-9.067152062343134e-07
3917.81,-8.966859659564783e-07
3918.71,-8.842806084819942e-07
3919.61,-8.720202927248509e-07
3920.51,-8.621568268947058e-07
3921.41,-8.530788243526409e-07
3922.31,-8.467636815731186e-07
3923.21,-8.427624074037807e-07
3924.11,-8.393161143990968e-07
3925.01,-8.231215448065179e-07
3925.91,-8.039821500678315e-07
3926.81,-7.682665546183423e-07
3927.71,-7.259656451105553e-07
3928.61,-6.679891471834508e-07
3929.51,-6.07131977874694e-07
3930.41,-5.363270565266951e-07
3931.31,-4.6920574019978596e-07
3932.21,-4.055314205686636e-07
3933.11,-3.5364738255560785e-07
3934.01,-3.232261113283426e-07
3934.91,-3.1842525881875833e-07
3935.81,-3.4059708929986273e-07
3936.71,-3.85755736536422e-07
3937.61,-4.494066422373813e-07
3938.51,-5.217122809435457e-07
3939.42,-5.957859746423488e-07
3940.32,-6.582927436603696e-07
3941.22,-7.154529369713191e-07
3942.12,-7.551558964388912e-07
3943.02,-7.85312339317876e-07
3943.92,-8.158669688277715e-07
3944.82,-8.369025412957805e-07
3945.72,-8.563508498876697e-07
3946.62,-8.748616428988357e-07
3947.52,-8.954214359838522e-07
3948.42,-9.078521510279082e-07
3949.32,-9.189593687915596e-07
3950.22,-9.29689732225633e-07
3951.12,-9.382465411935352e-07
3952.02,-9.434847374183603e-07
3952.92,-9.48183561250225e-07
3953.82,-9.538854424688533e-07
3954.72,-9.565810853728666e-07
3955.62,-9.5622274113153e-07
3956.52,-9.53943394276195e-07
3957.42,-9.482211901434903e-07
3958.32,-9.391176668080555e-07
3959.22,-9.214352649724399e-07
3960.12,-9.040799272042175e-07
3961.02,-8.79107591191898e-07
3961.92,-8.453755564809023e-07
3962.82,-7.994281815712413e-07
3963.72,-7.462144652392851e-07
3964.62,-6.830594119922716e-07
3965.52,-6.156047286732546e-07
3966.42,-5.428253104366517e-07
3967.32,-4.755979217109443e-07
3968.22,-4.154799709410491e-07
3969.12,-3.791247868646701e-07
3970.02,-3.6995959478596756e-07
3970.92,-3.8741729619784333e-07
3971.82,-4.336174822556116e-07
3972.72,-4.982588115801435e-07
3973.62,-5.743467983290032e-07
3974.52,-6.491440939297617e-07
3975.42,-7.203745781789715e-07
3976.32,-7.843109590090948e-07
3977.22,-8.443035192792608e-07
3978.13,-8.950690572291269e-07
3979.03,-9.364360833957816e-07
3979.93,-9.725326976630855e-07
3980.83,-9.918625884937465e-07
3981.73,-1.0120017818575758e-06
3982.63,-1.0172438614921413e-06
3983.53,-1.0308017609645215e-06
3984.43,-1.0420541867825824e-06
3985.33,-1.0471181665633596e-06
3986.23,-1.0581465036719257e-06
3987.13,-1.0706617084571557e-06
3988.03,-1.0827440831039159e-06
3988.93,-1.0928886132711861e-06
3989.83,-1.1059512049242829e-06
3990.73,-1.1170735376595618e-06
3991.63,-1.1245461474848059e-06
3992.53,-1.1314933223870058e-06
3993.43,-1.1379906845493316e-06
3994.33,-1.1344453292718782e-06
3995.23,-1.131823066073655e-06
3996.13,-1.1219918305343052e-06
3997.03,-1.1121742593604113e-06
3997.93,-1.1083015667537613e-06
3998.83,-1.1118410618733317e-06
3999.73,-1.119651503513011e-06
4000.63,-1.13546905224285e-06
4001.53,-1.1465400965872364e-06
4002.43,-1.1570871939960332e-06
4003.33,-1.1595614105986273e-06
4004.23,-1.1603086675219757e-06
4005.13,-1.1462013427974209e-06
4006.03,-1.1389227032692289e-06
4006.93,-1.136522859182698e-06
4007.83,-1.1432909078894162e-06
4008.73,-1.1545089392608673e-06
4009.63,-1.1653566038922811e-06
4010.53,-1.1819055670526455e-06
4011.43,-1.1938041117072703e-06
4012.33,-1.1982497694755034e-06
4013.23,-1.2016690684737742e-06
4014.13,-1.2023829280057628e-06
4015.03,-1.2122426334139867e-06
4015.93,-1.2116088049910348e-06
4016.84,-1.2151521278805095e-06
4017.74,-1.221251559967453e-06
4018.64,-1.221585261491049e-06
4019.54,-1.2283475620809057e-06
4020.44,-1.2315845658394478e-06
4021.34,-1.2353516980348012e-06
4022.24,-1.2348111921008625e-06
4023.14,-1.2364484163199275e-06
4024.04,-1.2380477465238736e-06
4024.94,-1.243049810442396e-06
4025.84,-1.2455498521968858e-06
4026.74,-1.2444429907781636e-06
4027.64,-1.2564957370279087e-06
4028.54,-1.2578373499761395e-06
4029.44,-1.2427261919555597e-06
4030.34,-1.2281472438623336e-06
4031.24,-1.203446057333435e-06
4032.14,-1.1885754523168094e-06
4033.04,-1.1823848591092854e-06
4033.94,-1.1820787543007288e-06
4034.84,-1.1946131194033395e-06
4035.74,-1.219747847651792e-06
4036.64,-1.2431332698591945e-06
4037.54,-1.2685104550851598e-06
4038.44,-1.2895779600193392e-06
4039.34,-1.3039252551095082e-06
4040.24,-1.3013589133788093e-06
4041.14,-1.3028405110228406e-06
4042.04,-1.2870033622352194e-06
4042.94,-1.2730339986687603e-06
4043.84,-1.2507206176263316e-06
4044.74,-1.2325928553778674e-06
4045.64,-1.214210565696525e-06
4046.54,-1.204328593466867e-06
4047.44,-1.2138740892560401e-06
4048.34,-1.2239014869811114e-06
4049.24,-1.2514031325838062e-06
4050.14,-1.2767505945549128e-06
4051.04,-1.2975444926345288e-06
4051.94,-1.3049049255883444e-06
4052.84,-1.3058053280030912e-06
4053.74,-1.3006427606426962e-06
4054.65,-1.2928696380186723e-06
4055.55,-1.2831581335075742e-06
4056.45,-1.2854666789316734e-06
4057.35,-1.2770729167973323e-06
4058.25,-1.2755207816058312e-06
4059.15,-1.2841447533419071e-06
4060.05,-1.2894329770554105e-06
4060.95,-1.2870776438495887e-06
4061.85,-1.2843316490997217e-06
4062.75,-1.276120104937119e-06
4063.65,-1.2593065196192488e-06
4064.55,-1.2492452476248295e-06
4065.45,-1.250497576422812e-06
4066.35,-1.2546221721161496e-06
4067.25,-1.2609004502441077e-06
4068.15,-1.2764705897050663e-06
4069.05,-1.291389796096427e-06
4069.95,-1.2949767835503455e-06
4070.85,-1.3037446900716044e-06
4071.75,-1.3037267692070234e-06
4072.65,-1.2983910525749802e-06
4073.55,-1.2923913186825743e-06
4074.45,-1.2854218093160564e-06
4075.35,-1.2705811363402715e-06
4076.25,-1.2563968686131703e-06
4077.15,-1.2451765132733631e-06
4078.05,-1.2269159241273573e-06
4078.95,-1.231366934226344e-06
4079.85,-1.2452566553658983e-06
4080.75,-1.2618893887667884e-06
4081.65,-1.2882335729835927e-06
4082.55,-1.3107860537848014e-06
4083.45,-1.3180820127343728e-06
4084.35,-1.324955296000066e-06
4085.25,-1.337693630703593e-06
4086.15,-1.345618147992923e-06
4087.05,-1.3639222740261345e-06
4087.95,-1.3794009612853648e-06
4088.85,-1.387844384118147e-06
4089.75,-1.398254509540026e-06
4090.65,-1.4057200196303065e-06
4091.55,-1.408588214850101e-06
4092.45,-1.4014221621798587e-06
4093.36,-1.3857157148563221e-06
4094.26,-1.3732887886475862e-06
4095.16,-1.345668044129594e-06
4096.06,-1.3236911678807787e-06
4096.96,-1.2948626866234567e-06
4097.86,-1.2542334412165875e-06
4098.76,-1.2101843735506094e-06
4099.66,-1.164587361860371e-06
4100.56,-1.1102932756574895e-06
4101.46,-1.0670624534568154e-06
4102.36,-1.046917486375931e-06
4103.26,-1.048908257785513e-06
4104.16,-1.0737052301720763e-06
4105.06,-1.1133469146887355e-06
4105.96,-1.168432373867961e-06
4106.86,-1.2165390237805713e-06
4107.76,-1.2568688646872774e-06
4108.66,-1.2863026017529192e-06
4109.56,-1.3199488357952958e-06
4110.46,-1.3325418197311196e-06
4111.36,-1.3485855458721622e-06
4112.26,-1.3642569659032478e-06
4113.16,-1.3775427349242791e-06
4114.06,-1.3966287785242974e-06
4114.96,-1.4125065305953945e-06
4115.86,-1.4234196881758282e-06
4116.76,-1.42967111084318e-06
4117.66,-1.436764723924587e-06
4118.56,-1.4296383767326919e-06
4119.46,-1.4215235104989693e-06
4120.36,-1.4121392873571666e-06
4121.26,-1.41905436339978e-06
4122.16,-1.4215861934981272e-06
4123.06,-1.4179563702520562e-06
4123.96,-1.4319556341846481e-06
4124.86,-1.4335318497166165e-06
4125.76,-1.4413929284244572e-06
4126.66,-1.4522542769811248e-06
4127.56,-1.442519161059269e-06
4128.46,-1.4429415024331671e-06
4129.36,-1.4394340208611861e-06
4130.26,-1.4320754699733362e-06
4131.17,-1.4236379247986159e-06
4132.06,-1.414479799045371e-06
4132.97,-1.4083452557116986e-06
4133.87,-1.402597077206305e-06
4134.77,-1.4107834172526367e-06
4135.67,-1.4259729790303076e-06
4136.57,-1.4500351402808262e-06
4137.47,-1.4732575625736846e-06
4138.37,-1.4905209185290507e-06
4139.27,-1.509770828512588e-06
4140.17,-1.5140130097821755e-06
4141.07,-1.5045692500263002e-06
4141.97,-1.487576935065066e-06
4142.87,-1.4735905490754665e-06
4143.77,-1.4554617233106193e-06
4144.67,-1.4444539250122438e-06
4145.57,-1.4472460605107565e-06
4146.47,-1.4648969914659043e-06
4147.37,-1.4739073329264983e-06
4148.27,-1.4858208882289634e-06
4149.17,-1.502380217619632e-06
4150.07,-1.5044357641337762e-06
4150.97,-1.4990204683236967e-06
4151.87,-1.5051770080813478e-06
4152.77,-1.4921067632489611e-06
4153.67,-1.4919737015881658e-06
4154.57,-1.488978857363868e-06
4155.47,-1.4896625687159098e-06
4156.37,-1.4914150626639688e-06
4157.27,-1.4993975076675227e-06
4158.17,-1.5082752139308257e-06
4159.07,-1.5259532686492986e-06
4159.97,-1.5336626494181039e-06
4160.87,-1.5483824726342392e-06
4161.77,-1.5666631906827164e-06
4162.67,-1.5709673203455893e-06
4163.57,-1.5760167155690723e-06
4164.47,-1.5839276930032613e-06
4165.37,-1.5795534727050008e-06
4166.27,-1.5772356066427675e-06
4167.17,-1.5763899273943557e-06
4168.07,-1.5698587502175442e-06
4168.98,-1.5592747749298571e-06
4169.88,-1.5510167354696614e-06
4170.78,-1.5343047290569775e-06
4171.68,-1.5059779806612767e-06
4172.58,-1.4841397241764575e-06
4173.48,-1.4713539606431952e-06
4174.38,-1.4649638038168483e-06
4175.28,-1.4664912225784545e-06
4176.18,-1.4743674760298947e-06
4177.08,-1.4923699149678495e-06
4177.98,-1.5065586143676383e-06
4178.88,-1.5093435188443586e-06
4179.78,-1.5408662805728143e-06
4180.68,-1.5403788151132504e-06
4181.58,-1.5526797576103365e-06
4182.48,-1.5545721411137935e-06
4183.38,-1.5625766713589101e-06
4184.28,-1.5676675052425225e-06
4185.18,-1.5642651616086793e-06
4186.08,-1.5600410359781075e-06
4186.98,-1.5604222663319224e-06
4187.88,-1.5568387910999601e-06
4188.78,-1.5610288231326744e-06
4189.68,-1.565482303332171e-06
4190.58,-1.5773929248731585e-06
4191.48,-1.5845819059658254e-06
4192.38,-1.5970039292643034e-06
4193.28,-1.6044885403607968e-06
4194.18,-1.6133747400652992e-06
4195.08,-1.6093950419870576e-06
4195.98,-1.6082817566894745e-06
4196.88,-1.5907433471005785e-06
4197.78,-1.5649626984520414e-06
4198.68,-1.5479897580497807e-06
4199.58,-1.5447676617085593e-06
4200.48,-1.5394655935166143e-06
4201.38,-1.5300032518428617e-06
4202.28,-1.5313559726440517e-06
4203.18,-1.5420594197315238e-06
4204.08,-1.5541406647618735e-06
4204.98,-1.567344633000886e-06
4205.88,-1.5890797951366764e-06
4206.79,-1.600867823856906e-06
4207.69,-1.6173140535205744e-06
4208.59,-1.6288278757907802e-06
4209.49,-1.6422561855115746e-06
4210.39,-1.655559618227899e-06
4211.29,-1.6558631964801764e-06
4212.19,-1.6567441208680122e-06
4213.09,-1.6545693764721272e-06
4213.99,-1.637879654943477e-06
4214.89,-1.6358288348019747e-06
4215.79,-1.6174274998637005e-06
4216.69,-1.6129043420408782e-06
4217.59,-1.6161092421316663e-06
4218.49,-1.630470429748259e-06
4219.39,-1.6363603250066565e-06
4220.29,-1.6597239972619277e-06
4221.19,-1.657720619307739e-06
4222.09,-1.6590722396147506e-06
4222.99,-1.6327424697227504e-06
4223.89,-1.601633098296244e-06
4224.79,-1.5614391739968783e-06
4225.69,-1.5216751063375882e-06
4226.59,-1.4884130683344749e-06
4227.49,-1.4791602069674868e-06
4228.39,-1.4870085974598663e-06
4229.29,-1.5291746455552665e-06
4230.19,-1.5631324449864976e-06
4231.09,-1.6024213671217587e-06
4231.99,-1.6328772885776484e-06
4232.89,-1.6539776418760613e-06
4233.79,-1.658194880184475e-06
4234.69,-1.6594858294416912e-06
4235.59,-1.6445053524466219e-06
4236.49,-1.6400554164715572e-06
4237.39,-1.6314992428102992e-06
4238.29,-1.6324252381244746e-06
4239.19,-1.6489978081962583e-06
4240.09,-1.6617220906350195e-06
4240.99,-1.6748612916112553e-06
4241.89,-1.6930853693229602e-06
4242.79,-1.70800012950099e-06
4243.69,-1.7108921448813622e-06
4244.59,-1.718090117503426e-06
4245.5,-1.7197533382309674e-06
4246.4,-1.7079045696756106e-06
4247.3,-1.6954689022433288e-06
4248.2,-1.6771784780482333e-06
4249.1,-1.6634998592710417e-06
4250.0,-1.6591193261737548e-06
4250.9,-1.6678016885411623e-06
4251.8,-1.6715455868251183e-06
4252.7,-1.6889100396759252e-06
4253.6,-1.6987760133822216e-06
4254.5,-1.7077705171768449e-06
4255.4,-1.7097849107924193e-06
4256.3,-1.7152794515660694e-06
4257.2,-1.7235377738537694e-06
4258.1,-1.728610201980004e-06
4259.0,-1.7163515565771266e-06
4259.9,-1.7111621109167556e-06
4260.8,-1.712674586660388e-06
4261.7,-1.7213676262605044e-06
4262.6,-1.7267982436744796e-06
4263.5,-1.745276191591417e-06
4264.4,-1.7723128604959789e-06
4265.3,-1.790610322775962e-06
4266.2,-1.8010443907472051e-06
4267.1,-1.8010770884877655e-06
4268.0,-1.8000804805676729e-06
4268.9,-1.7773714395439355e-06
4269.8,-1.7447617722662477e-06
4270.7,-1.7211132165392087e-06
4271.6,-1.6776714085676826e-06
4272.5,-1.6669029758453793e-06
4273.4,-1.6545512856911024e-06
4274.3,-1.657077258599839e-06
4275.2,-1.6679096562390717e-06
