wave,flux
3700.85,-9.12593864502773e-05
3701.75,-9.086380062673863e-05
3702.65,-8.901791181859942e-05
3703.55,-8.594887280816356e-05
3704.45,-8.316675206915563e-05
3705.35,-8.086335914134743e-05
3706.25,-7.996318539890388e-05
3707.15,-8.014519993966943e-05
3708.05,-8.135487022012665e-05
3708.96,-8.273032232824358e-05
3709.86,-8.392419430794051e-05
3710.76,-8.556702538113518e-05
3711.66,-8.763410166317338e-05
3712.56,-8.977637014427754e-05
3713.46,-9.307841391487121e-05
3714.36,-9.709377099043096e-05
3715.26,-0.00010047049313050216
3716.16,-0.00010243898498840564
3717.06,-0.00010357100066641999
3717.96,-0.00010231592268376136
3718.86,-9.850803440869964e-05
3719.76,-9.400944941901444e-05
3720.66,-8.870167922821556e-05
3721.56,-8.495426862457251e-05
3722.46,-8.382973524983869e-05
3723.36,-8.528072946117606e-05
3724.26,-8.930220455736781e-05
3725.16,-9.449728517155652e-05
3726.06,-0.00010006390655123372
3726.96,-0.00010350973133408337
3727.86,-0.00010616710246037288
3728.76,-0.00010720948178861516
3729.66,-0.00010777300963974418
3730.56,-0.00010645154431231076
3731.46,-0.0001026725307849442
3732.36,-9.810658093867737e-05
3733.26,-9.288658073403926e-05
3734.16,-8.72898356723402e-05
3735.06,-8.362086733089611e-05
3735.96,-8.256726349716302e-05
3736.86,-8.505307525631739e-05
3737.76,-9.013460072596035e-05
3738.66,-9.679420297552363e-05
3739.56,-0.00010496417330345777
3740.46,-0.00011131077247305974
3741.36,-0.00011581693197377623
3742.26,-0.00011801716771602007
3743.16,-0.0001187327049627927
3744.06,-0.00011665342616628475
3744.96,-0.00011356121461883698
3745.86,-0.00010990584069619223
3746.76,-0.00010477081195998543
3747.67,-9.987332175902671e-05
3748.57,-9.557426786648202e-05
3749.47,-9.15804286163958e-05
3750.37,-9.057627000564539e-05
3751.27,-9.434985531287375e-05
3752.17,-9.989913667972516e-05
3753.07,-0.00010932594457962264
3753.97,-0.00011766736292540682
3754.87,-0.00012617896572878227
3755.77,-0.000130753041161763
3756.67,-0.0001336632820976619
3757.57,-0.00013306237056638913
3758.47,-0.0001320666682584845
3759.37,-0.00013047838978799865
3760.27,-0.00013029807352560175
3761.17,-0.00013224414939545226
3762.07,-0.00013395452168534346
3762.97,-0.00013679143652052585
3763.87,-0.0001389470478657059
3764.77,-0.00014038120861081574
3765.67,-0.0001400718588648824
3766.57,-0.00013808974273221437
3767.47,-0.00013491322869506038
3768.37,-0.00013124553287123468
3769.27,-0.00012717425359277642
3770.17,-0.00012429899164336948
3771.07,-0.0001236941633430269
3771.97,-0.00012480331942713073
3772.87,-0.0001300153705455944
3773.77,-0.000135562093455279
3774.67,-0.00014231222061464771
3775.57,-0.0001489457704974122
3776.47,-0.00015490255576987164
3777.37,-0.00015980523743413266
3778.27,-0.00016568731563365336
3779.17,-0.00017032450937352683
3780.07,-0.00017604894238752866
3780.97,-0.00018025910363761032
3781.87,-0.0001844162640534277
3782.77,-0.00018645228826641297
3783.67,-0.00018782987455431117
3784.57,-0.0001866903348967306
3785.47,-0.00018536858820587438
3786.38,-0.00018248603069727804
3787.28,-0.0001789305993457141
3788.18,-0.00017620023481766423
3789.08,-0.00017374675488097504
3789.98,-0.00017229968171029924
3790.88,-0.00017084307256206018
3791.78,-0.0001691900587497764
3792.68,-0.00016634418848373008
3793.58,-0.00016257492260685993
3794.48,-0.00015737338010810305
3795.38,-0.00015048117336889663
3796.28,-0.00014427463045681193
3797.18,-0.00013863826966120928
3798.08,-0.00013431107695265242
3798.98,-0.00013459634591231578
3799.88,-0.0001390212232383467
3800.78,-0.00014796250009948455
3801.68,-0.00015954832712975013
3802.58,-0.00017224358061800282
3803.48,-0.0001836481426035527
3804.38,-0.0001921206313102231
3805.28,-0.00019775711649058843
3806.18,-0.00020372184392235772
3807.08,-0.00020649119237200404
3807.98,-0.00020966906013724753
3808.88,-0.00021351731328312477
3809.78,-0.00021627023636466923
3810.68,-0.00021981112766089877
3811.58,-0.00022146226985850806
3812.48,-0.00022070990612155675
3813.38,-0.00021682296370054572
3814.28,-0.0002138992949232759
3815.18,-0.00021185877957113553
3816.08,-0.00021143077244387845
3816.98,-0.0002124703221932937
3817.88,-0.00021359611612525663
3818.78,-0.00021603183299906764
3819.68,-0.00021672046340666585
3820.58,-0.00021599492609859875
3821.48,-0.0002157659452619461
3822.38,-0.00021523454824846805
3823.28,-0.000213104649133918
3824.18,-0.00021111902415674852
3825.09,-0.00020781380352934896
3825.99,-0.00020472558272929798
3826.89,-0.0002013141751489832
3827.79,-0.00019722160920747207
3828.69,-0.00019499465366841587
3829.59,-0.00019209256743297652
3830.49,-0.0001875148677601841
3831.39,-0.00018147075442726307
3832.29,-0.00017328007619862366
3833.19,-0.00016475028892153437
3834.09,-0.00015721659658569426
3834.99,-0.00015013667531332367
3835.89,-0.00014742317215821172
3836.79,-0.00014839007969644105
3837.69,-0.0001517800817439755
3838.59,-0.00015999749714007555
3839.49,-0.00017000587431808848
3840.39,-0.00018140718588626511
3841.29,-0.00019406513443359107
3842.19,-0.00020758790111345397
3843.09,-0.00022152144657456053
3843.99,-0.00023155499912789028
3844.89,-0.00024419762571542504
3845.79,-0.00025282659710456257
3846.69,-0.0002590261048312455
3847.59,-0.0002650404422818941
3848.49,-0.00027010014224983567
3849.39,-0.00027306488321299205
3850.29,-0.00027709493351167207
3851.19,-0.00027964009737688216
3852.09,-0.00028416734249743785
3852.99,-0.00028610574842256555
3853.89,-0.00029016242470110534
3854.79,-0.00029140193839129246
3855.69,-0.0002912050701891152
3856.59,-0.00028912711258713056
3857.49,-0.0002875871424017464
3858.39,-0.00028551629741792805
3859.29,-0.0002855607141328991
3860.19,-0.00028528655686959297
3861.09,-0.0002898563949895213
3861.99,-0.0002972368512650991
3862.9,-0.000304213350553372
3863.8,-0.00031052096617560496
3864.7,-0.0003164793311186605
3865.6,-0.0003210927902800256
3866.5,-0.0003230040503273976
3867.4,-0.00032483506593741307
3868.3,-0.00032528972371669143
3869.2,-0.00032479171117780344
3870.1,-0.00032363252115710913
3871.0,-0.0003209840891000496
3871.9,-0.0003164942994007116
3872.8,-0.0003117044006375136
3873.7,-0.0003102720178378233
3874.6,-0.00031030758810655993
3875.5,-0.00031092246531136473
3876.4,-0.0003113717088031192
3877.3,-0.0003127086254601002
3878.2,-0.0003111229781820935
3879.1,-0.00031133826829900273
3880.0,-0.00031127046348380645
3880.9,-0.00031083878536728934
3881.8,-0.0003091033388900085
3882.7,-0.0003069724053935745
3883.6,-0.0003035465115312979
3884.5,-0.0002961356462227076
3885.4,-0.00028590491819782194
3886.3,-0.0002736450155521287
3887.2,-0.0002605253187196728
3888.1,-0.0002492264073752645
3889.0,-0.00024265039035633112
3889.9,-0.00024086167658396668
3890.8,-0.000246594394037232
3891.7,-0.00025855035191199875
3892.6,-0.00027266402862030246
3893.5,-0.00028869742403331587
3894.4,-0.0003031607407600949
3895.3,-0.00031474920965782205
3896.2,-0.00032513267387151247
3897.1,-0.0003356645494699759
3898.0,-0.0003435707423468266
3898.9,-0.0003512181279066079
3899.8,-0.00035802092380325337
3900.7,-0.0003632840758659445
3901.6,-0.00037001353879145994
3902.51,-0.00037477180816873867
3903.41,-0.00037689099012396367
3904.31,-0.0003771229994538499
3905.21,-0.00038042188069263805
3906.11,-0.0003822216044124225
3907.01,-0.0003869727815429608
3907.91,-0.0003947169387884786
3908.81,-0.00040585922503014654
3909.71,-0.0004149792517237612
3910.61,-0.00042561280265707917
3911.51,-0.00043432605107960996
3912.41,-0.00044032021270370395
3913.31,-0.0004418744567146038
3914.21,-0.00044234742940177103
3915.11,-0.0004409843500272602
3916.01,-0.0004409981180405995
3916.91,-0.0004380110966047197
3917.81,-0.0004357994004462639
3918.71,-0.0004338821563315349
3919.61,-0.00043050079107524595
3920.51,-0.00042971192525288076
3921.41,-0.00042828766529174857
3922.31,-0.000430336599646657
3923.21,-0.0004264134754066598
3924.11,-0.00042905181738979567
3925.01,-0.00042632673071570684
3925.91,-0.00041657475048712005
3926.81,-0.00040431140720488794
3927.71,-0.0003872215754168644
3928.61,-0.0003632913856764292
3929.51,-0.00033255034901748617
3930.41,-0.00030073462590642915
3931.31,-0.0002665655357808524
3932.21,-0.00023407202113141627
3933.11,-0.00020729697533362223
3934.01,-0.00019109364133908455
3934.91,-0.00018929329158325197
3935.81,-0.00020110877412667574
3936.71,-0.0002278149880581822
3937.61,-0.0002631835663003368
3938.51,-0.00030257459771325737
3939.42,-0.0003433422289239878
3940.32,-0.00038074903618585834
3941.22,-0.0004112806360107536
3942.12,-0.00043285004960072715
3943.02,-0.0004508008718084357
3943.92,-0.0004649130341924228
3944.82,-0.0004771101731358635
3945.72,-0.0004888357480152647
3946.62,-0.0005016591579030435
3947.52,-0.0005123830195906521
3948.42,-0.0005210858776874813
3949.32,-0.0005268469026337123
3950.22,-0.0005362285274305513
3951.12,-0.0005401578727199167
3952.02,-0.0005456750719523007
3952.92,-0.0005519986236211177
3953.82,-0.0005549582625326384
3954.72,-0.0005587019646665084
3955.62,-0.0005579765940571901
3956.52,-0.000558566696942246
3957.42,-0.0005588399124623029
3958.32,-0.0005583282094890579
3959.22,-0.0005514787349279118
3960.12,-0.0005428398911457719
3961.02,-0.0005311239931836757
3961.92,-0.0005109641579804947
3962.82,-0.00048731832064939005
3963.72,-0.00045833671782467123
3964.62,-0.0004253705048317763
3965.52,-0.00038652459974611704
3966.42,-0.0003468888878451722
3967.32,-0.00030535044634438313
3968.22,-0.0002686814695292201
3969.12,-0.00024691342104720293
3970.02,-0.00023956848454026529
3970.92,-0.000250657588926987
3971.82,-0.0002782208034372505
3972.72,-0.0003179118612194747
3973.62,-0.000366097362383907
3974.52,-0.0004139179126815705
3975.42,-0.00045980296958725
3976.32,-0.0005035689870934538
3977.22,-0.0005433221948070091
3978.13,-0.0005787503755434964
3979.03,-0.0006091891851350048
3979.93,-0.0006339623534820045
3980.83,-0.0006559684999863733
3981.73,-0.0006698887900882888
3982.63,-0.0006827202747052553
3983.53,-0.0006949075517400708
3984.43,-0.0007018944214124181
3985.33,-0.0007135847184913537
3986.23,-0.0007253137339993257
3987.13,-0.0007371152818560101
3988.03,-0.0007488521277764162
3988.93,-0.0007635319313327054
3989.83,-0.0007754647582688388
3990.73,-0.0007852101801975852
3991.63,-0.0007971504871849159
3992.53,-0.0008093395447734919
3993.43,-0.0008139609579025995
3994.33,-0.0008212364929803814
3995.23,-0.0008226638006691887
3996.13,-0.0008187128341015815
3997.03,-0.0008202134977190748
3997.93,-0.0008233451511924374
3998.83,-0.0008249117729441012
3999.73,-0.0008383225991883925
4000.63,-0.0008542807673686091
4001.53,-0.0008696388917600447
4002.43,-0.00087778159765964
4003.33,-0.0008859216886996329
4004.23,-0.0008886622846887015
4005.13,-0.0008872562441125909
4006.03,-0.0008847076192279403
4006.93,-0.0008873599967162588
4007.83,-0.0008975684740675004
4008.73,-0.0009098274536815156
4009.63,-0.0009267193966630482
4010.53,-0.0009438175023724668
4011.43,-0.0009544693661597383
4012.33,-0.0009675738130799695
4013.23,-0.0009699827475597371
4014.13,-0.0009815728346058278
4015.03,-0.0009864911769690368
4015.93,-0.0009954406803613781
4016.84,-0.0010037208627771605
4017.74,-0.0010136775442909712
4018.64,-0.001024133742467169
4019.54,-0.0010312912323966526
4020.44,-0.001038764807576826
4021.34,-0.0010528794718318777
4022.24,-0.0010531473011652166
4023.14,-0.0010626085096384617
4024.04,-0.0010640441321881245
4024.94,-0.001077269961245899
4025.84,-0.0010832680493361637
4026.74,-0.0010983026332017528
4027.64,-0.0011112595888609943
4028.54,-0.001112842382076381
4029.44,-0.0011088805879298262
4030.34,-0.0011036618181492904
4031.24,-0.0010920560917415667
4032.14,-0.0010869982766834106
4033.04,-0.0010850602029969336
4033.94,-0.0010912019178526858
4034.84,-0.0011058491925686306
4035.74,-0.0011331652028514086
4036.64,-0.001160388562923148
4037.54,-0.0011846690080268383
4038.44,-0.0012131307274904518
4039.34,-0.001227235851158751
4040.24,-0.0012390559035070886
4041.14,-0.001240557969941047
4042.04,-0.001235794387347694
4042.94,-0.0012320685432793278
4043.84,-0.0012161661126175352
4044.74,-0.0012156047487389791
4045.64,-0.001201835437785205
4046.54,-0.0011993720156975084
4047.44,-0.0012109523516588294
4048.34,-0.001237232760341341
4049.24,-0.0012637404055885681
4050.14,-0.0012916083687298655
4051.04,-0.001314081869131368
4051.94,-0.0013257247051890132
4052.84,-0.0013342580534586907
4053.74,-0.0013345535557005594
4054.65,-0.001338718260970473
4055.55,-0.0013363057969910878
4056.45,-0.0013368015858088997
4057.35,-0.001341914689752397
4058.25,-0.0013534572877865342
4059.15,-0.0013634036623586894
4060.05,-0.001375144317665345
4060.95,-0.001388685877326612
4061.85,-0.0013900908665796284
4062.75,-0.0013860987641886005
4063.65,-0.001378358220403057
4064.55,-0.0013819560948032333
4065.45,-0.0013866969503376397
4066.35,-0.0013926955063901323
4067.25,-0.001410551495883518
4068.15,-0.001440602005922119
4069.05,-0.001456747172694937
4069.95,-0.0014732445546243038
4070.85,-0.0014880520212613463
4071.75,-0.0014962793788673074
4072.65,-0.001499768831270628
4073.55,-0.0015026988023067343
4074.45,-0.0014976088264896561
4075.35,-0.0014891581452014706
4076.25,-0.0014792806798211659
4077.15,-0.0014686093074650862
4078.05,-0.001470647103464942
4078.95,-0.001476508359657078
4079.85,-0.0014969419877586252
4080.75,-0.0015272892926943412
4081.65,-0.0015624494987681444
4082.55,-0.001589488506267273
4083.45,-0.0016077454365661806
4084.35,-0.0016290588234168506
4085.25,-0.00164081689229005
4086.15,-0.0016632016025872572
4087.05,-0.0016892241394256436
4087.95,-0.001712990421192585
4088.85,-0.0017374188397900302
4089.75,-0.0017606246311097304
4090.65,-0.0017716360722320518
4091.55,-0.0017783646418974815
4092.45,-0.0017701039376730526
4093.36,-0.0017572872737523324
4094.26,-0.0017433165185781938
4095.16,-0.0017319252498142414
4096.06,-0.0016966945601581333
4096.96,-0.0016601929740265927
4097.86,-0.0016214655249319368
4098.76,-0.0015607818039779797
4099.66,-0.0014972292409090424
4100.56,-0.0014414741919598047
4101.46,-0.0013913335479157694
4102.36,-0.0013605882371384617
4103.26,-0.0013686861984610126
4104.16,-0.0014186747610077225
4105.06,-0.0014823245371877005
4105.96,-0.001568420078009159
4106.86,-0.001652810761224612
4107.76,-0.001721322191698098
4108.66,-0.0017904534528264994
4109.56,-0.0018362384640444424
4110.46,-0.0018877189286748324
4111.36,-0.0019328533383145183
4112.26,-0.001966092442345301
4113.16,-0.002010922933538935
4114.06,-0.002045880588477112
4114.96,-0.002083216528043538
4115.86,-0.002119299282059963
4116.76,-0.002155769080418645
4117.66,-0.0021649506696213823
4118.56,-0.002175911372068002
4119.46,-0.002171413157466957
4120.36,-0.0021876427726690447
4121.26,-0.002200167774917939
4122.16,-0.00220947147505335
4123.06,-0.0022316058356748845
4123.96,-0.00226814694758851
4124.86,-0.002292236411768592
4125.76,-0.0023167223964815414
4126.66,-0.002338084216895409
4127.56,-0.0023619736075542906
4128.46,-0.0023655783329379356
4129.36,-0.0023792420817702583
4130.26,-0.002369943472185061
4131.17,-0.0023738046587711793
4132.06,-0.002388380675902016
4132.97,-0.002392986498105263
4133.87,-0.0024021302724606167
4134.77,-0.0024328686740113367
4135.67,-0.0024801460805383233
4136.57,-0.002528280655760169
4137.47,-0.0025815686781541624
4138.37,-0.002631057691627593
4139.27,-0.0026745357934239993
4140.17,-0.002697680143318389
4141.07,-0.0027051018288057277
4141.97,-0.0027076703659903957
4142.87,-0.0026812524430405316
4143.77,-0.002678904953041133
4144.67,-0.0026834983465525136
4145.57,-0.002700002252543229
4146.47,-0.0027365933195283697
4147.37,-0.002790063134909117
4148.27,-0.0028323759673239885
4149.17,-0.0028636247225951334
4150.07,-0.002875105176570585
4150.97,-0.0029115526092513126
4151.87,-0.0029236537936425267
4152.77,-0.0029297109478143347
4153.67,-0.002935348319813567
4154.57,-0.002954457889084645
4155.47,-0.002965869834223798
4156.37,-0.0029971969977063855
4157.27,-0.003027655988411505
4158.17,-0.0030635931752464297
4159.07,-0.003119959724403127
4159.97,-0.0031535592348798614
4160.87,-0.003199057774131167
4161.77,-0.0032527853146826335
4162.67,-0.0032945380518813877
4163.57,-0.0033165593700872653
4164.47,-0.003353476982275395
4165.37,-0.0033840915172206622
4166.27,-0.0033956892092328827
4167.17,-0.0034117664599057603
4168.07,-0.003417103072570653
4168.98,-0.003433615018121548
4169.88,-0.0034192721577760115
4170.78,-0.0033914675685909955
4171.68,-0.003382079819751299
4172.58,-0.0033546335940045245
4173.48,-0.0033509955124049412
4174.38,-0.0033577441899382237
4175.28,-0.0033853114100274775
4176.18,-0.003411872121003921
4177.08,-0.0034578670201328696
4177.98,-0.003513475871638894
4178.88,-0.0035915630106725183
4179.78,-0.0036283255758921677
4180.68,-0.003673449257725965
4181.58,-0.0037249444758178014
4182.48,-0.0037562315447575946
4183.38,-0.00380104821018821
4184.28,-0.0038504498626658326
4185.18,-0.003864775751543381
4186.08,-0.003892673062156314
4186.98,-0.003915818941552985
4187.88,-0.003943823747417824
4188.78,-0.003973145281703875
4189.68,-0.004003141719897597
4190.58,-0.004052148248359658
4191.48,-0.0041214704775208895
4192.38,-0.0041663760110468295
4193.28,-0.004220514631825624
4194.18,-0.004254634396446775
4195.08,-0.00428212953532123
4195.98,-0.00429681017165663
4196.88,-0.004283981637164152
4197.78,-0.004276379720070731
4198.68,-0.004271411956739645
4199.58,-0.004248097768126993
4200.48,-0.004276935596478712
4201.38,-0.004285358073639979
4202.28,-0.004334934514131638
4203.18,-0.004391413169603794
4204.08,-0.004440946735707984
4204.98,-0.004520444732673865
4205.88,-0.004586560632515075
4206.79,-0.00467170492099229
4207.69,-0.004743383536409389
4208.59,-0.004804954164696609
4209.49,-0.004879280742183324
4210.39,-0.004944565803389565
4211.29,-0.004979712032837702
4212.19,-0.005030443169061728
4213.09,-0.005062794117230098
4213.99,-0.005052620861280572
4214.89,-0.005056078933687279
4215.79,-0.00506842113332409
4216.69,-0.00508270553309809
4217.59,-0.005118497573695396
4218.49,-0.00519471049887355
4219.39,-0.005270690294870805
4220.29,-0.005347524960399261
4221.19,-0.005396238631381221
4222.09,-0.005405656642062942
4222.99,-0.005414118739688282
4223.89,-0.0053573548180594075
4224.79,-0.00525619640823636
4225.69,-0.005174168558923917
4226.59,-0.005121858312078355
4227.49,-0.005134676634179169
4228.39,-0.005202724550921934
4229.29,-0.005325242413936845
4230.19,-0.005512701821393043
4231.09,-0.005657900271819575
4231.99,-0.005809058645904795
4232.89,-0.0059049836820832735
4233.79,-0.0059324430533096405
4234.69,-0.005995054645769174
4235.59,-0.006009246437595351
4236.49,-0.0060329634438440706
4237.39,-0.006066061134797885
4238.29,-0.00610812466013223
4239.19,-0.006176811195511262
4240.09,-0.006296376525273673
4240.99,-0.006379200994173407
4241.89,-0.006480134086961193
4242.79,-0.006563006841294561
4243.69,-0.006659313795146372
4244.59,-0.006701954795223464
4245.5,-0.006768146716989604
4246.4,-0.006767485952396946
4247.3,-0.006745830487339961
4248.2,-0.006762523302068044
4249.1,-0.0068123319886096165
4250.0,-0.006846610003319623
4250.9,-0.006868193160268462
4251.8,-0.006988401420459774
4252.7,-0.007069071896363076
4253.6,-0.0071854501378058305
4254.5,-0.0072925531169645485
4255.4,-0.007378226613120896
4256.3,-0.007450451161589338
4257.2,-0.007501941463999792
4258.1,-0.007582548853983821
4259.0,-0.007606672954069067
4259.9,-0.0076373399338964506
4260.8,-0.007659908026935325
4261.7,-0.007756447592705853
4262.6,-0.007859834125772383
4263.5,-0.007998491788819924
4264.4,-0.008141635437249583
4265.3,-0.008315913665686106
4266.2,-0.008430603398282584
4267.1,-0.008488223838395863
4268.0,-0.00849036040773194
4268.9,-0.00853165234651623
4269.8,-0.008466125010879988
4270.7,-0.008378171735958898
4271.6,-0.008319762846045416
4272.5,-0.008266484763667384
4273.4,-0.008288809144142336
4274.3,-0.008348773672208062
4275.2,-0.0085413729070881
4276.1,-0.008719079695316257
4277.0,-0.00889254916994079
4277.9,-0.009065687209509243
4278.8,-0.009197717105739241
4279.7,-0.009372838958199816
4280.6,-0.009433614366684434
4281.5,-0.009498050959689457
4282.4,-0.009558558550119979
4283.31,-0.009555394209749588
