wave,flux
3700.85,0.006228886770449373
3701.75,0.006152085400447607
3702.65,0.005932862793595113
3703.55,0.005594424527966456
3704.45,0.005214266704522592
3705.35,0.00482484984753849
3706.25,0.004513565116620875
3707.15,0.004358219983604533
3708.05,0.004392040861484679
3708.96,0.0045645264486366645
3709.86,0.004918456755100522
3710.76,0.0054150850640832466
3711.66,0.006019407336256004
3712.56,0.006621081530025251
3713.46,0.0071355262055732525
3714.36,0.0074993839210116455
3715.26,0.007596089643067175
3716.16,0.007408020509667302
3717.06,0.007043734063692531
3717.96,0.006472907121882866
3718.86,0.00581905283546775
3719.76,0.005174761603364359
3720.66,0.004686541832445401
3721.56,0.004454222442925739
3722.46,0.004549084585642571
3723.36,0.004914411235083356
3724.26,0.005477041838899795
3725.16,0.006037998735207995
3726.06,0.0064723466224293445
3726.96,0.00676039860762723
3727.86,0.006910595465617325
3728.76,0.006935636964915186
3729.66,0.006965553547029054
3730.56,0.006802327061195237
3731.46,0.00655885665868916
3732.36,0.006135970724880437
3733.26,0.005602014004185873
3734.16,0.005024719640703159
3735.06,0.004565020810219315
3735.96,0.004368095517280645
3736.86,0.004468543331776095
3737.76,0.004854978862840675
3738.66,0.005501060039721002
3739.56,0.006294639462361089
3740.46,0.0070077549978258
3741.36,0.007508399452079711
3742.26,0.007645300144686224
3743.16,0.007475969002903868
3744.06,0.007085008139520109
3744.96,0.006590305806842713
3745.86,0.006093196578427931
3746.76,0.005717687387434386
3747.67,0.00549007311237924
3748.57,0.005427296240009611
3749.47,0.005652532766410716
3750.37,0.006194066644266799
3751.27,0.007009055885360528
3752.17,0.008073090452149753
3753.07,0.009181802668932065
3753.97,0.010221342222095623
3754.87,0.01093760176678204
3755.77,0.011225680396078542
3756.67,0.011077765207135524
3757.57,0.01063471161414513
3758.47,0.010040846925655482
3759.37,0.009659688851379432
3760.27,0.009521392674410297
3761.17,0.009665365873347405
3762.07,0.009932620035245402
3762.97,0.01021747797650377
3763.87,0.01046425988741118
3764.77,0.010667945481946928
3765.67,0.010847764603861887
3766.57,0.011153055197028871
3767.47,0.011522934713072013
3768.37,0.012151281807326116
3769.27,0.012893771905846969
3770.17,0.013740032123055293
3771.07,0.01461449288924788
3771.97,0.015437483436317163
3772.87,0.01620605641000197
3773.77,0.01672475031813401
3774.67,0.017246506096905596
3775.57,0.01757876986885405
3776.47,0.017788953267741537
3777.37,0.018122171559996295
3778.27,0.018512078482247465
3779.17,0.019068399211695414
3780.07,0.019679806194071343
3780.97,0.020342058227223375
3781.87,0.02089242982390016
3782.77,0.021252011142026277
3783.67,0.021488398012203373
3784.57,0.02131098524814226
3785.47,0.02068161551477444
3786.38,0.019732137871163676
3787.28,0.018792048504842968
3788.18,0.017949476174870766
3789.08,0.017415441244273043
3789.98,0.017205032742848934
3790.88,0.017450017056907255
3791.78,0.01777043464741968
3792.68,0.018124968918892904
3793.58,0.018201648032548496
3794.48,0.018172876519327655
3795.38,0.017968866490105453
3796.28,0.01770782310510689
3797.18,0.017496822254312355
3798.08,0.01750015037513371
3798.98,0.0178462964097331
3799.88,0.018736571993872853
3800.78,0.01998760294817399
3801.68,0.021752454847051465
3802.58,0.0235293853121048
3803.48,0.025161765893776757
3804.38,0.026493244509557968
3805.28,0.02712711483092862
3806.18,0.02744654035336719
3807.08,0.02739399310976526
3807.98,0.027615861151367563
3808.88,0.027964521814402975
3809.78,0.02859339045761681
3810.68,0.029082079631336005
3811.58,0.029123967090805277
3812.48,0.02868161902606225
3813.38,0.027563053499873452
3814.28,0.026259709133301504
3815.18,0.024712763389238692
3816.08,0.023737021629226158
3816.98,0.02305354261146732
3817.88,0.022805311114507846
3818.78,0.022521392031880697
3819.68,0.02227095892662262
3820.58,0.021922637824020087
3821.48,0.021727234738621835
3822.38,0.02149430032285329
3823.28,0.02143145686542869
3824.18,0.021184437633968888
3825.09,0.020848309509896492
3825.99,0.02024641881796979
3826.89,0.019957660674742993
3827.79,0.02001345470773884
3828.69,0.02037027274996091
3829.59,0.021098776153469036
3830.49,0.021729374576412185
3831.39,0.022163037694995266
3832.29,0.022303743553986382
3833.19,0.02235647450423894
3834.09,0.022662343749630894
3834.99,0.023172249376403223
3835.89,0.02395429453557459
3836.79,0.024570123154516635
3837.69,0.024940539093916306
3838.59,0.025395553655471793
3839.49,0.025805288300548526
3840.39,0.026847929525348414
3841.29,0.02902645568509074
3842.19,0.03194242906666283
3843.09,0.03548835443388337
3843.99,0.03910237506186914
3844.89,0.042281396620459405
3845.79,0.04467363249402956
3846.69,0.046343271275945626
3847.59,0.047472867277034925
3848.49,0.04764844161939812
3849.39,0.0479553369358859
3850.29,0.04811323810011992
3851.19,0.04837861611111438
3852.09,0.04896684199161268
3852.99,0.049440163898094615
3853.89,0.04973141908838582
3854.79,0.04945394637818132
3855.69,0.04849422006760396
3856.59,0.04713400393339676
3857.49,0.04564980418013365
3858.39,0.04431439971777832
3859.29,0.04344356800392742
3860.19,0.04401735715068768
3861.09,0.04589648788404297
3861.99,0.049482129548128334
3862.9,0.0539350028670622
3863.8,0.058398558617406636
3864.7,0.06189968145710889
3865.6,0.06423972453061738
3866.5,0.06524334556619607
3867.4,0.06577722983738371
3868.3,0.06546294754445392
3869.2,0.06464878540844021
3870.1,0.06359990660772362
3871.0,0.06291136785108281
3871.9,0.06279182152725024
3872.8,0.06409220406205163
3873.7,0.06736773363644377
3874.6,0.07114516358565183
3875.5,0.07529839584479882
3876.4,0.07810080292630492
3877.3,0.07895451514226184
3878.2,0.07879435227123963
3879.1,0.07805727907720496
3880.0,0.07841575294825648
3880.9,0.07924250951681602
3881.8,0.08138148527033338
3882.7,0.08347048471778787
3883.6,0.08632424224304593
3884.5,0.08858346467848799
3885.4,0.08998251302160247
3886.3,0.09037116371538084
3887.2,0.09168524037153651
3888.1,0.09360216252431539
3889.0,0.09802058936776147
3889.9,0.10573252742417469
3890.8,0.11482562128202332
3891.7,0.12483240456997524
3892.6,0.13316409130807194
3893.5,0.14040716634367714
3894.4,0.14469234047535862
3895.3,0.14726374603025266
3896.2,0.14959928359144634
3897.1,0.15177572234261288
3898.0,0.15370199807942547
3898.9,0.1561959208793872
3899.8,0.157361933251135
3900.7,0.15998369332384602
3901.6,0.1616686616910216
3902.51,0.16361462759976375
3903.41,0.1641864429521259
3904.31,0.16476073505881242
3905.21,0.16640433476403965
3906.11,0.16918129098841267
3907.01,0.1754242093831644
3907.91,0.18554742673901625
3908.81,0.19677793278806543
3909.71,0.20985020760200043
3910.61,0.22167694605025978
3911.51,0.2321607089048687
3912.41,0.24107315492155632
3913.31,0.24714759305096032
3914.21,0.2511315568827648
3915.11,0.2538263900360619
3916.01,0.2530071986839897
3916.91,0.25182041336129574
3917.81,0.24652381554441455
3918.71,0.24043861925481536
3919.61,0.23352685614449623
3920.51,0.224152981508318
3921.41,0.2193817095167991
3922.31,0.2148634129119792
3923.21,0.21371655788019647
3924.11,0.21443441113327524
3925.01,0.2150051779654332
3925.91,0.21192971594006743
3926.81,0.20449269838408873
3927.71,0.19217194396375803
3928.61,0.17616005330114923
3929.51,0.1582392881546687
3930.41,0.14158983514586337
3931.31,0.1257916547397218
3932.21,0.11215191463563777
3933.11,0.1036574923376909
3934.01,0.09936215192804579
3934.91,0.10166840036093341
3935.81,0.1100182938045687
3936.71,0.12481990773066863
3937.61,0.1445904519988785
3938.51,0.16763525373130925
3939.42,0.19218536991304555
3940.32,0.21669312813012676
3941.22,0.23600658601721614
3942.12,0.2520508641985267
3943.02,0.2637923670831657
3943.92,0.2776245867681921
3944.82,0.2929625832642954
3945.72,0.31274489979729114
3946.62,0.3366721526421008
3947.52,0.3626889617740782
3948.42,0.3860281366261992
3949.32,0.4080394860862468
3950.22,0.4294305828871737
3951.12,0.4479421353304524
3952.02,0.46219011158218
3952.92,0.4772407621560866
3953.82,0.48543230719204317
3954.72,0.48954389450086416
3955.62,0.49628270574038497
3956.52,0.4962723454962084
3957.42,0.4909526892059849
3958.32,0.4847296081020173
3959.22,0.47406126821098676
3960.12,0.4514399977447119
3961.02,0.425809167823078
3961.92,0.39726234033175994
3962.82,0.36386708496135667
3963.72,0.3340164018163983
3964.62,0.306361907417899
3965.52,0.27942601892654195
3966.42,0.2539301296260762
3967.32,0.22897680303806134
3968.22,0.20940931357485493
3969.12,0.19980880988082633
3970.02,0.20280250332511324
3970.92,0.2202332618059179
3971.82,0.24975572269690835
3972.72,0.28634527747646465
3973.62,0.33363649363078784
3974.52,0.38302831526816483
3975.42,0.43418439233596184
3976.32,0.4885031148638178
3977.22,0.5372424163762021
3978.13,0.5860575416091184
3979.03,0.6317535023032529
3979.93,0.6695037424324878
3980.83,0.7006398039197355
3981.73,0.7240134110150586
3982.63,0.7373310738450544
3983.53,0.7501229037829519
3984.43,0.7594593403458841
3985.33,0.7725630121143706
3986.23,0.7873297257464074
3987.13,0.8072645679859134
3988.03,0.8219385720734909
3988.93,0.8389959829316161
3989.83,0.8531628716202031
3990.73,0.8677353768407957
3991.63,0.8778440775037265
3992.53,0.8867650409952517
3993.43,0.8929824020352195
3994.33,0.898188301926046
3995.23,0.8939250005161041
3996.13,0.8919121959473181
3997.03,0.8867152160683309
3997.93,0.8885325977000773
3998.83,0.9027654467880035
3999.73,0.92246688151093
4000.63,0.9445017491602932
4001.53,0.9636639130216033
4002.43,0.9769706256657132
4003.33,0.9780794916063146
4004.23,0.9596717865821225
4005.13,0.94686388968067
4006.03,0.9273838689542491
4006.93,0.9241906701394589
4007.83,0.9257945895881581
4008.73,0.9439924550756221
4009.63,0.9684748183887144
4010.53,0.9930082322072697
4011.43,1.0146046117277678
4012.33,1.0330313907882458
4013.23,1.0472131613654765
4014.13,1.0559088230932452
4015.03,1.0611992076886854
4015.93,1.0690179721053181
4016.84,1.0688119036662918
4017.74,1.0699532126879854
4018.64,1.0749318855620036
4019.54,1.0754112366832478
4020.44,1.076327256360316
4021.34,1.0765679989848416
4022.24,1.0774549706903291
4023.14,1.0726665660836785
4024.04,1.074702839728715
4024.94,1.074282493006894
4025.84,1.0797722361577744
4026.74,1.0818312974330313
4027.64,1.0876975434483613
4028.54,1.0810010809026003
4029.44,1.063638990131625
4030.34,1.026571659592533
4031.24,0.9824028919106297
4032.14,0.9407217936397061
4033.04,0.9120519683387638
4033.94,0.8972049422665823
4034.84,0.9085771244848097
4035.74,0.9423837837535325
4036.64,0.9901660776287624
4037.54,1.0344640727919872
4038.44,1.0739333617588016
4039.34,1.0961910891892894
4040.24,1.1099816148848993
4041.14,1.0952471646314224
4042.04,1.074709772847479
4042.94,1.0338894216701422
4043.84,0.9834870173013281
4044.74,0.9304511583333939
4045.64,0.882617618195691
4046.54,0.8633234978985567
4047.44,0.8662692386956401
4048.34,0.9026461777931349
4049.24,0.9487959101436795
4050.14,0.9995514213844702
4051.04,1.0426544960090303
4051.94,1.0608830605038317
4052.84,1.0663133606361253
4053.74,1.0590564466908259
4054.65,1.0367477925830384
4055.55,1.0127791644743762
4056.45,0.990245285783088
4057.35,0.9758310993619781
4058.25,0.9645288532622159
4059.15,0.9591459192334855
4060.05,0.9585216576810164
4060.95,0.9453642874404327
4061.85,0.9341168290091352
4062.75,0.9084478190375589
4063.65,0.8865706963401663
4064.55,0.8672493130658865
4065.45,0.8698125457025898
4066.35,0.875140466326224
4067.25,0.9046597239426863
4068.15,0.9339155943804193
4069.05,0.9555154424633616
4069.95,0.9626989551212111
4070.85,0.9654699303328882
4071.75,0.9604879111546617
4072.65,0.9493699201239264
4073.55,0.9478593856829657
4074.45,0.9435647420347395
4075.35,0.9411710228532788
4076.25,0.9332121673430855
4077.15,0.9274879486038812
4078.05,0.9285368505603036
4078.95,0.9344730447589842
4079.85,0.9550258303224827
4080.75,0.9879055066145377
4081.65,1.023055161957338
4082.55,1.0448927115046474
4083.45,1.0580690748266024
4084.35,1.0622172722748109
4085.25,1.0706556395866929
4086.15,1.0753254268946395
4087.05,1.0928681677308736
4087.95,1.121730710091365
4088.85,1.1407580672558244
4089.75,1.1600045307473328
4090.65,1.1634909075294304
4091.55,1.1573689623712455
4092.45,1.1486426629045918
4093.36,1.1215041699185682
4094.26,1.0965581173801617
4095.16,1.071491361007284
4096.06,1.045003294726082
4096.96,1.0118396515552153
4097.86,0.9834892327721296
4098.76,0.9548980995749891
4099.66,0.9273730580871612
4100.56,0.9048840347981854
4101.46,0.8868351550055774
4102.36,0.8756412205420058
4103.26,0.8844152586116837
4104.16,0.9007439895740921
4105.06,0.933539323016637
4105.96,0.9678440256911158
4106.86,0.9968613984476126
4107.76,1.0191392466520617
4108.66,1.026638990974875
4109.56,1.027493179787347
4110.46,1.02924778656777
4111.36,1.0200765876589695
4112.26,1.0238963576351823
4113.16,1.036459119953724
4114.06,1.0470263122743166
4114.96,1.0544433858768123
4115.86,1.0662526545309345
4116.76,1.0667664383010227
4117.66,1.0602716441499576
4118.56,1.0494316599432525
4119.46,1.0415204309689132
4120.36,1.0291343438916893
4121.26,1.029448596660338
4122.16,1.0259292905379835
4123.06,1.0313515302740959
4123.96,1.0416266583601754
4124.86,1.0432055420388837
4125.76,1.0445604949409777
4126.66,1.0437384770398366
4127.56,1.0351271711321275
4128.46,1.0247078684559985
4129.36,1.0024602420281818
4130.26,0.9836089675139166
4131.17,0.9565605794411003
4132.06,0.9375285725755905
4132.97,0.9236561893351932
4133.87,0.926333126225276
4134.77,0.93197742666439
4135.67,0.950638236733302
4136.57,0.9839641024819842
4137.47,1.0115984242403948
4138.37,1.0354356070363613
4139.27,1.0484512992720587
4140.17,1.038546550529666
4141.07,1.0200017924798506
4141.97,0.9895298707363345
4142.87,0.9586868271796766
4143.77,0.92482249764734
4144.67,0.9112472806243912
4145.57,0.9073830641399697
4146.47,0.922335178407768
4147.37,0.9393211882404287
4148.27,0.9640776667853378
4149.17,0.9728156783310314
4150.07,0.9779663040335668
4150.97,0.9722938665270741
4151.87,0.9669004918537373
4152.77,0.9609242404037615
4153.67,0.952569667630609
4154.57,0.9479634457755978
4155.47,0.9484738872897637
4156.37,0.9519846700998743
4157.27,0.9607030380771442
4158.17,0.9796324547586702
4159.07,1.0044655580307926
4159.97,1.0255780597944628
4160.87,1.045399794042281
4161.77,1.0623473728044728
4162.67,1.0758282402043478
4163.57,1.0819479440352644
4164.47,1.0809871869955436
4165.37,1.070160935998533
4166.27,1.0600158516334317
4167.17,1.0425055987603475
4168.07,1.0265005876628273
4168.98,1.0152921941244146
4169.88,1.0054696712129887
4170.78,0.9911013174910057
4171.68,0.972601682840936
4172.58,0.9579346922543582
4173.48,0.9397363025903653
4174.38,0.9257827426498698
4175.28,0.925199333537084
4176.18,0.9282599548707766
4177.08,0.9390619213644639
4177.98,0.953541849063894
4178.88,0.9602252425512404
4179.78,0.9697520665214461
4180.68,0.9788971747816964
4181.58,0.9849491243168707
4182.48,0.9939554601289436
4183.38,0.9997206178155376
4184.28,1.0037182856637272
4185.18,1.0056452759198324
4186.08,1.0058360980618726
4186.98,1.0007019167142384
4187.88,0.9947241383291769
4188.78,0.9961118537357584
4189.68,0.9997270568819584
4190.58,1.0093474471674728
4191.48,1.021639184619264
4192.38,1.0313576534809015
4193.28,1.0408205742476695
4194.18,1.045872434731622
4195.08,1.0327502220283173
4195.98,1.0096812379517857
4196.88,0.9815827790517704
4197.78,0.9538152504488391
4198.68,0.9351991482134427
4199.58,0.9206930516329083
4200.48,0.9102502086359753
4201.38,0.9120312046858288
4202.28,0.9234629598908277
4203.18,0.9407140696377472
4204.08,0.970951806066015
4204.98,0.997768118369249
4205.88,1.0257682370166195
4206.79,1.0578791107456749
4207.69,1.0781134346197672
4208.59,1.100769514060306
4209.49,1.1016653889043755
4210.39,1.1093552652600223
4211.29,1.1038610570971823
4212.19,1.0998416697810554
4213.09,1.0835584472007656
4213.99,1.0720442233625451
4214.89,1.0559996676024588
4215.79,1.0488384556213541
4216.69,1.045740354941246
4217.59,1.06296658508104
4218.49,1.0852951287127057
4219.39,1.1058909581936227
4220.29,1.1204802603081472
4221.19,1.124008057098065
4222.09,1.1042793685371528
4222.99,1.0576457938590547
4223.89,0.9994179035387825
4224.79,0.9272431861013359
4225.69,0.8565655203148889
4226.59,0.8061328204199355
4227.49,0.7851683668472282
4228.39,0.7976656754747832
4229.29,0.83658728678673
4230.19,0.8894423722766607
4231.09,0.9508807000116272
4231.99,1.0012272771881918
4232.89,1.031290520053151
4233.79,1.0397016253686817
4234.69,1.0387590602051575
4235.59,1.0222408772636162
4236.49,1.0231613010772016
4237.39,1.012543865679506
4238.29,1.0135937690000116
4239.19,1.0366610514910428
4240.09,1.0479320271472983
4240.99,1.0732439127909466
4241.89,1.1002016836120918
4242.79,1.1249611092708283
4243.69,1.1513640339691458
4244.59,1.1643780419782668
4245.5,1.1694660556147776
4246.4,1.1592168173924124
4247.3,1.1338391965191874
4248.2,1.1050688502720516
4249.1,1.0650314724617689
4250.0,1.0353013095910524
4250.9,1.0084173351249546
4251.8,0.9914104807566805
4252.7,0.9851012936990248
4253.6,0.984225742301943
4254.5,0.9902735547516206
4255.4,0.9987640522083272
4256.3,1.011744074152513
4257.2,1.0191309987182973
4258.1,1.0210654956245377
4259.0,1.0231389487688896
4259.9,1.011353663345197
4260.8,1.0058509362651096
4261.7,1.0134867963290584
4262.6,1.0349689031221068
4263.5,1.0697993175230216
4264.4,1.1073014005405772
4265.3,1.1383509219517611
4266.2,1.151356430354942
4267.1,1.1470895843883917
4268.0,1.1257794475978093
4268.9,1.080937100838694
4269.8,1.0312972228322899
4270.7,0.9698528290179477
4271.6,0.9166302492293072
4272.5,0.8752230664989301
4273.4,0.8524521111867697
4274.3,0.8516377649404614
4275.2,0.8764559921170323
4276.1,0.9083193300283736
4277.0,0.9510764475409162
4277.9,0.9968112348500164
4278.8,1.035965220745811
4279.7,1.0554802512535792
4280.6,1.0623624329876984
4281.5,1.0587395725987416
4282.4,1.0539758305202362
4283.31,1.0457756754697476
4284.21,1.035740412310476
4285.11,1.0247571097324157
4286.01,1.0117608971919354
4286.91,0.9970412124424893
4287.81,0.9713875170690425
4288.71,0.9472747276158324
4289.61,0.9264186154891662
4290.51,0.9124203129495397
4291.41,0.9083508005553615
4292.31,0.9162976549800151
4293.21,0.9296054437145679
4294.11,0.9410085544422573
4295.01,0.9493385232793269
4295.91,0.941565259348904
4296.81,0.9216047925437391
4297.71,0.8889814775402343
4298.61,0.8469919900169812
4299.51,0.8044141372382452
4300.41,0.7703628562296287
4301.31,0.7422725377882532
4302.21,0.7267370677326307
4303.11,0.7187689793906819
4304.01,0.7144606739542431
4304.91,0.7096732560396921
4305.81,0.7012509714003967
4306.71,0.6903051366656482
4307.61,0.6754085355317019
4308.51,0.6684194697666831
4309.41,0.6687260636195692
4310.31,0.6865385709705132
4311.21,0.7096178477856965
4312.11,0.7577418472476097
4313.01,0.8169738109625149
4313.91,0.8846881151224926
4314.81,0.9628436527923935
4315.71,1.0398531798429043
4316.61,1.1120949007608907
4317.51,1.171450971734697
4318.41,1.213958445824048
4319.31,1.2348148361845952
4320.21,1.2267298245978782
4321.12,1.1978565918767128
4322.02,1.1553558872215384
4322.92,1.0913835146656314
4323.82,1.0314519920364114
4324.72,0.9716356090036671
4325.62,0.9374379046953852
4326.52,0.9214594226351328
4327.42,0.941955862528663
4328.32,0.9810669711074929
4329.22,1.034066187480225
4330.12,1.0923602516432807
4331.02,1.144948198004362
4331.92,1.1785841991354198
4332.82,1.194582178220924
4333.72,1.203084653639502
4334.62,1.2021615895346294
4335.52,1.1821576719461868
4336.42,1.154591266736449
4337.32,1.1110233163181447
4338.22,1.0606227221056732
4339.12,1.007516927987906
4340.02,0.9686738118586748
4340.92,0.9500601252635683
4341.82,0.9439483304279378
4342.72,0.9677073209043766
4343.62,0.9963452090966555
4344.52,1.0357897770319424
4345.42,1.070698321194073
4346.32,1.1023950301968748
4347.22,1.1251239723356377
4348.12,1.136583694129709
4349.02,1.141191801067949
4349.92,1.13027444802189
4350.82,1.1098451098048316
4351.72,1.0798462840519516
4352.62,1.0528471325464948
4353.52,1.0337908827734625
4354.42,1.0321260339066245
4355.32,1.0404079778774675
4356.22,1.0547964414441986
4357.12,1.067800386086851
4358.02,1.085254369718503
4358.92,1.100346525899816
