wave,flux
3700.85,-1.4765652104858572e-06
3701.75,-1.4648835967329784e-06
3702.65,-1.432037833090487e-06
3703.55,-1.3842241748636967e-06
3704.45,-1.3328475257220326e-06
3705.35,-1.3014082302147105e-06
3706.25,-1.28270672252851e-06
3707.15,-1.2875766193623227e-06
3708.05,-1.3019838312194075e-06
3708.96,-1.3205203530193743e-06
3709.86,-1.3383293253091803e-06
3710.76,-1.3603660749305037e-06
3711.66,-1.3771388602905722e-06
3712.56,-1.4085463144725692e-06
3713.46,-1.4586844539698103e-06
3714.36,-1.5046346020631407e-06
3715.26,-1.5690764243132071e-06
3716.16,-1.5986398399039762e-06
3717.06,-1.6142275553154614e-06
3717.96,-1.5935940695938521e-06
3718.86,-1.530563946919511e-06
3719.76,-1.454814449540022e-06
3720.66,-1.3655341912570956e-06
3721.56,-1.3047809025233335e-06
3722.46,-1.287287037662465e-06
3723.36,-1.308858434915702e-06
3724.26,-1.3731902495006796e-06
3725.16,-1.4585767479593592e-06
3726.06,-1.5407334447247706e-06
3726.96,-1.5976268826239116e-06
3727.86,-1.6431357664328268e-06
3728.76,-1.6538975958395522e-06
3729.66,-1.6524330829823026e-06
3730.56,-1.6188610870092742e-06
3731.46,-1.5608987920435185e-06
3732.36,-1.4752547018865421e-06
3733.26,-1.3751346544131038e-06
3734.16,-1.2962356110740583e-06
3735.06,-1.2352539581995547e-06
3735.96,-1.2220071251293324e-06
3736.86,-1.2650967625005957e-06
3737.76,-1.3550430101074608e-06
3738.66,-1.4630702908000415e-06
3739.56,-1.5876159392201902e-06
3740.46,-1.6855572326902883e-06
3741.36,-1.7628576450557755e-06
3742.26,-1.7908980430644697e-06
3743.16,-1.7865011253720363e-06
3744.06,-1.7530570533763483e-06
3744.96,-1.6995470195572255e-06
3745.86,-1.623373901827158e-06
3746.76,-1.5401387091770856e-06
3747.67,-1.452792729863948e-06
3748.57,-1.372162953856156e-06
3749.47,-1.3147502339543356e-06
3750.37,-1.3029490639374533e-06
3751.27,-1.3399766481966608e-06
3752.17,-1.434678991450445e-06
3753.07,-1.5539094211773067e-06
3753.97,-1.6876569875235154e-06
3754.87,-1.8029768816881514e-06
3755.77,-1.886312063191145e-06
3756.67,-1.9358652605141246e-06
3757.57,-1.9422339278560354e-06
3758.47,-1.931649955656983e-06
3759.37,-1.914388588845024e-06
3760.27,-1.9229662820153164e-06
3761.17,-1.9390800176895094e-06
3762.07,-1.9672147993530742e-06
3762.97,-1.986599258750635e-06
3763.87,-1.9969275777755746e-06
3764.77,-2.0072718284131527e-06
3765.67,-1.9773013888399e-06
3766.57,-1.9205335214775407e-06
3767.47,-1.8501440119621983e-06
3768.37,-1.7777314940429808e-06
3769.27,-1.7061287675560919e-06
3770.17,-1.6559296181969927e-06
3771.07,-1.6345535450663156e-06
3771.97,-1.6606691671771628e-06
3772.87,-1.7201875380141429e-06
3773.77,-1.8068103512109213e-06
3774.67,-1.9026063515202083e-06
3775.57,-2.0107374910929066e-06
3776.47,-2.114454233172156e-06
3777.37,-2.193200579531346e-06
3778.27,-2.2776982909034243e-06
3779.17,-2.3699946212515383e-06
3780.07,-2.4574841279661955e-06
3780.97,-2.509225817801427e-06
3781.87,-2.5763109672984917e-06
3782.77,-2.61161448544637e-06
3783.67,-2.6258958807357197e-06
3784.57,-2.614258665276745e-06
3785.47,-2.577500321509774e-06
3786.38,-2.540005149950611e-06
3787.28,-2.4880816931822657e-06
3788.18,-2.424464025809892e-06
3789.08,-2.3758784227243443e-06
3789.98,-2.34474432701005e-06
3790.88,-2.296749468660342e-06
3791.78,-2.25262557281868e-06
3792.68,-2.197985878854201e-06
3793.58,-2.1191981161704056e-06
3794.48,-2.0079765546389724e-06
3795.38,-1.9066596781994427e-06
3796.28,-1.7950535826351512e-06
3797.18,-1.70505739778919e-06
3798.08,-1.6554887389774748e-06
3798.98,-1.646053049174066e-06
3799.88,-1.6998789667096787e-06
3800.78,-1.820433790039721e-06
3801.68,-1.9778948090032038e-06
3802.58,-2.140493432101275e-06
3803.48,-2.2842767355013434e-06
3804.38,-2.4162351088827893e-06
3805.28,-2.5061714771495746e-06
3806.18,-2.5877278854268416e-06
3807.08,-2.651260082890308e-06
3807.98,-2.7020896784165814e-06
3808.88,-2.7790721270000415e-06
3809.78,-2.825617550734451e-06
3810.68,-2.8832991572886546e-06
3811.58,-2.9024587075331594e-06
3812.48,-2.9032115891106123e-06
3813.38,-2.8909390331442274e-06
3814.28,-2.849499074545474e-06
3815.18,-2.8125901643182e-06
3816.08,-2.80908792797216e-06
3816.98,-2.8137491064337947e-06
3817.88,-2.8248279191395866e-06
3818.78,-2.8411424518078485e-06
3819.68,-2.8334631761086535e-06
3820.58,-2.813615132862214e-06
3821.48,-2.784405739288913e-06
3822.38,-2.754380044749747e-06
3823.28,-2.7249618618876852e-06
3824.18,-2.6730664617384146e-06
3825.09,-2.6213197907395748e-06
3825.99,-2.5543499706613803e-06
3826.89,-2.4816767686016216e-06
3827.79,-2.4299054376599953e-06
3828.69,-2.3689391280937224e-06
3829.59,-2.3033625674857447e-06
3830.49,-2.215175962401163e-06
3831.39,-2.121981072175034e-06
3832.29,-2.0097286361258552e-06
3833.19,-1.8959400407197623e-06
3834.09,-1.7854091314319661e-06
3834.99,-1.697225162289054e-06
3835.89,-1.6616021613835998e-06
3836.79,-1.6659565625445626e-06
3837.69,-1.718937606216883e-06
3838.59,-1.8026434401676292e-06
3839.49,-1.9242551175957366e-06
3840.39,-2.074959623478883e-06
3841.29,-2.2360386364037296e-06
3842.19,-2.3981963177697554e-06
3843.09,-2.564898184343133e-06
3843.99,-2.7242046465109754e-06
3844.89,-2.8525855603199025e-06
3845.79,-2.957945833363657e-06
3846.69,-3.0495268391477927e-06
3847.59,-3.129582856209165e-06
3848.49,-3.1946405146632616e-06
3849.39,-3.2384520515215718e-06
3850.29,-3.2814697938474203e-06
3851.19,-3.3362141688325958e-06
3852.09,-3.400068079701435e-06
3852.99,-3.417053400703735e-06
3853.89,-3.4701056612312096e-06
3854.79,-3.49001428219481e-06
3855.69,-3.4831904564638794e-06
3856.59,-3.469107847901353e-06
3857.49,-3.4475463101024525e-06
3858.39,-3.429155471641528e-06
3859.29,-3.4243191099915683e-06
3860.19,-3.4483039510122944e-06
3861.09,-3.4848734294393885e-06
3861.99,-3.533387025954512e-06
3862.9,-3.6118504072499182e-06
3863.8,-3.6612959889128057e-06
3864.7,-3.7235850326318495e-06
3865.6,-3.7376801564582197e-06
3866.5,-3.7537990182628923e-06
3867.4,-3.7536299415530194e-06
3868.3,-3.762199239085328e-06
3869.2,-3.733670821906013e-06
3870.1,-3.709780985938346e-06
3871.0,-3.6720641583490582e-06
3871.9,-3.618557530659296e-06
3872.8,-3.5785243708166963e-06
3873.7,-3.544929568784778e-06
3874.6,-3.5340443960778293e-06
3875.5,-3.5252603229534874e-06
3876.4,-3.499008354419221e-06
3877.3,-3.4861006615596297e-06
3878.2,-3.424786343771039e-06
3879.1,-3.3552488404825375e-06
3880.0,-3.3134503675503327e-06
3880.9,-3.272934892688216e-06
3881.8,-3.2192232618822966e-06
3882.7,-3.1616055155529534e-06
3883.6,-3.084449225824527e-06
3884.5,-2.976752096310415e-06
3885.4,-2.8353338713105887e-06
3886.3,-2.702737242306973e-06
3887.2,-2.5259214735921333e-06
3888.1,-2.4078646061148746e-06
3889.0,-2.3194142759416147e-06
3889.9,-2.315701869881029e-06
3890.8,-2.3616213227987064e-06
3891.7,-2.4966564400597464e-06
3892.6,-2.646719014706381e-06
3893.5,-2.8207270953132265e-06
3894.4,-2.9838658325165826e-06
3895.3,-3.1295367529460394e-06
3896.2,-3.259661571876634e-06
3897.1,-3.3768528796474284e-06
3898.0,-3.458381967212692e-06
3898.9,-3.5495904733057386e-06
3899.8,-3.63037597018952e-06
3900.7,-3.727415852632258e-06
3901.6,-3.7866496537640202e-06
3902.51,-3.8540374430239815e-06
3903.41,-3.912003303937997e-06
3904.31,-3.9288427427926244e-06
3905.21,-3.966174102234819e-06
3906.11,-3.990137334464366e-06
3907.01,-4.0630708989670586e-06
3907.91,-4.153564213507875e-06
3908.81,-4.230517227687488e-06
3909.71,-4.345193649689889e-06
3910.61,-4.443924606068649e-06
3911.51,-4.514616894982205e-06
3912.41,-4.546482130933108e-06
3913.31,-4.575313017878192e-06
3914.21,-4.583328970748013e-06
3915.11,-4.570245100391693e-06
3916.01,-4.579880135453725e-06
3916.91,-4.5423036328861415e-06
3917.81,-4.522050013904643e-06
3918.71,-4.499342197542564e-06
3919.61,-4.5004373999966604e-06
3920.51,-4.4698051779689875e-06
3921.41,-4.461240648014242e-06
3922.31,-4.46275114831392e-06
3923.21,-4.469769148836099e-06
3924.11,-4.472899190464068e-06
3925.01,-4.4477348059421765e-06
3925.91,-4.360116612900657e-06
3926.81,-4.269814180811094e-06
3927.71,-4.106716829510118e-06
3928.61,-3.919449545789261e-06
3929.51,-3.667130010154289e-06
3930.41,-3.372792805857605e-06
3931.31,-3.0749260160117e-06
3932.21,-2.7792598505086925e-06
3933.11,-2.5343163366703097e-06
3934.01,-2.3687182060747177e-06
3934.91,-2.360280280680511e-06
3935.81,-2.4713916693641695e-06
3936.71,-2.700867515493188e-06
3937.61,-3.0202809208826227e-06
3938.51,-3.3647492371791305e-06
3939.42,-3.6933841129564074e-06
3940.32,-3.9691041820083974e-06
3941.22,-4.18523230703942e-06
3942.12,-4.3464397076251075e-06
3943.02,-4.4629104988614755e-06
3943.92,-4.538967010062228e-06
3944.82,-4.62527907206066e-06
3945.72,-4.683261627581072e-06
3946.62,-4.75307760618412e-06
3947.52,-4.825343254410147e-06
3948.42,-4.8502510249619475e-06
3949.32,-4.909072669406701e-06
3950.22,-4.9426708273873815e-06
3951.12,-4.958871736429171e-06
3952.02,-4.966188879938539e-06
3952.92,-4.9834488731141065e-06
3953.82,-4.996518006206104e-06
3954.72,-4.985303112444973e-06
3955.62,-4.946162108375099e-06
3956.52,-4.931375577345535e-06
3957.42,-4.834073632090356e-06
3958.32,-4.784341740378501e-06
3959.22,-4.714552698038234e-06
3960.12,-4.607669930869225e-06
3961.02,-4.4803629974985024e-06
3961.92,-4.278972119129801e-06
3962.82,-4.059281955153744e-06
3963.72,-3.804734162878117e-06
3964.62,-3.5318436312432117e-06
3965.52,-3.2255775169273887e-06
3966.42,-2.8923278123961005e-06
3967.32,-2.5710296911238212e-06
3968.22,-2.2890997874566003e-06
3969.12,-2.1074725094809795e-06
3970.02,-2.021111320227045e-06
3970.92,-2.07853128361238e-06
3971.82,-2.2511503093696695e-06
3972.72,-2.5232515211805047e-06
3973.62,-2.862932146560337e-06
3974.52,-3.212416676242312e-06
3975.42,-3.537124687767627e-06
3976.32,-3.912184382364296e-06
3977.22,-4.203442535431663e-06
3978.13,-4.453863222302479e-06
3979.03,-4.710435366880395e-06
3979.93,-4.916027776460671e-06
3980.83,-5.082697196849578e-06
3981.73,-5.219093311037072e-06
3982.63,-5.320996903818625e-06
3983.53,-5.414418754185717e-06
3984.43,-5.4774074320123634e-06
3985.33,-5.597243867189127e-06
3986.23,-5.678779225948846e-06
3987.13,-5.780437607447308e-06
3988.03,-5.907685873816921e-06
3988.93,-5.985900292677088e-06
3989.83,-6.08256954515144e-06
3990.73,-6.1579932570766605e-06
3991.63,-6.220446896879777e-06
3992.53,-6.317142699682651e-06
3993.43,-6.362458094580631e-06
3994.33,-6.390638456562007e-06
3995.23,-6.380364256921288e-06
3996.13,-6.36497665270268e-06
3997.03,-6.385755157983412e-06
3997.93,-6.365152045526206e-06
3998.83,-6.422502236137346e-06
3999.73,-6.486482821189197e-06
4000.63,-6.586326633830706e-06
4001.53,-6.680386562430858e-06
4002.43,-6.734142995189901e-06
4003.33,-6.766415985017143e-06
4004.23,-6.759658771795203e-06
4005.13,-6.741847145240733e-06
4006.03,-6.732266100825734e-06
4006.93,-6.706355771611522e-06
4007.83,-6.770635990854613e-06
4008.73,-6.862021245554797e-06
4009.63,-6.949347781721577e-06
4010.53,-7.059499133018821e-06
4011.43,-7.114295290989437e-06
4012.33,-7.174666780889756e-06
4013.23,-7.228068628527109e-06
4014.13,-7.240511424696889e-06
4015.03,-7.294339869724054e-06
4015.93,-7.35045727710246e-06
4016.84,-7.369526151983863e-06
4017.74,-7.414664274464992e-06
4018.64,-7.432992771430494e-06
4019.54,-7.488664347072463e-06
4020.44,-7.537825501772484e-06
4021.34,-7.587235974500847e-06
4022.24,-7.5882936015997085e-06
4023.14,-7.630496256990242e-06
4024.04,-7.603318375134124e-06
4024.94,-7.64708893624452e-06
4025.84,-7.713955429157103e-06
4026.74,-7.708839886375195e-06
4027.64,-7.75247301901211e-06
4028.54,-7.77881610983561e-06
4029.44,-7.72940580719205e-06
4030.34,-7.654946658344182e-06
4031.24,-7.570042632251319e-06
4032.14,-7.507925605759275e-06
4033.04,-7.467395554025927e-06
4033.94,-7.511472966004368e-06
4034.84,-7.607323992405799e-06
4035.74,-7.736771747940801e-06
4036.64,-7.901580823580303e-06
4037.54,-8.029789439356316e-06
4038.44,-8.161657945180553e-06
4039.34,-8.233181110354082e-06
4040.24,-8.264211075914438e-06
4041.14,-8.255817525373454e-06
4042.04,-8.206147029016524e-06
4042.94,-8.121433157307437e-06
4043.84,-8.035356414342223e-06
4044.74,-7.911549815891618e-06
4045.64,-7.85162730960065e-06
4046.54,-7.833064349040503e-06
4047.44,-7.886234437246631e-06
4048.34,-8.011837736805739e-06
4049.24,-8.182678127594787e-06
4050.14,-8.322026017974033e-06
4051.04,-8.38478778898164e-06
4051.94,-8.42199238676771e-06
4052.84,-8.446375847691418e-06
4053.74,-8.412591215025002e-06
4054.65,-8.384195372128289e-06
4055.55,-8.332858125329571e-06
4056.45,-8.32290567413084e-06
4057.35,-8.32290710002241e-06
4058.25,-8.325948764318376e-06
4059.15,-8.384429143546541e-06
4060.05,-8.428316455724606e-06
4060.95,-8.451958844655353e-06
4061.85,-8.463838953226163e-06
4062.75,-8.413950969021913e-06
4063.65,-8.38352068169375e-06
4064.55,-8.356001890830717e-06
4065.45,-8.333823405694637e-06
4066.35,-8.416528681415856e-06
4067.25,-8.436912231485009e-06
4068.15,-8.543766829187896e-06
4069.05,-8.592906239344635e-06
4069.95,-8.722770028816051e-06
4070.85,-8.710677302500138e-06
4071.75,-8.738520357574531e-06
4072.65,-8.660558985184187e-06
4073.55,-8.682492836992088e-06
4074.45,-8.610280914200009e-06
4075.35,-8.54331597863716e-06
4076.25,-8.48331587507284e-06
4077.15,-8.416997920027476e-06
4078.05,-8.348823158254757e-06
4078.95,-8.34850574105337e-06
4079.85,-8.423547960473027e-06
4080.75,-8.492411850088778e-06
4081.65,-8.636743423564467e-06
4082.55,-8.714698348004378e-06
4083.45,-8.789671932218489e-06
4084.35,-8.805074403319927e-06
4085.25,-8.801581118244675e-06
4086.15,-8.791080741825197e-06
4087.05,-8.884286961901493e-06
4087.95,-8.886850542416705e-06
4088.85,-8.956433411788479e-06
4089.75,-8.979190893838288e-06
4090.65,-8.922203615129906e-06
4091.55,-8.917550196923826e-06
4092.45,-8.776286381762438e-06
4093.36,-8.67550911538115e-06
4094.26,-8.510812384897258e-06
4095.16,-8.303111813906136e-06
4096.06,-8.051892850423777e-06
4096.96,-7.819387686267974e-06
4097.86,-7.473294698087223e-06
4098.76,-7.149579042610863e-06
4099.66,-6.780015617540893e-06
4100.56,-6.4742372369385055e-06
4101.46,-6.195377493277086e-06
4102.36,-6.0451020770493276e-06
4103.26,-6.097029771927494e-06
4104.16,-6.247072250103932e-06
4105.06,-6.591591323919472e-06
4105.96,-6.934367664441414e-06
4106.86,-7.3617061467423535e-06
4107.76,-7.702792863292673e-06
4108.66,-8.005594613391028e-06
4109.56,-8.263507432581561e-06
4110.46,-8.507123857816263e-06
4111.36,-8.695001358128818e-06
4112.26,-8.891281430201644e-06
4113.16,-9.13065287322007e-06
4114.06,-9.352607724881572e-06
4114.96,-9.561762581492308e-06
4115.86,-9.694418207402369e-06
4116.76,-9.767672475073936e-06
4117.66,-9.87526191961043e-06
4118.56,-9.919273282687623e-06
4119.46,-9.93615338558549e-06
4120.36,-1.000789916463467e-05
4121.26,-1.0016154013118036e-05
4122.16,-1.0108182531089333e-05
4123.06,-1.0183915474212156e-05
4123.96,-1.0295800696712232e-05
4124.86,-1.0378460083956447e-05
4125.76,-1.0436591102140072e-05
4126.66,-1.0526102876953918e-05
4127.56,-1.0568824186826546e-05
4128.46,-1.0558218548622468e-05
4129.36,-1.0547436747740659e-05
4130.26,-1.0546642995202239e-05
4131.17,-1.0512475878600953e-05
4132.06,-1.0523233205388745e-05
4132.97,-1.0519351026612207e-05
4133.87,-1.0622107891117065e-05
4134.77,-1.0712018001214623e-05
4135.67,-1.0908259679560505e-05
4136.57,-1.1075541763208051e-05
4137.47,-1.1209384286637573e-05
4138.37,-1.1447795103775345e-05
4139.27,-1.1518394332921174e-05
4140.17,-1.162629689718131e-05
4141.07,-1.1603516638121446e-05
4141.97,-1.1546463725140279e-05
4142.87,-1.1470780084082581e-05
4143.77,-1.136343897448228e-05
4144.67,-1.1365815034658323e-05
4145.57,-1.1404715954506797e-05
4146.47,-1.1517265187686809e-05
4147.37,-1.165107695329205e-05
4148.27,-1.1683395123662121e-05
4149.17,-1.1811911522775872e-05
4150.07,-1.1873257145753026e-05
4150.97,-1.1883228925397383e-05
4151.87,-1.1892045968376941e-05
4152.77,-1.1854307251820934e-05
4153.67,-1.1921720104091163e-05
4154.57,-1.1864632612897863e-05
4155.47,-1.1869668063376188e-05
4156.37,-1.1937470128405367e-05
4157.27,-1.206080394008721e-05
4158.17,-1.2136271556402541e-05
4159.07,-1.2313063502859986e-05
4159.97,-1.2411297033267088e-05
4160.87,-1.2538629175700703e-05
4161.77,-1.266442232057048e-05
4162.67,-1.2698976510037268e-05
4163.57,-1.2809785659476007e-05
4164.47,-1.2848295194177255e-05
4165.37,-1.2898557014838987e-05
4166.27,-1.2940874731130414e-05
4167.17,-1.2902638417869447e-05
4168.07,-1.2876916147026492e-05
4168.98,-1.2925587479924184e-05
4169.88,-1.2799024752202297e-05
4170.78,-1.2740245951711605e-05
4171.68,-1.2616653308361376e-05
4172.58,-1.244429494584967e-05
4173.48,-1.2403645480034909e-05
4174.38,-1.2354165510528355e-05
4175.28,-1.23669707944449e-05
4176.18,-1.2486312697247245e-05
4177.08,-1.2535869588018681e-05
4177.98,-1.2731986607413675e-05
4178.88,-1.281552787844985e-05
4179.78,-1.2905659454372651e-05
4180.68,-1.3041883002287488e-05
4181.58,-1.31776862419358e-05
4182.48,-1.327459095223074e-05
4183.38,-1.3367053838265903e-05
4184.28,-1.336380086248968e-05
4185.18,-1.3487041546288518e-05
4186.08,-1.3512848303069798e-05
4186.98,-1.351975180212492e-05
4187.88,-1.3593725507152754e-05
4188.78,-1.3613392971700231e-05
4189.68,-1.3765774203807435e-05
4190.58,-1.382559567613675e-05
4191.48,-1.3908823891888466e-05
4192.38,-1.399893873009434e-05
4193.28,-1.4156836112948398e-05
4194.18,-1.415465520258669e-05
4195.08,-1.4227899079392614e-05
4195.98,-1.4182492496757539e-05
4196.88,-1.4011930405088864e-05
4197.78,-1.3883479984003289e-05
4198.68,-1.3834600880328774e-05
4199.58,-1.3859507314987447e-05
4200.48,-1.3831198945013692e-05
4201.38,-1.3863988343435407e-05
4202.28,-1.3892840051369097e-05
4203.18,-1.4030710663514838e-05
4204.08,-1.4207206727788372e-05
4204.98,-1.438480083684597e-05
4205.88,-1.4496881396557202e-05
4206.79,-1.4657929475837694e-05
4207.69,-1.479200443689323e-05
4208.59,-1.498595833125153e-05
4209.49,-1.5124590318532791e-05
4210.39,-1.5179628441756259e-05
4211.29,-1.5333497213943155e-05
4212.19,-1.5390735077131126e-05
4213.09,-1.529016506572643e-05
4213.99,-1.535995664280992e-05
4214.89,-1.5261043900151413e-05
4215.79,-1.519518787076438e-05
4216.69,-1.5209561366599015e-05
4217.59,-1.5283668417594876e-05
4218.49,-1.5536737738097146e-05
4219.39,-1.5617944341413264e-05
4220.29,-1.5808925376062695e-05
4221.19,-1.5874014643582714e-05
4222.09,-1.5819104148937435e-05
4222.99,-1.5693812710372643e-05
4223.89,-1.5422944309304443e-05
4224.79,-1.5180729230460683e-05
4225.69,-1.4851343441082203e-05
4226.59,-1.4600432023107973e-05
4227.49,-1.4621042689679382e-05
4228.39,-1.4793360288567278e-05
4229.29,-1.5020589202553577e-05
4230.19,-1.542170181414355e-05
4231.09,-1.5816515697786095e-05
4231.99,-1.615520469278019e-05
4232.89,-1.6178453261370416e-05
4233.79,-1.6263940011300712e-05
4234.69,-1.6223390877902877e-05
4235.59,-1.6217541835650546e-05
4236.49,-1.6220678891203014e-05
4237.39,-1.6157426606759255e-05
4238.29,-1.6306861064915925e-05
4239.19,-1.6412202696720504e-05
4240.09,-1.6599086054737837e-05
4240.99,-1.6730881251639483e-05
4241.89,-1.6897944429661677e-05
4242.79,-1.7040844933710315e-05
4243.69,-1.7143519468955917e-05
4244.59,-1.7251501639045778e-05
4245.5,-1.7319400628695845e-05
4246.4,-1.726234303348281e-05
4247.3,-1.7174226476140442e-05
4248.2,-1.713192272127182e-05
4249.1,-1.70213174195567e-05
4250.0,-1.703446931821439e-05
4250.9,-1.7063784961681866e-05
4251.8,-1.7114336393048873e-05
4252.7,-1.726333533664757e-05
4253.6,-1.7455963715421994e-05
4254.5,-1.752276139928354e-05
4255.4,-1.770244332636764e-05
4256.3,-1.7751948036624227e-05
4257.2,-1.7859988933102126e-05
4258.1,-1.7849761965186044e-05
4259.0,-1.7884619358932878e-05
4259.9,-1.7838588550954196e-05
4260.8,-1.7822480191046485e-05
4261.7,-1.7884184090945413e-05
4262.6,-1.8058649905742875e-05
4263.5,-1.8391599151293406e-05
4264.4,-1.872162557427321e-05
4265.3,-1.8826348064074967e-05
4266.2,-1.900946619685744e-05
4267.1,-1.9070439291927465e-05
4268.0,-1.897306686729811e-05
4268.9,-1.8848525796293308e-05
4269.8,-1.855609074377394e-05
4270.7,-1.831062133147568e-05
4271.6,-1.8132097147349185e-05
4272.5,-1.789525506758921e-05
4273.4,-1.7920096354636348e-05
4274.3,-1.7986033907031686e-05
