wave,flux
3700.85,0.05497208553676456
3701.75,0.054392122572893796
3702.65,0.05273595041880254
3703.55,0.05018393501349037
3704.45,0.04757759532787497
3705.35,0.04499952182553805
3706.25,0.04320719688141947
3707.15,0.04252704178962144
3708.05,0.042570271544032874
3708.96,0.04380557418530809
3709.86,0.04557750243802421
3710.76,0.04796575935785311
3711.66,0.05079421624913651
3712.56,0.05403679784675924
3713.46,0.057021927118977696
3714.36,0.05910279919771907
3715.26,0.06060749887849591
3716.16,0.0607340622757322
3717.06,0.059099487823335045
3717.96,0.056516068617914784
3718.86,0.05267092907005792
3719.76,0.048681472897806874
3720.66,0.0448286145560298
3721.56,0.042744963892297864
3722.46,0.042645443089748186
3723.36,0.044761882344380395
3724.26,0.047971196610674255
3725.16,0.05176295473773949
3726.06,0.054917661521089706
3726.96,0.056545875552867386
3727.86,0.057593725605450806
3728.76,0.0579038543125299
3729.66,0.057684818551151165
3730.56,0.056974953169157086
3731.46,0.05519878947554206
3732.36,0.05230709207836854
3733.26,0.048630709304290594
3734.16,0.044930606556535954
3735.06,0.04200624759536783
3735.96,0.04061975589051336
3736.86,0.04109649423669057
3737.76,0.04391652845666812
3738.66,0.04788689791097885
3739.56,0.0528703387582438
3740.46,0.05713499919940271
3741.36,0.060004476119282384
3742.26,0.06137760730079843
3743.16,0.060716057627721476
3744.06,0.05854096349043417
3744.96,0.05561048325139081
3745.86,0.05269690484248191
3746.76,0.05015275002104235
3747.67,0.04770101213166421
3748.57,0.046490881148391755
3749.47,0.04635915510452938
3750.37,0.04819310654941902
3751.27,0.05219534581859081
3752.17,0.05761338558727904
3753.07,0.06361050459583156
3753.97,0.06958723811536698
3754.87,0.07405895622603442
3755.77,0.075552333187146
3756.67,0.07555989268333457
3757.57,0.07367159409870438
3758.47,0.07071884057766065
3759.37,0.06878868494389266
3760.27,0.0680606536248547
3761.17,0.0689914069164064
3762.07,0.0704686904290066
3762.97,0.07260817542036424
3763.87,0.07431189198317023
3764.77,0.07533725167163338
3765.67,0.07606715913920628
3766.57,0.07647391311107431
3767.47,0.07684967370264331
3768.37,0.07745850125836086
3769.27,0.0783419286807799
3770.17,0.07966761511769534
3771.07,0.08190310402925158
3771.97,0.0847518772450577
3772.87,0.08824953597114152
3773.77,0.0919947059047315
3774.67,0.09441007731661355
3775.57,0.09696452768901402
3776.47,0.09950188546650128
3777.37,0.10149217294370029
3778.27,0.10320726356111858
3779.17,0.1061967400983387
3780.07,0.1089420704369626
3780.97,0.11147576970449886
3781.87,0.11416660142193863
3782.77,0.11601434841383947
3783.67,0.11575395299619574
3784.57,0.11575739066755553
3785.47,0.11397150235742011
3786.38,0.11056610317607035
3787.28,0.10661865305142058
3788.18,0.10404305031110644
3789.08,0.102365822959866
3789.98,0.10130100068997056
3790.88,0.10159672795942166
3791.78,0.10218677373364961
3792.68,0.10184852386915857
3793.58,0.1017255601719243
3794.48,0.10034190191349938
3795.38,0.09813087430833539
3796.28,0.09552818875935523
3797.18,0.09341327947545047
3798.08,0.09258449511993877
3798.98,0.09352322842701638
3799.88,0.09705942800363775
3800.78,0.10281599265339234
3801.68,0.11047771607141041
3802.58,0.11959384280727739
3803.48,0.12663673544972776
3804.38,0.13259655214999294
3805.28,0.13673531072202924
3806.18,0.13777276058079044
3807.08,0.13835348976837164
3807.98,0.1393327017741491
3808.88,0.1404250737046897
3809.78,0.1427395065007972
3810.68,0.14470815124106468
3811.58,0.1443054182142999
3812.48,0.14308271687245025
3813.38,0.1383681645350145
3814.28,0.13364678490507373
3815.18,0.1291396498077006
3816.08,0.12662124716863163
3816.98,0.12551687327017744
3817.88,0.12528972249904957
3818.78,0.12526419225840704
3819.68,0.12473659998359056
3820.58,0.12336829833810496
3821.48,0.12215886835847627
3822.38,0.12213849639043133
3823.28,0.12155736815306696
3824.18,0.11980104591176571
3825.09,0.11725378236502905
3825.99,0.11487525204528781
3826.89,0.11210305863542994
3827.79,0.11110759523682488
3828.69,0.11139571700887606
3829.59,0.1121945455814871
3830.49,0.11238418087638553
3831.39,0.11144350791793584
3832.29,0.10993736089506821
3833.19,0.10761599564275363
3834.09,0.1058718668884832
3834.99,0.10555909091663604
3835.89,0.10559552708643458
3836.79,0.10748691500442126
3837.69,0.11016543867089475
3838.59,0.11303158885178574
3839.49,0.11630261099035201
3840.39,0.1227222622824911
3841.29,0.13192557639342029
3842.19,0.14351054862751614
3843.09,0.1560833228564002
3843.99,0.16869862331666494
3844.89,0.18034505893473587
3845.79,0.18901748309470168
3846.69,0.19530563818060467
3847.59,0.19769435227591953
3848.49,0.20063178941539261
3849.39,0.20218250102308793
3850.29,0.20311788946206435
3851.19,0.20413527994413577
3852.09,0.2066897535174564
3852.99,0.20814490316317993
3853.89,0.20962679633593564
3854.79,0.20959031603950248
3855.69,0.20666397349004326
3856.59,0.20318999442365182
3857.49,0.19746515338443105
3858.39,0.1932869551220495
3859.29,0.18989852556059464
3860.19,0.18978167140536073
3861.09,0.19574461679631142
3861.99,0.20597301651658395
3862.9,0.21675770527276716
3863.8,0.22909176807592185
3864.7,0.23854530969381502
3865.6,0.24585581675853616
3866.5,0.24969864521239138
3867.4,0.2500049110004329
3868.3,0.25015239309317533
3869.2,0.24770948263390377
3870.1,0.24525397592070572
3871.0,0.24011529360898953
3871.9,0.23662009331548614
3872.8,0.23486385333223866
3873.7,0.23790547458904712
3874.6,0.24339915910993679
3875.5,0.24964014509987564
3876.4,0.25544154249682854
3877.3,0.25835117848755756
3878.2,0.25816494469907786
3879.1,0.2580292566179518
3880.0,0.2576768122522538
3880.9,0.2604006705251816
3881.8,0.2641490252431966
3882.7,0.26582388553946157
3883.6,0.2695499451928206
3884.5,0.2678608314861307
3885.4,0.2660430365307148
3886.3,0.2610922360911674
3887.2,0.2559947406781582
3888.1,0.252307790573456
3889.0,0.2545625950605656
3889.9,0.2625417053581043
3890.8,0.2752541292801688
3891.7,0.29037363508207875
3892.6,0.3072654889251282
3893.5,0.3223602418688286
3894.4,0.3335365780554231
3895.3,0.34155545321092295
3896.2,0.34781938792909983
3897.1,0.35433741519746864
3898.0,0.3603090475184855
3898.9,0.36550352706094535
3899.8,0.3709678550087231
3900.7,0.37439873759739034
3901.6,0.3776658892027365
3902.51,0.378743766580498
3903.41,0.3790079062781137
3904.31,0.37832652312660925
3905.21,0.38030902945096573
3906.11,0.38254695144017287
3907.01,0.3899504814321192
3907.91,0.40262772354552634
3908.81,0.41836528719710764
3909.71,0.43724494030099026
3910.61,0.4526944142212061
3911.51,0.46833310548734985
3912.41,0.4791778717385666
3913.31,0.48434818418987075
3914.21,0.4873024109288387
3915.11,0.4864251674580955
3916.01,0.482416104852746
3916.91,0.4796362079575327
3917.81,0.4725146268239503
3918.71,0.46485266822486093
3919.61,0.4567711149192004
3920.51,0.44432138462421766
3921.41,0.4382383983455891
3922.31,0.43139444341682714
3923.21,0.4294444051513127
3924.11,0.42647178077411757
3925.01,0.423265353160554
3925.91,0.41358384458796527
3926.81,0.3938445043873104
3927.71,0.36727057038624816
3928.61,0.33466217856660246
3929.51,0.2992599189812257
3930.41,0.26260743064149705
3931.31,0.2288408738042969
3932.21,0.19858720720962247
3933.11,0.1762108254987016
3934.01,0.16411928968375764
3934.91,0.1635608153238808
3935.81,0.17635800971976837
3936.71,0.2020358341931387
3937.61,0.23713868816771644
3938.51,0.27619807686690473
3939.42,0.31975388900979596
3940.32,0.36093107275069053
3941.22,0.39557199989606645
3942.12,0.42288363202596796
3943.02,0.4437179118776012
3943.92,0.46747057056650265
3944.82,0.48701664243241777
3945.72,0.5097800489695851
3946.62,0.5361010651483687
3947.52,0.5595847331529362
3948.42,0.5832389537486433
3949.32,0.6015857213792125
3950.22,0.6206605598456292
3951.12,0.6363487518689491
3952.02,0.6484657630974756
3952.92,0.6555501382607158
3953.82,0.6607728472575519
3954.72,0.6684985454065886
3955.62,0.6693300997956504
3956.52,0.6727001208199929
3957.42,0.6673742746102314
3958.32,0.6597477147926949
3959.22,0.6435711251427029
3960.12,0.6256856882738822
3961.02,0.5983083572251467
3961.92,0.564792093615253
3962.82,0.5253056847499694
3963.72,0.4800814825322163
3964.62,0.43614873075665794
3965.52,0.3941427019764101
3966.42,0.3491497809168907
3967.32,0.3055170453653943
3968.22,0.27177497911019965
3969.12,0.2533833729001761
3970.02,0.251905887311105
3970.92,0.26948174234617733
3971.82,0.30470107775791694
3972.72,0.35383192111203177
3973.62,0.4116330943323393
3974.52,0.46871106491328884
3975.42,0.5274193369642317
3976.32,0.5855947336670144
3977.22,0.6360685156225828
3978.13,0.6852231995302501
3979.03,0.7289338097018322
3979.93,0.7610631028091005
3980.83,0.7868406117182678
3981.73,0.8092866562390735
3982.63,0.8167710528263692
3983.53,0.827876435518191
3984.43,0.8366673896285074
3985.33,0.8486304377494295
3986.23,0.858199016786584
3987.13,0.870343365837927
3988.03,0.8867970855542423
3988.93,0.8993423139340958
3989.83,0.9109097197127827
3990.73,0.9248759899366734
3991.63,0.9319763754227246
3992.53,0.9391722950793795
3993.43,0.9407595977222053
3994.33,0.9405361779675357
3995.23,0.9359768457418163
3996.13,0.9302066658826958
3997.03,0.9213980198581708
3997.93,0.9223230365847469
3998.83,0.9263503117602394
3999.73,0.9397714963101914
4000.63,0.9567014613632355
4001.53,0.9702233621444332
4002.43,0.9797533072465056
4003.33,0.9784627736213605
4004.23,0.9745462424983841
4005.13,0.9577533042560842
4006.03,0.9456269916538981
4006.93,0.9438208801262405
4007.83,0.9490897962568057
4008.73,0.9561701123598676
4009.63,0.9778703740097182
4010.53,0.9977660853116104
4011.43,1.0071076145479505
4012.33,1.0174844300117871
4013.23,1.0285395250305607
4014.13,1.0270587296414284
4015.03,1.0340742942253986
4015.93,1.0357954785765038
4016.84,1.0332271725348896
4017.74,1.0359976019847306
4018.64,1.0394408799980648
4019.54,1.0358486570321284
4020.44,1.0384049294800424
4021.34,1.041925434891989
4022.24,1.0389828838832842
4023.14,1.039601453674263
4024.04,1.0414034294970747
4024.94,1.0431633170586276
4025.84,1.0471197042267975
4026.74,1.0542128184986193
4027.64,1.0604730243796203
4028.54,1.0554314776336253
4029.44,1.042988555268029
4030.34,1.0196817003876142
4031.24,0.9974987213223387
4032.14,0.9712461989153893
4033.04,0.9531241888246927
4033.94,0.9501303489942354
4034.84,0.9604536376862987
4035.74,0.9801189520839709
4036.64,1.0145258423633776
4037.54,1.0443443451150392
4038.44,1.062444378690481
4039.34,1.0819448994627514
4040.24,1.0818933399019344
4041.14,1.0735398830660399
4042.04,1.05948558508819
4042.94,1.0344184352275863
4043.84,0.9974220738563028
4044.74,0.9676240011549962
4045.64,0.9371186423292677
4046.54,0.9250697342918492
4047.44,0.930015119935739
4048.34,0.9485582803253045
4049.24,0.9803177305425311
4050.14,1.0143869288874134
4051.04,1.035162497628342
4051.94,1.0479598520764803
4052.84,1.0550812078266996
4053.74,1.0465394540583743
4054.65,1.0344197840014218
4055.55,1.0213849103050403
4056.45,1.0089265600686392
4057.35,1.0013894691133627
4058.25,0.998194837376921
4059.15,0.998267270816503
4060.05,0.997975855264999
4060.95,0.9949074696363395
4061.85,0.983888023187635
4062.75,0.968127214940595
4063.65,0.9511794312319365
4064.55,0.9366591637780183
4065.45,0.930293140612832
4066.35,0.9372249183982448
4067.25,0.9496530443631805
4068.15,0.9715895624069808
4069.05,0.986365461721013
4069.95,0.992306008943303
4070.85,0.9925305019356259
4071.75,0.994161484458378
4072.65,0.981091330894339
4073.55,0.976403073743378
4074.45,0.9688437402208707
4075.35,0.9620683760923332
4076.25,0.9505367030987262
4077.15,0.9339107466795987
4078.05,0.9279519969791326
4078.95,0.9292093649154507
4079.85,0.947732143801387
4080.75,0.965322105774119
4081.65,0.9889612278714641
4082.55,1.0025963953963
4083.45,1.0180976611372181
4084.35,1.0240403311956956
4085.25,1.0288661547946238
4086.15,1.0341080928024573
4087.05,1.0483122672244662
4087.95,1.0702106981050081
4088.85,1.085215519925127
4089.75,1.09611547766806
4090.65,1.1023653060142742
4091.55,1.1019667853425308
4092.45,1.0919579018426293
4093.36,1.0795424594411644
4094.26,1.0643956273094886
4095.16,1.0469287075714404
4096.06,1.0217626467165926
4096.96,0.995602231534393
4097.86,0.9662435727816542
4098.76,0.9387895393464031
4099.66,0.9055246376474936
4100.56,0.8723765928462431
4101.46,0.8435397504487475
4102.36,0.8305537906835738
4103.26,0.8352467203138418
4104.16,0.850585945823611
4105.06,0.8814271893666664
4105.96,0.9147145556686361
4106.86,0.9443443776197208
4107.76,0.9756679726575751
4108.66,0.9838229161099922
4109.56,0.992254831525339
4110.46,0.9987061108495944
4111.36,1.0061891872760136
4112.26,1.0093703172687292
4113.16,1.020965941315132
4114.06,1.029490219676075
4114.96,1.0375416701292974
4115.86,1.0530389914326388
4116.76,1.0465005662265674
4117.66,1.041003134731325
4118.56,1.0369539695972525
4119.46,1.0291720955392756
4120.36,1.0214765487159636
4121.26,1.01829408659116
4122.16,1.0171688004265753
4123.06,1.0178948082094048
4123.96,1.0224443516308888
4124.86,1.0272082364021007
4125.76,1.0251138949996759
4126.66,1.0262968801314178
4127.56,1.0232097689524313
4128.46,1.0146995375556953
4129.36,1.002128537646421
4130.26,0.9930401873918695
4131.17,0.979754392069476
4132.06,0.9641799677849286
4132.97,0.9521504283022214
4133.87,0.9548047161230299
4134.77,0.9585564311648328
4135.67,0.9725020277152252
4136.57,0.994262786395345
4137.47,1.0154890757260508
4138.37,1.033195497327526
4139.27,1.0412085328551994
4140.17,1.0390546090600623
4141.07,1.0316207286151613
4141.97,1.0082542992752175
4142.87,0.9837474932278493
4143.77,0.9642063171604781
4144.67,0.9481365985772549
4145.57,0.955828013937987
4146.47,0.9645489639671386
4147.37,0.9810861529941165
4148.27,0.9945829437534062
4149.17,1.0025273598465563
4150.07,1.0063442749131444
4150.97,1.0082724336841744
4151.87,1.0009112244740122
4152.77,0.9983129680870846
4153.67,0.9920578491569874
4154.57,0.9913133200221546
4155.47,0.9856202669721189
4156.37,0.9906027706545748
4157.27,0.991859874100306
4158.17,1.0042735254744606
4159.07,1.0167025861342511
4159.97,1.0309142088891265
4160.87,1.0475906164517081
4161.77,1.0537412945683966
4162.67,1.0577283863575093
4163.57,1.0656062783518427
4164.47,1.0641046556677654
4165.37,1.0617273650691632
4166.27,1.0545228923028478
4167.17,1.0486864072585025
4168.07,1.0357692424874014
4168.98,1.0233338556018883
4169.88,1.0134872522211045
4170.78,1.0032336568298963
4171.68,0.9865684827627601
4172.58,0.966897266795321
4173.48,0.9531601248382402
4174.38,0.9466603878691133
4175.28,0.9443987766812115
4176.18,0.9504123990087189
4177.08,0.9582147986677428
4177.98,0.9754680236847216
4178.88,0.9847355640266545
4179.78,0.9947012677696623
4180.68,1.0013940612415613
4181.58,1.0059744911250317
4182.48,1.0133059568199394
4183.38,1.0100910976803243
4184.28,1.0136009391827427
4185.18,1.0130703680918733
4186.08,1.010279261875267
4186.98,1.003850929858592
4187.88,0.9990705452857834
4188.78,0.9976585823337119
4189.68,0.9983123110730315
4190.58,1.0055072554117517
4191.48,1.0156721261600241
4192.38,1.0315656760023164
4193.28,1.0355585461435803
4194.18,1.0379733145854453
4195.08,1.0326697317686593
4195.98,1.02301756636064
4196.88,1.0095628518970383
4197.78,0.9853929264809259
4198.68,0.9703913518950067
4199.58,0.9575894146661266
4200.48,0.9493409030193519
4201.38,0.9495272231050419
4202.28,0.9544916348779208
4203.18,0.9589766439046856
4204.08,0.9783655225334164
4204.98,0.9901477572541432
4205.88,1.0091558887382859
4206.79,1.0259677309867503
4207.69,1.0459843231269395
4208.59,1.0556007321804268
4209.49,1.0681448119055719
4210.39,1.0755550813679757
4211.29,1.0719100599396265
4212.19,1.0654067751894891
4213.09,1.0630040554874551
4213.99,1.0551628071223176
4214.89,1.0406900516554967
4215.79,1.0332448601013653
4216.69,1.0294180173914997
4217.59,1.0308903346884744
4218.49,1.039135490364529
4219.39,1.0531847312834206
4220.29,1.0654964113042233
4221.19,1.067884774298946
4222.09,1.0537586143253888
4222.99,1.0319149461845711
4223.89,0.9932382592807449
4224.79,0.9477960107326135
4225.69,0.9032894621811667
4226.59,0.8707311279999161
4227.49,0.8573636319838058
4228.39,0.8654587519378341
4229.29,0.8949034341242225
4230.19,0.9325176770518033
4231.09,0.9737427006421324
4231.99,1.0080354217109735
4232.89,1.022444417380695
4233.79,1.037140224376814
4234.69,1.0264987097368974
4235.59,1.0200670306464317
4236.49,1.0123556490299037
4237.39,1.008506797873066
4238.29,1.0071155170910864
4239.19,1.0138967382874795
4240.09,1.025190304078009
4240.99,1.0400827092844498
4241.89,1.0558243402163447
4242.79,1.0693782634967826
4243.69,1.0820843360559187
4244.59,1.0873687372122334
4245.5,1.0832483818264924
4246.4,1.0748698115144557
4247.3,1.0598985236864875
4248.2,1.0454745743731093
4249.1,1.0255837053677477
4250.0,1.015866096946677
4250.9,1.004221342766261
4251.8,1.0041756589828152
4252.7,1.0040488350010177
4253.6,1.0140433115934921
4254.5,1.0199210198219975
4255.4,1.0253651040608904
4256.3,1.030090855543952
4257.2,1.0292762531684556
4258.1,1.0283788629221577
4259.0,1.022930209336556
4259.9,1.017893634446893
4260.8,1.0107867449213246
4261.7,1.0191340892255618
4262.6,1.0305939227601275
4263.5,1.049281964921101
4264.4,1.069947898762216
4265.3,1.089894003445236
4266.2,1.097903669082105
4267.1,1.0951811810960852
4268.0,1.085771691620203
4268.9,1.060730181509526
4269.8,1.0373781867958234
4270.7,0.9939936601166787
4271.6,0.9623105626998013
4272.5,0.941690022092688
4273.4,0.9265953457094132
4274.3,0.9278857257043368
4275.2,0.9376089157024526
4276.1,0.9681812296241443
4277.0,0.992916071582516
4277.9,1.0177733701999234
4278.8,1.0383541581188296
4279.7,1.0526721938951151
4280.6,1.0504477688565026
4281.5,1.045585026159772
4282.4,1.038369981342335
4283.31,1.0326994557851097
4284.21,1.026452230791168
4285.11,1.0201926352140636
4286.01,0.9995427985654163
4286.91,0.9852620358793662
4287.81,0.9694170720528165
4288.71,0.9529297385268228
4289.61,0.9373579847303876
4290.51,0.9287131178248924
4291.41,0.9322918294068084
4292.31,0.9369850992667006
4293.21,0.9446991552878589
4294.11,0.9535232435092046
4295.01,0.960773549082705
4295.91,0.9520544837077524
4296.81,0.9326771736929043
4297.71,0.9060398662251212
4298.61,0.8765935520252256
4299.51,0.8390601238889407
4300.41,0.806830389563755
4301.31,0.7861615399345804
4302.21,0.7733796218244381
4303.11,0.7685433378665785
4304.01,0.767213956177757
4304.91,0.7684026944635397
4305.81,0.7645950870927131
4306.71,0.7594479683571566
4307.61,0.7520520600475757
4308.51,0.7438833689643384
4309.41,0.7415946465394149
4310.31,0.7504932542417078
4311.21,0.7681791395244246
4312.11,0.7986173138680739
4313.01,0.8412923114458778
4313.91,0.8910826966392084
4314.81,0.9419749095007999
4315.71,1.007899828767661
4316.61,1.0665410496141219
4317.51,1.111303218801225
4318.41,1.1534776040547972
4319.31,1.1673670964244245
4320.21,1.1692092403775243
4321.12,1.151047526897961
4322.02,1.117456549595953
4322.92,1.0818981702517472
4323.82,1.0364226797465133
4324.72,0.9968860753908944
4325.62,0.9723208708723176
4326.52,0.9679323374446226
4327.42,0.9776004890457858
4328.32,1.0053498914982923
4329.22,1.0414972027092053
4330.12,1.0798307385664123
4331.02,1.1034493194986688
4331.92,1.1255664259040943
4332.82,1.1392635274238592
4333.72,1.1347054129116083
4334.62,1.1349979210430825
4335.52,1.1190804560990464
4336.42,1.0840678070725944
4337.32,1.0460451797995305
4338.22,0.9975304689265271
4339.12,0.95631928849246
4340.02,0.9164759510393278
4340.92,0.8965339568622449
4341.82,0.8937843479600649
4342.72,0.9100671340589184
4343.62,0.9436947581983071
4344.52,0.9759509568028125
4345.42,1.0150093188333758
4346.32,1.0463456686214954
4347.22,1.0666175275691405
4348.12,1.081110627747708
4349.02,1.0897782169115744
4349.92,1.0828407065044234
4350.82,1.0656502301754998
4351.72,1.0527751788795003
4352.62,1.0349043400241955
4353.52,1.0298920940182075
4354.42,1.0280169714240859
4355.32,1.0317997024833079
4356.22,1.0490722680527345
4357.12,1.0544604252512106
4358.02,1.0646039139961172
4358.92,1.0778273451920455
4359.83,1.0834437970424033
4360.73,1.0881248025827832
4361.63,1.0997838388967671
4362.53,1.1073145186105797
4363.43,1.1171863848414967
4364.33,1.1266283282950376
