wave,flux
3700.85,-3.2169615017352564e-07
3701.75,-3.1503557077991217e-07
3702.65,-3.0383997955740086e-07
3703.55,-2.872053025761984e-07
3704.45,-2.679632183540241e-07
3705.35,-2.514271627086465e-07
3706.25,-2.3685153762245304e-07
3707.15,-2.3058489749712487e-07
3708.05,-2.296033502476404e-07
3708.96,-2.35230980415411e-07
3709.86,-2.464139695746522e-07
3710.76,-2.6074784038679596e-07
3711.66,-2.7947637107267953e-07
3712.56,-2.9822840737645086e-07
3713.46,-3.13916077360272e-07
3714.36,-3.2681300270455844e-07
3715.26,-3.310641475141256e-07
3716.16,-3.279363818966568e-07
3717.06,-3.1594553055000285e-07
3717.96,-2.9529801832990103e-07
3718.86,-2.7048688643585453e-07
3719.76,-2.4550248159005694e-07
3720.66,-2.2315887919190734e-07
3721.56,-2.0969671454508e-07
3722.46,-2.0984794754412426e-07
3723.36,-2.2051723405304442e-07
3724.26,-2.384361119858352e-07
3725.16,-2.570434546469178e-07
3726.06,-2.714705623567213e-07
3726.96,-2.7946614763588616e-07
3727.86,-2.8272303751896024e-07
3728.76,-2.834823314107456e-07
3729.66,-2.8030641115453333e-07
3730.56,-2.7390673524158196e-07
3731.46,-2.632448420649442e-07
3732.36,-2.4672309290778747e-07
3733.26,-2.262279839524562e-07
3734.16,-2.0578558585739377e-07
3735.06,-1.8844655664817547e-07
3735.96,-1.799989908447937e-07
3736.86,-1.8061563638541665e-07
3737.76,-1.927762042527363e-07
3738.66,-2.1201809817801604e-07
3739.56,-2.3392003418425747e-07
3740.46,-2.540366457731233e-07
3741.36,-2.6747680942981525e-07
3742.26,-2.7212277169728533e-07
3743.16,-2.640639293027987e-07
3744.06,-2.5183762006762696e-07
3744.96,-2.3564328760130442e-07
3745.86,-2.1996016359741398e-07
3746.76,-2.0638671779812475e-07
3747.67,-1.951900289947213e-07
3748.57,-1.894411840949241e-07
3749.47,-1.9032213188506923e-07
3750.37,-1.990214758863678e-07
3751.27,-2.1797088766731762e-07
3752.17,-2.4068072145600657e-07
3753.07,-2.6618241957591015e-07
3753.97,-2.9101125567615274e-07
3754.87,-3.064220639373369e-07
3755.77,-3.125123954548686e-07
3756.67,-3.075425605393883e-07
3757.57,-2.9499629374121575e-07
3758.47,-2.80452495953941e-07
3759.37,-2.680356936693097e-07
3760.27,-2.628758287710908e-07
3761.17,-2.643196722896628e-07
3762.07,-2.698366998455003e-07
3762.97,-2.7457500433451565e-07
3763.87,-2.773697288360438e-07
3764.77,-2.7957289999439793e-07
3765.67,-2.828299856926861e-07
3766.57,-2.8263569919401725e-07
3767.47,-2.8488363843019555e-07
3768.37,-2.8867756790952675e-07
3769.27,-2.934176787606397e-07
3770.17,-3.0064386335959334e-07
3771.07,-3.0970594108876967e-07
3771.97,-3.196129304188525e-07
3772.87,-3.2926862770588484e-07
3773.77,-3.3880514449785983e-07
3774.67,-3.46591797345494e-07
3775.57,-3.516408163337168e-07
3776.47,-3.553016870254008e-07
3777.37,-3.5774776139952693e-07
3778.27,-3.6264358700304197e-07
3779.17,-3.69571479384489e-07
3780.07,-3.769253498967675e-07
3780.97,-3.825913355004877e-07
3781.87,-3.8773648307771104e-07
3782.77,-3.92318199257299e-07
3783.67,-3.906523606849415e-07
3784.57,-3.8422123269391777e-07
3785.47,-3.7230867981195514e-07
3786.38,-3.566575613101079e-07
3787.28,-3.4178119635883336e-07
3788.18,-3.264061366291475e-07
3789.08,-3.150028491541436e-07
3789.98,-3.090954278263687e-07
3790.88,-3.0893368853650287e-07
3791.78,-3.081896642777231e-07
3792.68,-3.0807540095075735e-07
3793.58,-3.0457459263731825e-07
3794.48,-2.977582629262986e-07
3795.38,-2.900224741234119e-07
3796.28,-2.81525850826269e-07
3797.18,-2.744920140158138e-07
3798.08,-2.7016107281594366e-07
3798.98,-2.7094869488108367e-07
3799.88,-2.790649992242682e-07
3800.78,-2.945104344714294e-07
3801.68,-3.1515485073625266e-07
3802.58,-3.3552061264890207e-07
3803.48,-3.554140709039832e-07
3804.38,-3.6646186840695334e-07
3805.28,-3.728720892278709e-07
3806.18,-3.758891016544337e-07
3807.08,-3.7122702791417067e-07
3807.98,-3.70179923124578e-07
3808.88,-3.716008619309679e-07
3809.78,-3.7341307634166376e-07
3810.68,-3.7443033203772477e-07
3811.58,-3.725596241798097e-07
3812.48,-3.598184434719723e-07
3813.38,-3.470557053021869e-07
3814.28,-3.2735887158955195e-07
3815.18,-3.118625222602159e-07
3816.08,-2.995897645883972e-07
3816.98,-2.926951178936249e-07
3817.88,-2.8905597161359614e-07
3818.78,-2.8466918653120653e-07
3819.68,-2.780228176546588e-07
3820.58,-2.73727902322104e-07
3821.48,-2.6942267439055646e-07
3822.38,-2.635538672176318e-07
3823.28,-2.592862769223431e-07
3824.18,-2.5404507854312045e-07
3825.09,-2.44424185822758e-07
3825.99,-2.3579462231560676e-07
3826.89,-2.2814161457017778e-07
3827.79,-2.232833968190668e-07
3828.69,-2.2141147694037524e-07
3829.59,-2.2264894324826877e-07
3830.49,-2.226966401870484e-07
3831.39,-2.2140713433499976e-07
3832.29,-2.1745013841587994e-07
3833.19,-2.127787369843624e-07
3834.09,-2.0891517380530435e-07
3834.99,-2.076199797709885e-07
3835.89,-2.085921559623277e-07
3836.79,-2.1037514755429167e-07
3837.69,-2.1174628906597832e-07
3838.59,-2.130897393545561e-07
3839.49,-2.1736667610522363e-07
3840.39,-2.2471038792231295e-07
3841.29,-2.4021060231176966e-07
3842.19,-2.6045320563452875e-07
3843.09,-2.8342288580497524e-07
3843.99,-3.075008284484447e-07
3844.89,-3.2650119954160073e-07
3845.79,-3.3926043555937714e-07
3846.69,-3.459247801536424e-07
3847.59,-3.504629699529566e-07
3848.49,-3.510431438400773e-07
3849.39,-3.48393493325133e-07
3850.29,-3.4564824822513477e-07
3851.19,-3.4393851584085766e-07
3852.09,-3.441821960917253e-07
3852.99,-3.4372954010912526e-07
3853.89,-3.4141136928030345e-07
3854.79,-3.3557413531390157e-07
3855.69,-3.293732957651941e-07
3856.59,-3.1584532506096726e-07
3857.49,-3.0481822522716287e-07
3858.39,-2.917053887831865e-07
3859.29,-2.8417064639711313e-07
3860.19,-2.804534247250771e-07
3861.09,-2.871780080572419e-07
3861.99,-3.0164806318571443e-07
3862.9,-3.179472279890673e-07
3863.8,-3.348103712413022e-07
3864.7,-3.471564235093669e-07
3865.6,-3.543520142213166e-07
3866.5,-3.5479736957083606e-07
3867.4,-3.529320294873854e-07
3868.3,-3.4923522498643113e-07
3869.2,-3.404669670609936e-07
3870.1,-3.3209312164778533e-07
3871.0,-3.22405397252457e-07
3871.9,-3.148729875507745e-07
3872.8,-3.1008551284809213e-07
3873.7,-3.1324597354662475e-07
3874.6,-3.205197889148064e-07
3875.5,-3.292360050018167e-07
3876.4,-3.340499092968153e-07
3877.3,-3.3330666891589937e-07
3878.2,-3.3045691716924364e-07
3879.1,-3.252898805581223e-07
3880.0,-3.2284871423976464e-07
3880.9,-3.209571563529095e-07
3881.8,-3.2200046835365357e-07
3882.7,-3.237561614373751e-07
3883.6,-3.2497186847399967e-07
3884.5,-3.224953943359669e-07
3885.4,-3.1933249915610717e-07
3886.3,-3.1275212041853275e-07
3887.2,-3.054646307798793e-07
3888.1,-3.038775059717762e-07
3889.0,-3.0433184545400394e-07
3889.9,-3.1490977656681204e-07
3890.8,-3.3046262796590794e-07
3891.7,-3.4753183592702195e-07
3892.6,-3.649939789867097e-07
3893.5,-3.774258432495127e-07
3894.4,-3.8506872305926194e-07
3895.3,-3.899964625910551e-07
3896.2,-3.9319173173288633e-07
3897.1,-3.964036272740336e-07
3898.0,-3.973158603945006e-07
3898.9,-3.994771027536787e-07
3899.8,-4.0124419717674337e-07
3900.7,-3.994829576807781e-07
3901.6,-3.9942572605097574e-07
3902.51,-3.970382331869035e-07
3903.41,-3.9370420623306836e-07
3904.31,-3.8954498617767793e-07
3905.21,-3.841750504846511e-07
3906.11,-3.8579190045483215e-07
3907.01,-3.883661187872615e-07
3907.91,-4.005544745237941e-07
3908.81,-4.159524881630271e-07
3909.71,-4.3210844244526837e-07
3910.61,-4.4654443872259484e-07
3911.51,-4.5748444738674553e-07
3912.41,-4.6563528309209855e-07
3913.31,-4.6951740272364384e-07
3914.21,-4.6744578173690746e-07
3915.11,-4.6380843241027576e-07
3916.01,-4.5571324291141137e-07
3916.91,-4.485501459195912e-07
3917.81,-4.3841276095641844e-07
3918.71,-4.272525201465886e-07
3919.61,-4.099914052498199e-07
3920.51,-3.953287467420331e-07
3921.41,-3.8376744603524033e-07
3922.31,-3.7272101553963203e-07
3923.21,-3.6795619697484136e-07
3924.11,-3.6085513599214006e-07
3925.01,-3.540950358460434e-07
3925.91,-3.4296804672107715e-07
3926.81,-3.2449576788069247e-07
3927.71,-3.003418857973464e-07
3928.61,-2.705106786286477e-07
3929.51,-2.388244750870846e-07
3930.41,-2.0853552860381346e-07
3931.31,-1.8038668880086684e-07
3932.21,-1.568642715022829e-07
3933.11,-1.3937963833487482e-07
3934.01,-1.294154987846862e-07
3934.91,-1.298048699173377e-07
3935.81,-1.377808973905306e-07
3936.71,-1.5488695591874847e-07
3937.61,-1.799976202021481e-07
3938.51,-2.0886269224671068e-07
3939.42,-2.394067981775842e-07
3940.32,-2.666289691808927e-07
3941.22,-2.911771296288253e-07
3942.12,-3.0936967451989517e-07
3943.02,-3.2442732112844876e-07
3943.92,-3.3943529873906824e-07
3944.82,-3.528507596358788e-07
3945.72,-3.713757629541813e-07
3946.62,-3.893638926212256e-07
3947.52,-4.083259287328911e-07
3948.42,-4.249777651825749e-07
3949.32,-4.386364366848597e-07
3950.22,-4.5387124580996646e-07
3951.12,-4.6329578255420786e-07
3952.02,-4.7012624541920605e-07
3952.92,-4.743532019725334e-07
3953.82,-4.780948931737068e-07
3954.72,-4.803533749530207e-07
3955.62,-4.800338161671075e-07
3956.52,-4.7636384037606825e-07
3957.42,-4.682443443649285e-07
3958.32,-4.602637826039698e-07
3959.22,-4.4758124941350366e-07
3960.12,-4.302465960877085e-07
3961.02,-4.0663555438967704e-07
3961.92,-3.779427257865752e-07
3962.82,-3.483639337131223e-07
3963.72,-3.1677401227552006e-07
3964.62,-2.865566822335519e-07
3965.52,-2.548662507450248e-07
3966.42,-2.2636286959595356e-07
3967.32,-1.9913578365796879e-07
3968.22,-1.7738266464599962e-07
3969.12,-1.66123648356735e-07
3970.02,-1.6510498924466937e-07
3970.92,-1.7688059018052975e-07
3971.82,-1.994113068802241e-07
3972.72,-2.3011415235298358e-07
3973.62,-2.6590093903336144e-07
3974.52,-3.032014726327998e-07
3975.42,-3.421629742981057e-07
3976.32,-3.7923083798804006e-07
3977.22,-4.13107928465258e-07
3978.13,-4.4754750971647973e-07
3979.03,-4.770237782840611e-07
3979.93,-5.016297925865528e-07
3980.83,-5.160244973862829e-07
3981.73,-5.321171878705558e-07
3982.63,-5.372207961629893e-07
3983.53,-5.421237773689917e-07
3984.43,-5.468785529559932e-07
3985.33,-5.543593750613041e-07
3986.23,-5.620709957622397e-07
3987.13,-5.685733208319463e-07
3988.03,-5.784036364508953e-07
3988.93,-5.863848525187626e-07
3989.83,-5.949204856992144e-07
3990.73,-6.014920204272863e-07
3991.63,-6.088306021867223e-07
3992.53,-6.121007021406993e-07
3993.43,-6.139247986987487e-07
3994.33,-6.139742381859109e-07
3995.23,-6.069008318810977e-07
3996.13,-6.048874976592867e-07
3997.03,-5.984332744328866e-07
3997.93,-5.991109350462121e-07
3998.83,-6.029885618748572e-07
3999.73,-6.124665287073697e-07
4000.63,-6.219669737993754e-07
4001.53,-6.328504468119946e-07
4002.43,-6.384201357863427e-07
4003.33,-6.424206623053661e-07
4004.23,-6.316281485343759e-07
4005.13,-6.227224672536561e-07
4006.03,-6.115492787802234e-07
4006.93,-6.095031046663829e-07
4007.83,-6.136535812493741e-07
4008.73,-6.229793566741804e-07
4009.63,-6.361238827882699e-07
4010.53,-6.475370162646998e-07
4011.43,-6.561091666901799e-07
4012.33,-6.654195272367341e-07
4013.23,-6.754154932722001e-07
4014.13,-6.798990296895957e-07
4015.03,-6.800692395898796e-07
4015.93,-6.809605229533274e-07
4016.84,-6.828626924241792e-07
4017.74,-6.79807858848494e-07
4018.64,-6.825935794786046e-07
4019.54,-6.853853335037944e-07
4020.44,-6.857819753956741e-07
4021.34,-6.840541999362651e-07
4022.24,-6.890947337961049e-07
4023.14,-6.883739736964027e-07
4024.04,-6.904003086241355e-07
4024.94,-6.933859575248508e-07
4025.84,-6.984033013725974e-07
4026.74,-7.012918567077236e-07
4027.64,-7.063296441741726e-07
4028.54,-7.054503776174609e-07
4029.44,-6.947879126821614e-07
4030.34,-6.809285363439182e-07
4031.24,-6.60176745573796e-07
4032.14,-6.420397817683991e-07
4033.04,-6.309587766709139e-07
4033.94,-6.27699415428092e-07
4034.84,-6.377582032774391e-07
4035.74,-6.516046202423302e-07
4036.64,-6.769603282139339e-07
4037.54,-7.030067454874876e-07
4038.44,-7.23622196519515e-07
4039.34,-7.342019684720864e-07
4040.24,-7.381513383674218e-07
4041.14,-7.309647293557182e-07
4042.04,-7.211135590732966e-07
4042.94,-7.006405301141895e-07
4043.84,-6.765985626573383e-07
4044.74,-6.499559265155596e-07
4045.64,-6.31685868360714e-07
4046.54,-6.182891832406774e-07
4047.44,-6.242130513160399e-07
4048.34,-6.423349678210522e-07
4049.24,-6.699119064346257e-07
4050.14,-6.973238291190355e-07
4051.04,-7.156017047486085e-07
4051.94,-7.284431373008693e-07
4052.84,-7.319746972498552e-07
4053.74,-7.252848565662504e-07
4054.65,-7.188215125453156e-07
4055.55,-7.075846537625879e-07
4056.45,-7.027728940459901e-07
4057.35,-6.930724699450346e-07
4058.25,-6.940519224236758e-07
4059.15,-6.942673707372191e-07
4060.05,-6.938928535346421e-07
4060.95,-6.958190183139678e-07
4061.85,-6.916015503508769e-07
4062.75,-6.779623299357181e-07
4063.65,-6.633994038115201e-07
4064.55,-6.539019398041785e-07
4065.45,-6.545384612055839e-07
4066.35,-6.58804057751358e-07
4067.25,-6.739779450095798e-07
4068.15,-6.936610096868994e-07
4069.05,-7.033622144270122e-07
4069.95,-7.107554363471234e-07
4070.85,-7.137970259579605e-07
4071.75,-7.134294917989568e-07
4072.65,-7.088000308463369e-07
4073.55,-7.039778889335509e-07
4074.45,-7.00466153637264e-07
4075.35,-6.956197752451508e-07
4076.25,-6.902176908640704e-07
4077.15,-6.834729282415019e-07
4078.05,-6.791890082807249e-07
4078.95,-6.831859323710203e-07
4079.85,-6.964644633054102e-07
4080.75,-7.180885468467753e-07
4081.65,-7.362420365360277e-07
4082.55,-7.531626058324739e-07
4083.45,-7.636683493522795e-07
4084.35,-7.688328221476589e-07
4085.25,-7.72604874855939e-07
4086.15,-7.815209689190856e-07
4087.05,-7.965186473804895e-07
4087.95,-8.138820073082949e-07
4088.85,-8.272990123691446e-07
4089.75,-8.390896472121657e-07
4090.65,-8.489401305214418e-07
4091.55,-8.479112477344757e-07
4092.45,-8.400943078491512e-07
4093.36,-8.318977457119008e-07
4094.26,-8.194013648094035e-07
4095.16,-8.068725348649844e-07
4096.06,-7.873065645294604e-07
4096.96,-7.724073787876981e-07
4097.86,-7.510689302939582e-07
4098.76,-7.27684734531459e-07
4099.66,-7.041161570950415e-07
4100.56,-6.895946134282982e-07
4101.46,-6.682278088513478e-07
4102.36,-6.593760017508048e-07
4103.26,-6.630239362667913e-07
4104.16,-6.775261593707836e-07
4105.06,-7.010405140763639e-07
4105.96,-7.276301370482731e-07
4106.86,-7.512652327462148e-07
4107.76,-7.731317137981603e-07
4108.66,-7.862198780746242e-07
4109.56,-7.936548714284429e-07
4110.46,-7.940870239836631e-07
4111.36,-8.015487191081517e-07
4112.26,-8.033214820848462e-07
4113.16,-8.118274813183976e-07
4114.06,-8.214981787356846e-07
4114.96,-8.313832217700739e-07
4115.86,-8.396989626882757e-07
4116.76,-8.413346150970365e-07
4117.66,-8.381815306996601e-07
4118.56,-8.32908337308353e-07
4119.46,-8.311436113458379e-07
4120.36,-8.226393444427613e-07
4121.26,-8.207265892152344e-07
4122.16,-8.221513222310806e-07
4123.06,-8.267974750420437e-07
4123.96,-8.364821301295384e-07
4124.86,-8.416724282701865e-07
4125.76,-8.398309790082674e-07
4126.66,-8.387602300907571e-07
4127.56,-8.358716723852419e-07
4128.46,-8.265527409735703e-07
4129.36,-8.173389934061183e-07
4130.26,-8.072553709533278e-07
4131.17,-7.94747025022479e-07
4132.06,-7.812706750199114e-07
4132.97,-7.743093287526798e-07
4133.87,-7.72808898422509e-07
4134.77,-7.816444261832156e-07
4135.67,-7.982996089627559e-07
4136.57,-8.159803359472063e-07
4137.47,-8.391579046926844e-07
4138.37,-8.543680435050214e-07
4139.27,-8.652686998916944e-07
4140.17,-8.634678663763512e-07
4141.07,-8.54331692636132e-07
4141.97,-8.355842017579891e-07
4142.87,-8.112931772401603e-07
4143.77,-7.905185990388099e-07
4144.67,-7.885390453811897e-07
4145.57,-7.871515083164941e-07
4146.47,-7.966718097837625e-07
4147.37,-8.129443727011261e-07
4148.27,-8.277898076819132e-07
4149.17,-8.387312157613354e-07
4150.07,-8.394669571512119e-07
4150.97,-8.439534945523178e-07
4151.87,-8.421476937829082e-07
4152.77,-8.357038242701864e-07
4153.67,-8.320656909381871e-07
4154.57,-8.28417170129901e-07
4155.47,-8.315649524136928e-07
4156.37,-8.318855648555307e-07
4157.27,-8.408543100017451e-07
4158.17,-8.515362058334099e-07
4159.07,-8.632604062995708e-07
4159.97,-8.780656284013512e-07
4160.87,-8.916851970988086e-07
4161.77,-9.024145269674642e-07
4162.67,-9.143276260240104e-07
4163.57,-9.20066289457307e-07
4164.47,-9.138728507891321e-07
4165.37,-9.109430365305273e-07
4166.27,-9.058830034438605e-07
4167.17,-8.949157828475184e-07
4168.07,-8.885161964569566e-07
4168.98,-8.784704639287163e-07
4169.88,-8.701735935223576e-07
4170.78,-8.60407856922766e-07
4171.68,-8.463400606825962e-07
4172.58,-8.338922888908123e-07
4173.48,-8.189914402077345e-07
4174.38,-8.14020495830493e-07
4175.28,-8.100754949726549e-07
4176.18,-8.18474125537078e-07
4177.08,-8.261287961051455e-07
4177.98,-8.389515742973185e-07
4178.88,-8.483223766650785e-07
4179.78,-8.615533690179875e-07
4180.68,-8.690890312454333e-07
4181.58,-8.748243354330607e-07
4182.48,-8.783320765181938e-07
4183.38,-8.815671826590464e-07
4184.28,-8.84528587003642e-07
4185.18,-8.815202805866525e-07
4186.08,-8.785030413171829e-07
4186.98,-8.757588046676538e-07
4187.88,-8.730768992636002e-07
4188.78,-8.702455644841677e-07
4189.68,-8.728544647815743e-07
4190.58,-8.836879728496536e-07
4191.48,-8.952577390060751e-07
4192.38,-9.051513205985338e-07
4193.28,-9.131487912932773e-07
4194.18,-9.134026836148512e-07
4195.08,-9.149396353947798e-07
4195.98,-8.985567575291219e-07
4196.88,-8.80843342526214e-07
4197.78,-8.650874114675502e-07
4198.68,-8.500063554688581e-07
4199.58,-8.358899580526092e-07
4200.48,-8.314380244950421e-07
4201.38,-8.292042254767757e-07
4202.28,-8.347453533730227e-07
4203.18,-8.479473356920107e-07
4204.08,-8.621937752873326e-07
4204.98,-8.764759987035883e-07
4205.88,-9.006443197977834e-07
4206.79,-9.239446508510471e-07
4207.69,-9.377783556880462e-07
4208.59,-9.52446531867913e-07
4209.49,-9.645305028084226e-07
4210.39,-9.6767782634516e-07
4211.29,-9.655763867393969e-07
4212.19,-9.726043909720275e-07
4213.09,-9.59523576113864e-07
4213.99,-9.552010184105942e-07
4214.89,-9.455095547778715e-07
4215.79,-9.402732899827227e-07
4216.69,-9.355370870043007e-07
4217.59,-9.40363289404958e-07
4218.49,-9.492574352375427e-07
4219.39,-9.611275862876622e-07
4220.29,-9.739147426530959e-07
4221.19,-9.798476331259136e-07
4222.09,-9.650348366510687e-07
4222.99,-9.412734619351756e-07
4223.89,-9.006490271972986e-07
4224.79,-8.553026092541817e-07
4225.69,-8.090169084699428e-07
4226.59,-7.75071973497507e-07
4227.49,-7.607645065208697e-07
4228.39,-7.68116865231504e-07
4229.29,-8.044061383301646e-07
4230.19,-8.409391343248043e-07
4231.09,-8.846272231552708e-07
4231.99,-9.195531505716371e-07
4232.89,-9.361931911268721e-07
4233.79,-9.477476070753748e-07
4234.69,-9.419640709978167e-07
4235.59,-9.376006434479436e-07
4236.49,-9.311804569192372e-07
4237.39,-9.289114492576223e-07
4238.29,-9.248135309197525e-07
4239.19,-9.365882935884666e-07
4240.09,-9.497624618100762e-07
4240.99,-9.63198448904105e-07
4241.89,-9.789573899379257e-07
4242.79,-9.945270883147074e-07
4243.69,-1.0110542703221079e-06
4244.59,-1.0188907144678556e-06
4245.5,-1.0184005134214217e-06
4246.4,-1.0098282563944798e-06
4247.3,-1.0020780636497196e-06
4248.2,-9.806760117550258e-07
4249.1,-9.598332563490939e-07
4250.0,-9.447250697038947e-07
4250.9,-9.344464094489663e-07
4251.8,-9.344351800904754e-07
4252.7,-9.352752728223065e-07
4253.6,-9.397641902200753e-07
4254.5,-9.464396924767414e-07
4255.4,-9.577227867708837e-07
4256.3,-9.664628291971422e-07
4257.2,-9.66485825402804e-07
4258.1,-9.693982331800106e-07
4259.0,-9.659021279532919e-07
4259.9,-9.597321569661436e-07
4260.8,-9.532308478944086e-07
4261.7,-9.626545250485655e-07
4262.6,-9.697424268369337e-07
4263.5,-9.946443289887626e-07
4264.4,-1.0271801401189408e-06
4265.3,-1.047878301553817e-06
4266.2,-1.0560593737557948e-06
4267.1,-1.0584025430732572e-06
4268.0,-1.0463238337816117e-06
4268.9,-1.0162737790481413e-06
4269.8,-9.878119141258864e-07
4270.7,-9.458242044001472e-07
4271.6,-9.136849888324857e-07
4272.5,-8.828957664038116e-07
4273.4,-8.706399268390173e-07
4274.3,-8.760310705897679e-07
4275.2,-8.89446112681465e-07
4276.1,-9.219864841492376e-07
4277.0,-9.51559522525965e-07
4277.9,-9.835419204599637e-07
4278.8,-1.007715370823899e-06
