wave,flux
3700.85,-3.254689373108758e-07
3701.75,-3.189204415085314e-07
3702.65,-3.088723729955141e-07
3703.55,-2.9279853457815616e-07
3704.45,-2.738307095762032e-07
3705.35,-2.5702193209900934e-07
3706.25,-2.442206094367792e-07
3707.15,-2.373517562750505e-07
3708.05,-2.3686835655869565e-07
3708.96,-2.423618252438289e-07
3709.86,-2.5201993020167427e-07
3710.76,-2.6565405402607087e-07
3711.66,-2.8286575895009447e-07
3712.56,-3.010783641617209e-07
3713.46,-3.1823101597663236e-07
3714.36,-3.287404032911245e-07
3715.26,-3.345148533061659e-07
3716.16,-3.3123469756030015e-07
3717.06,-3.2133438018388025e-07
3717.96,-3.034074511071948e-07
3718.86,-2.788814313898766e-07
3719.76,-2.5545538103699264e-07
3720.66,-2.3491523390256184e-07
3721.56,-2.2261866350608446e-07
3722.46,-2.2184600665574616e-07
3723.36,-2.3088319029818163e-07
3724.26,-2.4693415388161553e-07
3725.16,-2.6355436080814756e-07
3726.06,-2.7941979206710744e-07
3726.96,-2.8776243250804624e-07
3727.86,-2.905184424424967e-07
3728.76,-2.8911842825804043e-07
3729.66,-2.8715312721797497e-07
3730.56,-2.7962891553232675e-07
3731.46,-2.6938917620667157e-07
3732.36,-2.5393487503114286e-07
3733.26,-2.3358685946654038e-07
3734.16,-2.1311692079130982e-07
3735.06,-1.9741760355333498e-07
3735.96,-1.9113003189241406e-07
3736.86,-1.9337695010285463e-07
3737.76,-2.0486629342356746e-07
3738.66,-2.2479387785078946e-07
3739.56,-2.475352517816199e-07
3740.46,-2.6720532559980563e-07
3741.36,-2.7991153539021477e-07
3742.26,-2.8253798080896895e-07
3743.16,-2.7626451831677957e-07
3744.06,-2.641120548288707e-07
3744.96,-2.4949720675703674e-07
3745.86,-2.339670398448769e-07
3746.76,-2.199846913758131e-07
3747.67,-2.0882501708600225e-07
3748.57,-2.0094306765044423e-07
3749.47,-1.9964134818288347e-07
3750.37,-2.0672311902689795e-07
3751.27,-2.2371596301169802e-07
3752.17,-2.4694950512159897e-07
3753.07,-2.7247850094575027e-07
3753.97,-2.963275375199559e-07
3754.87,-3.127386948628711e-07
3755.77,-3.2018619700231444e-07
3756.67,-3.1783981381507974e-07
3757.57,-3.0564161495382083e-07
3758.47,-2.9229828677976394e-07
3759.37,-2.802366412690295e-07
3760.27,-2.7437679183954555e-07
3761.17,-2.748131972598825e-07
3762.07,-2.8039677940846233e-07
3762.97,-2.8523590276571857e-07
3763.87,-2.896946896487024e-07
3764.77,-2.918138263415396e-07
3765.67,-2.924673483895268e-07
3766.57,-2.9049723933653694e-07
3767.47,-2.908308709268411e-07
3768.37,-2.911649655237616e-07
3769.27,-2.944287962369335e-07
3770.17,-2.992031102616077e-07
3771.07,-3.0670205225031247e-07
3771.97,-3.156752692232733e-07
3772.87,-3.2657294907476304e-07
3773.77,-3.3690118966975994e-07
3774.67,-3.473024290591606e-07
3775.57,-3.530372986241063e-07
3776.47,-3.5791549720062355e-07
3777.37,-3.623568677110544e-07
3778.27,-3.6805311421083337e-07
3779.17,-3.769031721679593e-07
3780.07,-3.8355199231590474e-07
3780.97,-3.9286432257526517e-07
3781.87,-3.9666931615763804e-07
3782.77,-4.0008196343468793e-07
3783.67,-4.009195316934231e-07
3784.57,-3.941275818419788e-07
3785.47,-3.8236871913782953e-07
3786.38,-3.6708975428524337e-07
3787.28,-3.5010769161724333e-07
3788.18,-3.3522959135994714e-07
3789.08,-3.225385414121954e-07
3789.98,-3.1679420937490524e-07
3790.88,-3.1536358804349756e-07
3791.78,-3.1494273469953026e-07
3792.68,-3.129479712593191e-07
3793.58,-3.078248109678949e-07
3794.48,-3.009352605420709e-07
3795.38,-2.915350771966947e-07
3796.28,-2.812464234562451e-07
3797.18,-2.7340826911558117e-07
3798.08,-2.6718630032264324e-07
3798.98,-2.6966925880315766e-07
3799.88,-2.7735456384143714e-07
3800.78,-2.9346404776269557e-07
3801.68,-3.126127690185175e-07
3802.58,-3.344772827247337e-07
3803.48,-3.529715039706186e-07
3804.38,-3.667189329308886e-07
3805.28,-3.7425936690050857e-07
3806.18,-3.76887408640546e-07
3807.08,-3.763171328476471e-07
3807.98,-3.7455516291605704e-07
3808.88,-3.756116782401982e-07
3809.78,-3.7996322734612384e-07
3810.68,-3.824813894924359e-07
3811.58,-3.811585859076563e-07
3812.48,-3.721565523993393e-07
3813.38,-3.583139792557139e-07
3814.28,-3.4086584942828356e-07
3815.18,-3.253089108648339e-07
3816.08,-3.147344274868494e-07
3816.98,-3.07563404089792e-07
3817.88,-3.0448900213972664e-07
3818.78,-3.020629136440338e-07
3819.68,-2.9634801268894565e-07
3820.58,-2.9153973689755367e-07
3821.48,-2.8682523302913423e-07
3822.38,-2.8262651796504724e-07
3823.28,-2.7928841984808924e-07
3824.18,-2.735647866584986e-07
3825.09,-2.6402257139224276e-07
3825.99,-2.563950896106909e-07
3826.89,-2.478614724271637e-07
3827.79,-2.434054199935016e-07
3828.69,-2.408677420416697e-07
3829.59,-2.4035626059455143e-07
3830.49,-2.4005905089708046e-07
3831.39,-2.3700915183819378e-07
3832.29,-2.319417124025226e-07
3833.19,-2.2414943522125111e-07
3834.09,-2.1861576720964834e-07
3834.99,-2.1528972155242796e-07
3835.89,-2.1605380353038907e-07
3836.79,-2.1663416282688673e-07
3837.69,-2.1912165920366807e-07
3838.59,-2.2276399635722845e-07
3839.49,-2.2864576122475027e-07
3840.39,-2.3866864119626235e-07
3841.29,-2.5186133135567013e-07
3842.19,-2.7292383322179263e-07
3843.09,-2.9590343636635924e-07
3843.99,-3.1427467094211093e-07
3844.89,-3.3173889882735706e-07
3845.79,-3.4620093831810384e-07
3846.69,-3.527814031352001e-07
3847.59,-3.58178736411734e-07
3848.49,-3.597169111683837e-07
3849.39,-3.577644586579655e-07
3850.29,-3.584031616745468e-07
3851.19,-3.5767498206678296e-07
3852.09,-3.5743775438679284e-07
3852.99,-3.5692533569857224e-07
3853.89,-3.553679779777147e-07
3854.79,-3.509752348397344e-07
3855.69,-3.440948821753489e-07
3856.59,-3.343875168589321e-07
3857.49,-3.2385694546477277e-07
3858.39,-3.143783339162661e-07
3859.29,-3.0598308251156216e-07
3860.19,-3.051252564415467e-07
3861.09,-3.1075059209154296e-07
3861.99,-3.2413068608160017e-07
3862.9,-3.3818535907163065e-07
3863.8,-3.5588441380744787e-07
3864.7,-3.655770029417185e-07
3865.6,-3.7172342096523413e-07
3866.5,-3.735295304976438e-07
3867.4,-3.7114762642964487e-07
3868.3,-3.6221266533952817e-07
3869.2,-3.5667363777533414e-07
3870.1,-3.4638155772913014e-07
3871.0,-3.3817062295303943e-07
3871.9,-3.3120490883424557e-07
3872.8,-3.2796555456421363e-07
3873.7,-3.322979407836532e-07
3874.6,-3.3996908561735997e-07
3875.5,-3.498328033171062e-07
3876.4,-3.5525160831518077e-07
3877.3,-3.5346352382138157e-07
3878.2,-3.5014020797405813e-07
3879.1,-3.4618431578905055e-07
3880.0,-3.4221866935826613e-07
3880.9,-3.3778812246372447e-07
3881.8,-3.397829551371095e-07
3882.7,-3.397007074724347e-07
3883.6,-3.3944660691185115e-07
3884.5,-3.3644781203623647e-07
3885.4,-3.2920662411419683e-07
3886.3,-3.2085925988177987e-07
3887.2,-3.150444379326523e-07
3888.1,-3.097036364349575e-07
3889.0,-3.09783599942104e-07
3889.9,-3.1849870825878055e-07
3890.8,-3.326520403954228e-07
3891.7,-3.5082030259306864e-07
3892.6,-3.7070679314740907e-07
3893.5,-3.867646831246528e-07
3894.4,-3.970691833180704e-07
3895.3,-4.035130716360981e-07
3896.2,-4.096235405793403e-07
3897.1,-4.1275500410283566e-07
3898.0,-4.153406772059637e-07
3898.9,-4.1950496344231443e-07
3899.8,-4.2099570573774125e-07
3900.7,-4.20591679272358e-07
3901.6,-4.2156013825524305e-07
3902.51,-4.2051655504975446e-07
3903.41,-4.1732534488242277e-07
3904.31,-4.1201376661350654e-07
3905.21,-4.076877159259932e-07
3906.11,-4.0873242705066564e-07
3907.01,-4.157265312167323e-07
3907.91,-4.248592357180858e-07
3908.81,-4.399453043456229e-07
3909.71,-4.558351378795765e-07
3910.61,-4.716440688875706e-07
3911.51,-4.831363142242298e-07
3912.41,-4.897625884628087e-07
3913.31,-4.921882704048553e-07
3914.21,-4.917953446482138e-07
3915.11,-4.885141786805173e-07
3916.01,-4.803083034709136e-07
3916.91,-4.7336500358095845e-07
3917.81,-4.6013246182152234e-07
3918.71,-4.5027664781388944e-07
3919.61,-4.353969817556508e-07
3920.51,-4.222496810283391e-07
3921.41,-4.1141121340356314e-07
3922.31,-4.027997784310456e-07
3923.21,-3.9738604545643237e-07
3924.11,-3.9358526835543187e-07
3925.01,-3.856739401257091e-07
3925.91,-3.7327500955508797e-07
3926.81,-3.5555624570351976e-07
3927.71,-3.2874595495016065e-07
3928.61,-2.979381121154858e-07
3929.51,-2.6543302529797664e-07
3930.41,-2.3243653174787877e-07
3931.31,-2.021003254233129e-07
3932.21,-1.7527133609182524e-07
3933.11,-1.5477574211090705e-07
3934.01,-1.4396903115282408e-07
3934.91,-1.4284952868831773e-07
3935.81,-1.528410472690723e-07
3936.71,-1.715395238682841e-07
3937.61,-1.9913272038322164e-07
3938.51,-2.307188618571169e-07
3939.42,-2.64413058828951e-07
3940.32,-2.948919212403604e-07
3941.22,-3.188867703111447e-07
3942.12,-3.3984783863817946e-07
3943.02,-3.5412553386447553e-07
3943.92,-3.6908664670991477e-07
3944.82,-3.822256771937951e-07
3945.72,-3.9958084880146304e-07
3946.62,-4.1499106693186683e-07
3947.52,-4.3488156945386584e-07
3948.42,-4.527350877427595e-07
3949.32,-4.6720477282596713e-07
3950.22,-4.78247129382385e-07
3951.12,-4.875045865191747e-07
3952.02,-4.950956908437292e-07
3952.92,-5.009517756863989e-07
3953.82,-5.032489541789988e-07
3954.72,-5.062099828176574e-07
3955.62,-5.042771126217284e-07
3956.52,-4.999172376954772e-07
3957.42,-4.939087950254069e-07
3958.32,-4.880744048407055e-07
3959.22,-4.7622789249897673e-07
3960.12,-4.585054785246162e-07
3961.02,-4.358667734221028e-07
3961.92,-4.083890297229389e-07
3962.82,-3.769111528453779e-07
3963.72,-3.4538832401852393e-07
3964.62,-3.1230703002887837e-07
3965.52,-2.799187416799405e-07
3966.42,-2.4867549664054166e-07
3967.32,-2.1951337708063762e-07
3968.22,-1.9538902922096874e-07
3969.12,-1.8146144313342458e-07
3970.02,-1.802018876852521e-07
3970.92,-1.913807520054892e-07
3971.82,-2.1382333079968288e-07
3972.72,-2.457544616576684e-07
3973.62,-2.8389376620706947e-07
3974.52,-3.2309208654976924e-07
3975.42,-3.613271349190748e-07
3976.32,-3.9923481282756654e-07
3977.22,-4.3584359768697177e-07
3978.13,-4.6817606028757505e-07
3979.03,-4.982789990669176e-07
3979.93,-5.214111482513952e-07
3980.83,-5.409267367784791e-07
3981.73,-5.549253114063574e-07
3982.63,-5.599986497652219e-07
3983.53,-5.630288363802449e-07
3984.43,-5.692660670436724e-07
3985.33,-5.760409655886673e-07
3986.23,-5.829626436338055e-07
3987.13,-5.945219114834188e-07
3988.03,-5.995783169560915e-07
3988.93,-6.111846642248866e-07
3989.83,-6.172591988999163e-07
3990.73,-6.261144581737101e-07
3991.63,-6.319238044311379e-07
3992.53,-6.34874153041161e-07
3993.43,-6.386573746444118e-07
3994.33,-6.390069759512755e-07
3995.23,-6.350156475552235e-07
3996.13,-6.2938808087644e-07
3997.03,-6.228158832062786e-07
3997.93,-6.255727109516737e-07
3998.83,-6.285020371349725e-07
3999.73,-6.393728470255315e-07
4000.63,-6.545423201642882e-07
4001.53,-6.67274905397305e-07
4002.43,-6.707685850913086e-07
4003.33,-6.687418445475932e-07
4004.23,-6.607718521454984e-07
4005.13,-6.497923652483911e-07
4006.03,-6.381126400780026e-07
4006.93,-6.372111206513714e-07
4007.83,-6.379584084214755e-07
4008.73,-6.458957598723636e-07
4009.63,-6.622661548398388e-07
4010.53,-6.746496892694083e-07
4011.43,-6.835397631593084e-07
4012.33,-6.931291875719764e-07
4013.23,-6.996850493755256e-07
4014.13,-7.069701845979701e-07
4015.03,-7.06510761888084e-07
4015.93,-7.114687103872714e-07
4016.84,-7.125573687414669e-07
4017.74,-7.145264906713254e-07
4018.64,-7.158838105448933e-07
4019.54,-7.148116919715024e-07
4020.44,-7.220696235576632e-07
4021.34,-7.243657374771389e-07
4022.24,-7.252914745665877e-07
4023.14,-7.259088243685462e-07
4024.04,-7.205646173334909e-07
4024.94,-7.251095989448901e-07
4025.84,-7.247935627436047e-07
4026.74,-7.307368577392053e-07
4027.64,-7.363475861327813e-07
4028.54,-7.344811555063357e-07
4029.44,-7.241724706826295e-07
4030.34,-7.049036358192802e-07
4031.24,-6.847162597238516e-07
4032.14,-6.610979700913554e-07
4033.04,-6.492485389162534e-07
4033.94,-6.464169276728078e-07
4034.84,-6.550849795148266e-07
4035.74,-6.751552355418843e-07
4036.64,-6.994819062306967e-07
4037.54,-7.270626002027171e-07
4038.44,-7.449388601481332e-07
4039.34,-7.596558109116332e-07
4040.24,-7.606657394756374e-07
4041.14,-7.613244309615298e-07
4042.04,-7.485605301467375e-07
4042.94,-7.272757436966085e-07
4043.84,-7.06291463611938e-07
4044.74,-6.770285803623929e-07
4045.64,-6.551117869880686e-07
4046.54,-6.467175531430678e-07
4047.44,-6.529282741929396e-07
4048.34,-6.70448894724514e-07
4049.24,-6.975733324192281e-07
4050.14,-7.237640529399206e-07
4051.04,-7.441892648500016e-07
4051.94,-7.544587206731258e-07
4052.84,-7.538174675742246e-07
4053.74,-7.469274610235309e-07
4054.65,-7.366509829368086e-07
4055.55,-7.288928563449007e-07
4056.45,-7.138360210312715e-07
4057.35,-7.109349215234398e-07
4058.25,-7.04160684848128e-07
4059.15,-7.076401059068506e-07
4060.05,-7.030520797600788e-07
4060.95,-7.061744730650368e-07
4061.85,-7.025153024575461e-07
4062.75,-6.960110757002613e-07
4063.65,-6.790451780929358e-07
4064.55,-6.715099678847931e-07
4065.45,-6.696465051396643e-07
4066.35,-6.82535082990883e-07
4067.25,-6.957109671095193e-07
4068.15,-7.086625099434618e-07
4069.05,-7.240287221446144e-07
4069.95,-7.299242343566403e-07
4070.85,-7.322681477929304e-07
4071.75,-7.329608845512044e-07
4072.65,-7.286061894192563e-07
4073.55,-7.244610784061273e-07
4074.45,-7.201569474616239e-07
4075.35,-7.163219913730432e-07
4076.25,-7.114766678351683e-07
4077.15,-6.996103740016783e-07
4078.05,-6.984799395027885e-07
4078.95,-7.036650371100178e-07
4079.85,-7.144822120981328e-07
4080.75,-7.385546336761929e-07
4081.65,-7.557464345142059e-07
4082.55,-7.736901441604631e-07
4083.45,-7.821021340906953e-07
4084.35,-7.867890303860121e-07
4085.25,-7.950490691147088e-07
4086.15,-8.016768014961542e-07
4087.05,-8.144101762813342e-07
4087.95,-8.289435357862643e-07
4088.85,-8.424947576113807e-07
4089.75,-8.538903288930628e-07
4090.65,-8.559057910436913e-07
4091.55,-8.564120736964718e-07
4092.45,-8.499492689697041e-07
4093.36,-8.370337387818733e-07
4094.26,-8.216805857048306e-07
4095.16,-8.085690117371065e-07
4096.06,-7.883048138716851e-07
4096.96,-7.667308661148616e-07
4097.86,-7.480784424907885e-07
4098.76,-7.223472702223689e-07
4099.66,-6.999937924435158e-07
4100.56,-6.730245824421767e-07
4101.46,-6.551536456061042e-07
4102.36,-6.511775204818837e-07
4103.26,-6.516894754136031e-07
4104.16,-6.635596014954348e-07
4105.06,-6.949261338441239e-07
4105.96,-7.208513637513601e-07
4106.86,-7.50860258955582e-07
4107.76,-7.746365766548259e-07
4108.66,-7.87274910151285e-07
4109.56,-7.957157250529865e-07
4110.46,-8.013413910121173e-07
4111.36,-8.027411608132433e-07
4112.26,-8.121260784313431e-07
4113.16,-8.176737687801815e-07
4114.06,-8.286997584642685e-07
4114.96,-8.416678314969315e-07
4115.86,-8.492667394330579e-07
4116.76,-8.528084129869968e-07
4117.66,-8.530229203976262e-07
4118.56,-8.46086960451704e-07
4119.46,-8.414531329418414e-07
4120.36,-8.353492692951397e-07
4121.26,-8.274543333259538e-07
4122.16,-8.322523278733898e-07
4123.06,-8.354800320526165e-07
4123.96,-8.402982186903271e-07
4124.86,-8.44453748619267e-07
4125.76,-8.489362049470219e-07
4126.66,-8.482236460975497e-07
4127.56,-8.443651457210271e-07
4128.46,-8.351577749295762e-07
4129.36,-8.289573311205935e-07
4130.26,-8.153517596299751e-07
4131.17,-8.056807219251802e-07
4132.06,-7.92918453186979e-07
4132.97,-7.893256623318859e-07
4133.87,-7.868756023514046e-07
4134.77,-7.94345612570911e-07
4135.67,-8.123368984804487e-07
4136.57,-8.315816837836929e-07
4137.47,-8.526495070646413e-07
4138.37,-8.675487985112194e-07
4139.27,-8.803411525964224e-07
4140.17,-8.801647422217065e-07
4141.07,-8.689570028783221e-07
4141.97,-8.526849405327049e-07
4142.87,-8.331586838654184e-07
4143.77,-8.171229884794499e-07
4144.67,-8.060992880303383e-07
4145.57,-8.026369721995414e-07
4146.47,-8.135479556256045e-07
4147.37,-8.262449778380089e-07
4148.27,-8.374985527297593e-07
4149.17,-8.495180675465325e-07
4150.07,-8.479318980340993e-07
4150.97,-8.469985341803525e-07
4151.87,-8.427265172933764e-07
4152.77,-8.402152716639182e-07
4153.67,-8.331969871274879e-07
4154.57,-8.321116033302506e-07
4155.47,-8.305257319819019e-07
4156.37,-8.326227432176436e-07
4157.27,-8.400349277021368e-07
4158.17,-8.514116933957094e-07
4159.07,-8.65437096937864e-07
4159.97,-8.820796054695027e-07
4160.87,-8.98763558158403e-07
4161.77,-9.096430146939208e-07
4162.67,-9.176641929841987e-07
4163.57,-9.268769166908728e-07
4164.47,-9.276865180802183e-07
4165.37,-9.211519360560135e-07
4166.27,-9.148515438124234e-07
4167.17,-9.036946751592674e-07
4168.07,-8.985751847203538e-07
4168.98,-8.92399402395238e-07
4169.88,-8.80068689965579e-07
4170.78,-8.732882556758847e-07
4171.68,-8.565369159642608e-07
4172.58,-8.410559728953225e-07
4173.48,-8.234961098633084e-07
4174.38,-8.180064485281802e-07
4175.28,-8.157793578829639e-07
4176.18,-8.219848200008301e-07
4177.08,-8.279917632094053e-07
4177.98,-8.402520277632852e-07
4178.88,-8.484351143921288e-07
4179.78,-8.599370173995145e-07
4180.68,-8.684216489840446e-07
4181.58,-8.72803493809381e-07
4182.48,-8.788727858411572e-07
4183.38,-8.797458530596536e-07
4184.28,-8.911410452426847e-07
4185.18,-8.903460193708754e-07
4186.08,-8.897206806414654e-07
4186.98,-8.928584194945839e-07
4187.88,-8.890683904461712e-07
4188.78,-8.881750370832521e-07
4189.68,-8.991844693801565e-07
4190.58,-9.053480455251621e-07
4191.48,-9.170591795785027e-07
4192.38,-9.248733571687571e-07
4193.28,-9.313087807605296e-07
4194.18,-9.352229762160929e-07
4195.08,-9.264027996061006e-07
4195.98,-9.142699971730172e-07
4196.88,-9.011386976389824e-07
4197.78,-8.755751671877679e-07
4198.68,-8.6196124657792e-07
4199.58,-8.506469108348264e-07
4200.48,-8.419059322524914e-07
4201.38,-8.461769733668563e-07
4202.28,-8.551922933573604e-07
4203.18,-8.644070344808548e-07
4204.08,-8.821174331016831e-07
4204.98,-9.016937055672225e-07
4205.88,-9.232764617725402e-07
4206.79,-9.406967930577769e-07
4207.69,-9.603773249455095e-07
4208.59,-9.76044495825888e-07
4209.49,-9.852683950284666e-07
4210.39,-9.886058371140856e-07
4211.29,-9.896197734799442e-07
4212.19,-9.85338933378826e-07
4213.09,-9.813152814756519e-07
4213.99,-9.726899881060855e-07
4214.89,-9.6237384722329e-07
4215.79,-9.551876740974907e-07
4216.69,-9.564742762495297e-07
4217.59,-9.64095545189913e-07
4218.49,-9.783932308253949e-07
4219.39,-9.935431144599427e-07
4220.29,-1.0103658396353033e-06
4221.19,-1.0158638013092032e-06
4222.09,-1.0003407765822342e-06
4222.99,-9.781657960477488e-07
4223.89,-9.379469240783324e-07
4224.79,-8.917715561433264e-07
4225.69,-8.439643097745354e-07
4226.59,-8.088164864800784e-07
4227.49,-7.93077010338838e-07
4228.39,-8.017839995826862e-07
4229.29,-8.34205094384867e-07
4230.19,-8.773506689279346e-07
4231.09,-9.216685908185026e-07
4231.99,-9.56402134580835e-07
4232.89,-9.749929665897847e-07
4233.79,-9.826102574104058e-07
4234.69,-9.777735678254547e-07
4235.59,-9.674445133168427e-07
4236.49,-9.627586069973257e-07
4237.39,-9.582918633880682e-07
4238.29,-9.636000631153804e-07
4239.19,-9.69807568973154e-07
4240.09,-9.827125716673325e-07
4240.99,-1.0005632291015848e-06
4241.89,-1.0178501732328549e-06
4242.79,-1.0377613417446534e-06
4243.69,-1.0536363101935622e-06
4244.59,-1.0647065248736458e-06
4245.5,-1.0656933742890656e-06
4246.4,-1.063175814324276e-06
4247.3,-1.0478052650426922e-06
4248.2,-1.029697636558106e-06
4249.1,-1.0047703006520374e-06
4250.0,-9.910123077697028e-07
4250.9,-9.78118784862021e-07
4251.8,-9.70799120102916e-07
4252.7,-9.745965805632719e-07
4253.6,-9.859805394511628e-07
4254.5,-9.848898567585459e-07
4255.4,-9.967446408989136e-07
4256.3,-1.0032224373943707e-06
4257.2,-1.0054518422782784e-06
4258.1,-1.0113317130597625e-06
4259.0,-1.0046880727872579e-06
4259.9,-9.942256474400136e-07
4260.8,-9.895620356511297e-07
4261.7,-9.997867971021376e-07
4262.6,-1.0139486146320758e-06
4263.5,-1.040718330901142e-06
4264.4,-1.0702201393039519e-06
4265.3,-1.0922351771377012e-06
4266.2,-1.1094036996046097e-06
4267.1,-1.114269232256673e-06
4268.0,-1.0911102079306468e-06
4268.9,-1.0677423059485405e-06
4269.8,-1.0316227172897424e-06
4270.7,-9.861216848392905e-07
4271.6,-9.506766628483014e-07
4272.5,-9.216040333252116e-07
4273.4,-9.064354041749372e-07
4274.3,-9.111210133145261e-07
4275.2,-9.281644042939803e-07
4276.1,-9.614072019184389e-07
4277.0,-9.958216583720673e-07
4277.9,-1.0308690455068253e-06
