wave,flux
3700.85,0.009327417206474837
3701.75,0.009241989757094452
3702.65,0.008950736787439382
3703.55,0.008538127229402916
3704.45,0.007948423841187895
3705.35,0.0074167841162485456
3706.25,0.0070394266367165646
3707.15,0.006861213562503133
3708.05,0.006900395881900348
3708.96,0.007156890509005635
3709.86,0.00761248455297543
3710.76,0.00829470501063741
3711.66,0.00907012238391974
3712.56,0.009887416578485839
3713.46,0.010697115284052684
3714.36,0.011119594505193448
3715.26,0.011372131683769408
3716.16,0.011194266566602485
3717.06,0.010777692801147886
3717.96,0.010082208225536115
3718.86,0.009183344726568711
3719.76,0.008228701995059434
3720.66,0.007547142455772334
3721.56,0.0071788928237656825
3722.46,0.007276760949319309
3723.36,0.007833038030219666
3724.26,0.008628394758058888
3725.16,0.00946068150036243
3726.06,0.010105080151668633
3726.96,0.01050685654541462
3727.86,0.010753898259274927
3728.76,0.010858723077872544
3729.66,0.010813834151408703
3730.56,0.010694938384247713
3731.46,0.01034203801308759
3732.36,0.009739813519408655
3733.26,0.008951035064995195
3734.16,0.008109901282202155
3735.06,0.007441884304409685
3735.96,0.007172379017641822
3736.86,0.0072941891984021
3737.76,0.00785604635201441
3738.66,0.008872801303934363
3739.56,0.010031183832201314
3740.46,0.01106408266338468
3741.36,0.011796102116800202
3742.26,0.012106561226025516
3743.16,0.0118674810905192
3744.06,0.01132661642865517
3744.96,0.010614556479965436
3745.86,0.009932502551972842
3746.76,0.009347640826624053
3747.67,0.00902086758265134
3748.57,0.008875697740415564
3749.47,0.009099248915980672
3750.37,0.009784674176499869
3751.27,0.01096402016562644
3752.17,0.012435824389934439
3753.07,0.014108924480452159
3753.97,0.015535443585051517
3754.87,0.016596652224597476
3755.77,0.017064774467434065
3756.67,0.016957172634540454
3757.57,0.016298684464377017
3758.47,0.015612502296844188
3759.37,0.014977511913957695
3760.27,0.014867837222189156
3761.17,0.015140468508735457
3762.07,0.015558693296784457
3762.97,0.016057613618321944
3763.87,0.0164524456811553
3764.77,0.016683883505359872
3765.67,0.016993450633115244
3766.57,0.01735993459507831
3767.47,0.01785231958193764
3768.37,0.018508892079949858
3769.27,0.019302972995479867
3770.17,0.020254387685914678
3771.07,0.02138040291739946
3771.97,0.02245843507719976
3772.87,0.023390550039769406
3773.77,0.024377737389966285
3774.67,0.025240454727177467
3775.57,0.0255952964698192
3776.47,0.02616617195219299
3777.37,0.026729328494418378
3778.27,0.02746402525565651
3779.17,0.02804423739001662
3780.07,0.02908638057902537
3780.97,0.029984964031830645
3781.87,0.030765758900062775
3782.77,0.03134055304274839
3783.67,0.03175559298230521
3784.57,0.03139012599540167
3785.47,0.030734162060975366
3786.38,0.029532010070871383
3787.28,0.028205716172532497
3788.18,0.027198081949789378
3789.08,0.026490065929562417
3789.98,0.026419315840821973
3790.88,0.026614038704728938
3791.78,0.0270234957994855
3792.68,0.027274935760542934
3793.58,0.027459997053825774
3794.48,0.02733264184031993
3795.38,0.026988457640370014
3796.28,0.026484910719184344
3797.18,0.026147704867846722
3798.08,0.026134271049256655
3798.98,0.026684279386525837
3799.88,0.027814512873890907
3800.78,0.029698087495724026
3801.68,0.032132360909732496
3802.58,0.03485012692348264
3803.48,0.03737272662904253
3804.38,0.03920624469829699
3805.28,0.04028814675139759
3806.18,0.04071222785411671
3807.08,0.0409004799745502
3807.98,0.041387059268751504
3808.88,0.041649459146433976
3809.78,0.0426330988645472
3810.68,0.043304497190351406
3811.58,0.04346824006996768
3812.48,0.04274466291196049
3813.38,0.041412052896358804
3814.28,0.03922475601568541
3815.18,0.03762738320472784
3816.08,0.03648053191055394
3816.98,0.03571590140429858
3817.88,0.03542840488352217
3818.78,0.035334291200760676
3819.68,0.03503246237179748
3820.58,0.03448911819818885
3821.48,0.034148023003491436
3822.38,0.0341530551063138
3823.28,0.03388911604105226
3824.18,0.03359965106226751
3825.09,0.032940473549878536
3825.99,0.032049606667293826
3826.89,0.03148347787690102
3827.79,0.03127059593531075
3828.69,0.03174384929949497
3829.59,0.03266392444642789
3830.49,0.03334394843868001
3831.39,0.03367576182983082
3832.29,0.03372878458531331
3833.19,0.033640710070690055
3834.09,0.03382291180361751
3834.99,0.03437513288918269
3835.89,0.03509811099588424
3836.79,0.03600862035948278
3837.69,0.03677910689850543
3838.59,0.03728391373097633
3839.49,0.03827503930791187
3840.39,0.040130275620428764
3841.29,0.04316330038814445
3842.19,0.047741799643225925
3843.09,0.052758430492404314
3843.99,0.057949974385375226
3844.89,0.062475662855964585
3845.79,0.06605890915052888
3846.69,0.06869389736885165
3847.59,0.07028212925737061
3848.49,0.07101177738580008
3849.39,0.07135933851183696
3850.29,0.0714503260712251
3851.19,0.0718113436417046
3852.09,0.07303194795000868
3852.99,0.07373182332519489
3853.89,0.07406598840943332
3854.79,0.07386194514569497
3855.69,0.07306428688618247
3856.59,0.07082671265775017
3857.49,0.06906725336365771
3858.39,0.06722227630161062
3859.29,0.06642093236744319
3860.19,0.06638562478076704
3861.09,0.06915968125968158
3861.99,0.07374855841121684
3862.9,0.07997544769809835
3863.8,0.08598347549934499
3864.7,0.09061217167875128
3865.6,0.09411639394615211
3866.5,0.09556914567393127
3867.4,0.09632655125796022
3868.3,0.09582871500128701
3869.2,0.09470299817340483
3870.1,0.09368851185659038
3871.0,0.09220007770854019
3871.9,0.09162454609721213
3872.8,0.09301540398837002
3873.7,0.0963806960885124
3874.6,0.10089588215537479
3875.5,0.10551950792592298
3876.4,0.10868106597062371
3877.3,0.11123476127430786
3878.2,0.11061958627622784
3879.1,0.10993773546863757
3880.0,0.11003664493046951
3880.9,0.1115328617699465
3881.8,0.11390626649460572
3882.7,0.11734702673035138
3883.6,0.11964580386863372
3884.5,0.12226303987839496
3885.4,0.12292360912991554
3886.3,0.12311579010391681
3887.2,0.12262645714034706
3888.1,0.1241569602008262
3889.0,0.12840362794231303
3889.9,0.1362862283216415
3890.8,0.14623873102579507
3891.7,0.15802158647385908
3892.6,0.16850143440461066
3893.5,0.17668495130299836
3894.4,0.18233408415070856
3895.3,0.18712610588192172
3896.2,0.1903219883658423
3897.1,0.19329404725376315
3898.0,0.19702681666381358
3898.9,0.19913876986495432
3899.8,0.20215920237640336
3900.7,0.20573495657216065
3901.6,0.2069696997364308
3902.51,0.209003288050155
3903.41,0.2097023966371648
3904.31,0.21010880055964762
3905.21,0.21140625316509043
3906.11,0.21435301869311668
3907.01,0.222158601480102
3907.91,0.2324624298806256
3908.81,0.24532218052670926
3909.71,0.25938582775910785
3910.61,0.273746689562343
3911.51,0.2858836989446933
3912.41,0.2955928909972509
3913.31,0.3013272904657099
3914.21,0.3052917455505882
3915.11,0.3072797012630824
3916.01,0.3061451635808331
3916.91,0.3047478564124934
3917.81,0.29902859714549684
3918.71,0.29302889514783237
3919.61,0.28509775620331734
3920.51,0.2775397515369897
3921.41,0.27034409923543273
3922.31,0.26665075613462336
3923.21,0.2645452896359902
3924.11,0.26540421306112655
3925.01,0.2634773534661415
3925.91,0.25931882685443863
3926.81,0.2483549957864272
3927.71,0.23344804911313058
3928.61,0.2129057177624654
3929.51,0.19093716586583018
3930.41,0.16934360234530368
3931.31,0.14924714388195653
3932.21,0.13272474878702026
3933.11,0.1203145278281325
3934.01,0.11404771645099541
3934.91,0.11658444797506122
3935.81,0.12565793002010248
3936.71,0.1430184559050645
3937.61,0.16602401057695462
3938.51,0.1931998716354661
3939.42,0.22287507103516285
3940.32,0.2507239389797991
3941.22,0.2748662592032916
3942.12,0.29523736723138955
3943.02,0.3111166248592279
3943.92,0.3255908462412699
3944.82,0.3444114883760012
3945.72,0.365298839924003
3946.62,0.3904611943398146
3947.52,0.41561380656490726
3948.42,0.44103780528442277
3949.32,0.46433004136386513
3950.22,0.4817743976672409
3951.12,0.5001686707560979
3952.02,0.516469990773205
3952.92,0.5261933683478642
3953.82,0.5348521824242755
3954.72,0.5428620094894434
3955.62,0.5445942422245081
3956.52,0.5453276932760488
3957.42,0.5418009964846089
3958.32,0.5349335632892077
3959.22,0.5215553553962192
3960.12,0.5040691146160167
3961.02,0.47585802414832534
3961.92,0.4446935071158249
3962.82,0.4099253290236331
3963.72,0.3763915501947961
3964.62,0.3418157840540477
3965.52,0.3101172644285906
3966.42,0.27891286545967764
3967.32,0.2493100900295126
3968.22,0.2274185164958781
3969.12,0.21365615540437427
3970.02,0.2157430716764272
3970.92,0.2329437480950217
3971.82,0.2621651718738777
3972.72,0.3049937600940301
3973.62,0.3542292860605376
3974.52,0.4054451654459509
3975.42,0.4580704613398256
3976.32,0.5142421831364951
3977.22,0.5647330396426207
3978.13,0.6134908749923473
3979.03,0.6594916237832527
3979.93,0.6944590716670076
3980.83,0.7230173080145021
3981.73,0.747810010562759
3982.63,0.7624419098606112
3983.53,0.7720353673767071
3984.43,0.781627176099559
3985.33,0.7956391234447813
3986.23,0.8090552501809656
3987.13,0.8267677806375
3988.03,0.8465314842696275
3988.93,0.8583614727443248
3989.83,0.8729679933598242
3990.73,0.8858158213641373
3991.63,0.8950038054452277
3992.53,0.9042900090769317
3993.43,0.9120196471028007
3994.33,0.9101725023570416
3995.23,0.9082742463907278
3996.13,0.9076446036839891
3997.03,0.897693701971243
3997.93,0.8984008010740784
3998.83,0.9095206663345582
3999.73,0.9248227256537396
4000.63,0.9465814423355455
4001.53,0.9652021710878042
4002.43,0.975038698385328
4003.33,0.9796079930979125
4004.23,0.9639527233768488
4005.13,0.9497908389715821
4006.03,0.9316869046426633
4006.93,0.9282952524664577
4007.83,0.9301396330329977
4008.73,0.9509359527179272
4009.63,0.9689721655114358
4010.53,0.9946284193209989
4011.43,1.0119414883129372
4012.33,1.0291327805745316
4013.23,1.0408401342256823
4014.13,1.0476525766249238
4015.03,1.0534547019655145
4015.93,1.055758163143957
4016.84,1.0570534041411501
4017.74,1.054931232589591
4018.64,1.0621722783735503
4019.54,1.0627932863322886
4020.44,1.0643745067907926
4021.34,1.0646308955065609
4022.24,1.0628339621691782
4023.14,1.0614827551824466
4024.04,1.0601640261144012
4024.94,1.0658611929086361
4025.84,1.0689930539884511
4026.74,1.0735207927502644
4027.64,1.0825732974675146
4028.54,1.0742606590606643
4029.44,1.0553609574655902
4030.34,1.033113830934406
4031.24,0.9909547856439722
4032.14,0.9520220583002121
4033.04,0.9243325863894368
4033.94,0.9200385424479327
4034.84,0.9318034857708642
4035.74,0.957291265826655
4036.64,1.0008448522286362
4037.54,1.0370341410861263
4038.44,1.0796588994316982
4039.34,1.0938626106636258
4040.24,1.0974236957225718
4041.14,1.0905680994794014
4042.04,1.0655377125449141
4042.94,1.0347965386704243
4043.84,0.9898760352908794
4044.74,0.9415847325230596
4045.64,0.9039806292191197
4046.54,0.8872363094612299
4047.44,0.8893560677088457
4048.34,0.9205669527047031
4049.24,0.9627856802138226
4050.14,1.0046101352689654
4051.04,1.0395849120456764
4051.94,1.0574301715596917
4052.84,1.0620743605826015
4053.74,1.053757652070883
4054.65,1.0353775365232252
4055.55,1.015808638137251
4056.45,0.9987934792253589
4057.35,0.9844091211597702
4058.25,0.9742233508377652
4059.15,0.9714021336351271
4060.05,0.9710696278349579
4060.95,0.9641876098056361
4061.85,0.9508979846735259
4062.75,0.9324200363067108
4063.65,0.9059234705127431
4064.55,0.8939868871095745
4065.45,0.8886255300466539
4066.35,0.9023093603507693
4067.25,0.9197649470695766
4068.15,0.9460911028753223
4069.05,0.9636462868987982
4069.95,0.9777067036999444
4070.85,0.9746637816512298
4071.75,0.9740386441930635
4072.65,0.9654231727009743
4073.55,0.9568681972823428
4074.45,0.9566364730560482
4075.35,0.9483164781594169
4076.25,0.936927222703904
4077.15,0.9310380471764154
4078.05,0.9254765902904668
4078.95,0.9287679045223919
4079.85,0.9488376245382603
4080.75,0.9767724044153884
4081.65,1.0070638004082186
4082.55,1.0273612789464783
4083.45,1.0381692086576244
4084.35,1.0433945636864643
4085.25,1.0482245545402784
4086.15,1.0587246728470465
4087.05,1.0758747417024757
4087.95,1.1012481158215415
4088.85,1.1211417121455285
4089.75,1.1297219862392849
4090.65,1.142165636020044
4091.55,1.1329351054854326
4092.45,1.1187877963728603
4093.36,1.1036786300517767
4094.26,1.0851574453009314
4095.16,1.0627285457452746
4096.06,1.0354129547750495
4096.96,1.0069638581844957
4097.86,0.9757972476502469
4098.76,0.9497227580180756
4099.66,0.9195415384732718
4100.56,0.8908050881951072
4101.46,0.8760683678642415
4102.36,0.8618127816775228
4103.26,0.8663051484714226
4104.16,0.8846886858321428
4105.06,0.9149328832382465
4105.96,0.9451515744241628
4106.86,0.9773939897653762
4107.76,1.000612484585598
4108.66,1.0127065041597019
4109.56,1.0163913269661031
4110.46,1.018230352235175
4111.36,1.0186175820788683
4112.26,1.0210724482575801
4113.16,1.0281329794611491
4114.06,1.041552528359596
4114.96,1.0513668932752456
4115.86,1.055140154950465
4116.76,1.0627325509288437
4117.66,1.0598025767430619
4118.56,1.0442131950458915
4119.46,1.0331322020095757
4120.36,1.0253863019797795
4121.26,1.024383365473021
4122.16,1.0239808649359534
4123.06,1.0270031567843312
4123.96,1.0317930475638653
4124.86,1.0388359995786134
4125.76,1.0418028174122704
4126.66,1.0374827228161556
4127.56,1.030939785588814
4128.46,1.0237316751524732
4129.36,1.0011623061680848
4130.26,0.9817248634858322
4131.17,0.9645801264413476
4132.06,0.9492515415140208
4132.97,0.9371375714150443
4133.87,0.9305834179508848
4134.77,0.9404468839024076
4135.67,0.9609871904703705
4136.57,0.9848197968815585
4137.47,1.011225686012587
4138.37,1.0317104539189978
4139.27,1.0459820084277462
4140.17,1.0382726661781072
4141.07,1.0215228324184449
4141.97,0.9970916336291153
4142.87,0.9680039500018751
4143.77,0.9435358699516044
4144.67,0.9235323653580658
4145.57,0.9257294491687851
4146.47,0.933888847206476
4147.37,0.9567233158439494
4148.27,0.9706790499386672
4149.17,0.988139052340244
4150.07,0.9873581167812764
4150.97,0.9863913111168889
4151.87,0.9843609523481873
4152.77,0.9766815381267491
4153.67,0.9677295490565667
4154.57,0.9658082529312344
4155.47,0.958457215710258
4156.37,0.968753999075981
4157.27,0.9809391052584291
4158.17,0.9927383144939985
4159.07,1.0085583490442498
4159.97,1.029477956937063
4160.87,1.0458219849698216
4161.77,1.0639437510172567
4162.67,1.0714195214534676
4163.57,1.0839964638232098
4164.47,1.0793575672283509
4165.37,1.0686502325241933
4166.27,1.0528477099848692
4167.17,1.0418421481885611
4168.07,1.0322072040823422
4168.98,1.0225743866865908
4169.88,1.0121508135450659
4170.78,0.9985835941707365
4171.68,0.9779027768190826
4172.58,0.9621898789292311
4173.48,0.9461052023630018
4174.38,0.931662961853853
4175.28,0.9308110763674399
4176.18,0.9358137743413575
4177.08,0.9453005908598808
4177.98,0.9563915106677929
4178.88,0.9701720593347237
4179.78,0.9792069417814122
4180.68,0.9907045229175989
4181.58,0.9920867177400178
4182.48,0.9970221254952634
4183.38,1.0041332838652834
4184.28,1.010658547099332
4185.18,1.0077088384304167
4186.08,1.008708676342448
4186.98,1.0007149633537085
4187.88,0.9931100118928297
4188.78,0.9968735550371308
4189.68,1.0000454598738209
4190.58,1.00915822216211
4191.48,1.0205550409684028
4192.38,1.0292841685910625
4193.28,1.0367296057598294
4194.18,1.0431872646386544
4195.08,1.0299081571519642
4195.98,1.0151275364335643
4196.88,0.9867426153967962
4197.78,0.9693655634714323
4198.68,0.9426038710062693
4199.58,0.9354463052658256
4200.48,0.9246509822990939
4201.38,0.9242468331601955
4202.28,0.933061272200083
4203.18,0.9460084312137431
4204.08,0.9690659183370002
4204.98,0.9919355331846745
4205.88,1.0245301526053692
4206.79,1.047308331804573
4207.69,1.0670010929503164
4208.59,1.08301032389161
4209.49,1.0905434561989904
4210.39,1.0936828183798073
4211.29,1.0962181596405187
4212.19,1.0912580434383332
4213.09,1.0816923778489447
4213.99,1.0693155848769889
4214.89,1.0574233333025234
4215.79,1.0462162201541896
4216.69,1.0423946450359542
4217.59,1.0543665557144348
4218.49,1.0680365279456179
4219.39,1.0916118034411342
4220.29,1.1016750521995542
4221.19,1.106427056913594
4222.09,1.0854345143394686
4222.99,1.0494989197958522
4223.89,1.001146542602775
4224.79,0.934889832211945
4225.69,0.8706847980772315
4226.59,0.8284104077059986
4227.49,0.8066049042519305
4228.39,0.8195566028204323
4229.29,0.859848996215851
4230.19,0.9090687569349745
4231.09,0.9586412966654995
4231.99,1.0002191182268374
4232.89,1.0248894204082553
4233.79,1.0394189850862345
4234.69,1.0356775340775226
4235.59,1.0284115423795797
4236.49,1.0142085545225143
4237.39,1.0092246047814009
4238.29,1.0161701264515566
4239.19,1.0275187922811038
4240.09,1.0407616420329597
4240.99,1.061116058213901
4241.89,1.082158739070967
4242.79,1.100978293018783
4243.69,1.1175745674986612
4244.59,1.1375654779363404
4245.5,1.1372720413359967
4246.4,1.128136480273761
4247.3,1.1115653890925468
4248.2,1.0804408884706393
4249.1,1.0517162798754427
4250.0,1.0240883766851232
4250.9,1.0062790067727037
4251.8,0.9959590536442793
4252.7,0.9928039138256347
4253.6,0.9997151988570301
4254.5,1.0036844397522655
4255.4,1.010361531665217
4256.3,1.017321291311282
4257.2,1.0239628079704999
4258.1,1.0259826469922388
4259.0,1.02248467999666
4259.9,1.013473389718257
4260.8,1.0080517136814906
4261.7,1.013512610341455
4262.6,1.0332415140897424
4263.5,1.0610306192560714
4264.4,1.0896820403059806
4265.3,1.1187939737947588
4266.2,1.1335014299019173
4267.1,1.132624624010254
4268.0,1.109804963704316
4268.9,1.0740373461578372
4269.8,1.0290257271099013
4270.7,0.9760986832070505
4271.6,0.9325896324842462
4272.5,0.8957420355960228
4273.4,0.878993118033892
4274.3,0.8815669361830547
4275.2,0.8988257607007968
4276.1,0.930665275128919
4277.0,0.9717644158498281
4277.9,1.0060911102499863
4278.8,1.0332997455120045
4279.7,1.0509578902629007
4280.6,1.0554228250032738
4281.5,1.0531447442764446
4282.4,1.048088082837329
4283.31,1.0421257827852268
4284.21,1.0320213048862172
4285.11,1.0250695598663677
4286.01,1.010922532486828
4286.91,0.9935332408277822
4287.81,0.9720148305251157
4288.71,0.9472919576108343
4289.61,0.9299873379647196
4290.51,0.9194461340143683
4291.41,0.9135255706205374
4292.31,0.9267401886251673
4293.21,0.9365228734676476
4294.11,0.9491397053037187
4295.01,0.9512477803849357
4295.91,0.9433629090138227
4296.81,0.9259601888668658
4297.71,0.8918666304491438
4298.61,0.856343637478808
4299.51,0.8145054159148768
4300.41,0.7781464319663105
4301.31,0.7522317327869421
4302.21,0.737944098121497
4303.11,0.731433231679896
4304.01,0.7281280814644158
4304.91,0.7208368000555445
4305.81,0.7219615201343542
4306.71,0.7090956398294247
4307.61,0.6959101617079032
4308.51,0.6872576982794951
4309.41,0.6904127658576172
4310.31,0.6995356836909009
4311.21,0.72520751332339
4312.11,0.7663852072674843
4313.01,0.8187935741194862
4313.91,0.8831757930399421
4314.81,0.951036553400048
4315.71,1.0243162197604079
4316.61,1.092846369696113
4317.51,1.149874803488828
4318.41,1.192398950058669
4319.31,1.2092676636246482
4320.21,1.2101507291057865
4321.12,1.186946616022901
4322.02,1.1446026393186783
4322.92,1.092149396589318
4323.82,1.0320799815730872
4324.72,0.9831754340851203
4325.62,0.9477466924803788
4326.52,0.9367573189985262
4327.42,0.9572820690361712
4328.32,0.9921008470991088
4329.22,1.039452236948361
4330.12,1.087693768056814
4331.02,1.1295388788897147
4331.92,1.155223989397416
4332.82,1.1746822471550522
4333.72,1.1860790340971705
4334.62,1.179050022960162
4335.52,1.1630354991759901
4336.42,1.1352035612033082
4337.32,1.0883017145270677
4338.22,1.0381980529343677
4339.12,0.9933891000442981
4340.02,0.956523065886666
4340.92,0.9286702089299883
4341.82,0.9337488666030181
4342.72,0.9504436231792885
4343.62,0.9745856795315767
4344.52,1.0193923649051861
4345.42,1.0564840772118769
4346.32,1.08625887559056
4347.22,1.1066557155475107
4348.12,1.1208052902323011
4349.02,1.1232926634429197
4349.92,1.1137176677331546
4350.82,1.091864127938005
4351.72,1.0702486760685401
4352.62,1.05419026836544
4353.52,1.037272656846958
4354.42,1.0343306014202145
4355.32,1.041261161443939
4356.22,1.0536287245584373
4357.12,1.0689027488113467
4358.02,1.0784053711901893
4358.92,1.094470390421882
4359.83,1.0977258243249643
4360.73,1.1147630782769897
