wave,flux
3700.85,-5.152617371480487e-05
3701.75,-5.0570604344580326e-05
3702.65,-4.876627939902617e-05
3703.55,-4.5546880639456385e-05
3704.45,-4.2438803274221325e-05
3705.35,-3.926307996175262e-05
3706.25,-3.659705847731325e-05
3707.15,-3.5236852310883904e-05
3708.05,-3.506657835695534e-05
3708.96,-3.6164443943218255e-05
3709.86,-3.8669879484508744e-05
3710.76,-4.180714760332467e-05
3711.66,-4.60089800317248e-05
3712.56,-4.988503490797019e-05
3713.46,-5.322031942948964e-05
3714.36,-5.557105890783539e-05
3715.26,-5.6123633744122004e-05
3716.16,-5.46217038156001e-05
3717.06,-5.188093002358353e-05
3717.96,-4.772245665620116e-05
3718.86,-4.2856047528833514e-05
3719.76,-3.826534455378794e-05
3720.66,-3.4350105291783696e-05
3721.56,-3.2532964567915665e-05
3722.46,-3.265541411389304e-05
3723.36,-3.505960938696756e-05
3724.26,-3.850995495061423e-05
3725.16,-4.1909152306231715e-05
3726.06,-4.471703352519329e-05
3726.96,-4.657176906137627e-05
3727.86,-4.687607491802786e-05
3728.76,-4.69156993361053e-05
3729.66,-4.659317311053676e-05
3730.56,-4.542993579845381e-05
3731.46,-4.332591141067456e-05
3732.36,-4.0508915429289046e-05
3733.26,-3.672497858496391e-05
3734.16,-3.3059368814854426e-05
3735.06,-3.002992905987936e-05
3735.96,-2.842105007592763e-05
3736.86,-2.878111111433709e-05
3737.76,-3.106534152305905e-05
3738.66,-3.474185075193115e-05
3739.56,-3.927780328329329e-05
3740.46,-4.312613568920191e-05
3741.36,-4.575368284651772e-05
3742.26,-4.639335254859692e-05
3743.16,-4.509552232247237e-05
3744.06,-4.237122082769467e-05
3744.96,-3.938478069460867e-05
3745.86,-3.621943282896972e-05
3746.76,-3.385265401262798e-05
3747.67,-3.2193416545451115e-05
3748.57,-3.166784420035174e-05
3749.47,-3.228962288141916e-05
3750.37,-3.492764306118042e-05
3751.27,-3.884429778316653e-05
3752.17,-4.414942413703739e-05
3753.07,-4.9419621908190306e-05
3753.97,-5.469608019126984e-05
3754.87,-5.800023960558502e-05
3755.77,-5.912703264900299e-05
3756.67,-5.7989550085250154e-05
3757.57,-5.5262529378440966e-05
3758.47,-5.203704892833382e-05
3759.37,-4.9632703788161804e-05
3760.27,-4.8566390798784205e-05
3761.17,-4.902829320906505e-05
3762.07,-4.976471473399022e-05
3762.97,-5.0854828447163936e-05
3763.87,-5.1845874127618754e-05
3764.77,-5.222337213828988e-05
3765.67,-5.2828675535827414e-05
3766.57,-5.338736054368521e-05
3767.47,-5.453979496414412e-05
3768.37,-5.647704655665324e-05
3769.27,-5.890273463557767e-05
3770.17,-6.190799242778309e-05
3771.07,-6.496321928709656e-05
3771.97,-6.787779809176104e-05
3772.87,-7.03721864587127e-05
3773.77,-7.2544040491051e-05
3774.67,-7.417808519229596e-05
3775.57,-7.503981386245408e-05
3776.47,-7.56406944052899e-05
3777.37,-7.643653405488472e-05
3778.27,-7.739578164150676e-05
3779.17,-7.916199937435613e-05
3780.07,-8.067115245308916e-05
3780.97,-8.257740486114776e-05
3781.87,-8.445711056970375e-05
3782.77,-8.485003329343493e-05
3783.67,-8.501659024257801e-05
3784.57,-8.370172741719605e-05
3785.47,-8.098053209514837e-05
3786.38,-7.664179345950176e-05
3787.28,-7.237670479689074e-05
3788.18,-6.849832419943971e-05
3789.08,-6.581536624013133e-05
3789.98,-6.492272438282243e-05
3790.88,-6.482730042764092e-05
3791.78,-6.578530644648588e-05
3792.68,-6.603916245347984e-05
3793.58,-6.592826395915042e-05
3794.48,-6.488742900247108e-05
3795.38,-6.315169321762937e-05
3796.28,-6.19547332988565e-05
3797.18,-6.0624858481008206e-05
3798.08,-5.989855706645864e-05
3798.98,-6.040567142704504e-05
3799.88,-6.272921860706951e-05
3800.78,-6.664561096889883e-05
3801.68,-7.120743177761263e-05
3802.58,-7.637289948866815e-05
3803.48,-8.113992998890465e-05
3804.38,-8.453589673713672e-05
3805.28,-8.599599094039476e-05
3806.18,-8.596455494958259e-05
3807.08,-8.567500754607892e-05
3807.98,-8.565369607429937e-05
3808.88,-8.562448817842633e-05
3809.78,-8.652364769021138e-05
3810.68,-8.74722972136385e-05
3811.58,-8.732521429731947e-05
3812.48,-8.439838383604674e-05
3813.38,-8.052052312566178e-05
3814.28,-7.600323855229483e-05
3815.18,-7.157835774183487e-05
3816.08,-6.796197292443832e-05
3816.98,-6.579869857900001e-05
3817.88,-6.469829562901966e-05
3818.78,-6.332317591206918e-05
3819.68,-6.22115857881311e-05
3820.58,-6.0565843072843674e-05
3821.48,-5.945956258475773e-05
3822.38,-5.8853758386380815e-05
3823.28,-5.785700475911356e-05
3824.18,-5.647960207539784e-05
3825.09,-5.4970115209244465e-05
3825.99,-5.286615648010952e-05
3826.89,-5.1384697661898685e-05
3827.79,-5.0819621864341945e-05
3828.69,-5.118615939535347e-05
3829.59,-5.212388452066189e-05
3830.49,-5.296510529803861e-05
3831.39,-5.321574303159686e-05
3832.29,-5.287711287319873e-05
3833.19,-5.2558973066314523e-05
3834.09,-5.206531327752326e-05
3834.99,-5.2697831682332236e-05
3835.89,-5.356221243338577e-05
3836.79,-5.447242244848118e-05
3837.69,-5.49453507781702e-05
3838.59,-5.5122583866209766e-05
3839.49,-5.579951246203346e-05
3840.39,-5.7626946443526104e-05
3841.29,-6.148375721617047e-05
3842.19,-6.690289198496604e-05
3843.09,-7.331130689880417e-05
3843.99,-7.976882304371532e-05
3844.89,-8.531929795745572e-05
3845.79,-8.907865404691807e-05
3846.69,-9.152786332038395e-05
3847.59,-9.250647605326874e-05
3848.49,-9.28163655273378e-05
3849.39,-9.17811383306533e-05
3850.29,-9.12245401719189e-05
3851.19,-9.067175332587481e-05
3852.09,-9.108704739523928e-05
3852.99,-9.12748311692888e-05
3853.89,-9.091290911573865e-05
3854.79,-8.941760128813353e-05
3855.69,-8.707333657119386e-05
3856.59,-8.367165076732347e-05
3857.49,-8.026457910411734e-05
3858.39,-7.700573067547329e-05
3859.29,-7.503994831150205e-05
3860.19,-7.512167595513268e-05
3861.09,-7.728202957169962e-05
3861.99,-8.194477383723865e-05
3862.9,-8.803202837813867e-05
3863.8,-9.394474994359811e-05
3864.7,-9.840978894303747e-05
3865.6,-0.00010105356033002348
3866.5,-0.00010168715065107151
3867.4,-0.0001007888111402083
3868.3,-9.886196042278012e-05
3869.2,-9.703650021751689e-05
3870.1,-9.413219750415485e-05
3871.0,-9.161128071010048e-05
3871.9,-9.057237337132682e-05
3872.8,-9.130129122667147e-05
3873.7,-9.42549672891226e-05
3874.6,-9.830290933854837e-05
3875.5,-0.00010246546749375397
3876.4,-0.0001049187171130801
3877.3,-0.00010542418362410992
3878.2,-0.00010405621591323886
3879.1,-0.00010243284717162151
3880.0,-0.00010135614967153749
3880.9,-0.00010103847172579268
3881.8,-0.00010203538366302047
3882.7,-0.00010358420964003953
3883.6,-0.00010543110240225169
3884.5,-0.00010625461019456038
3885.4,-0.00010678493965985687
3886.3,-0.00010575765454974653
3887.2,-0.0001050567466081131
3888.1,-0.00010656048958739867
3889.0,-0.00010941451018174506
3889.9,-0.00011543369974432389
3890.8,-0.00012367095906178015
3891.7,-0.0001327705406812875
3892.6,-0.0001396287558496403
3893.5,-0.0001456416085316602
3894.4,-0.0001489400568009574
3895.3,-0.0001504674426249703
3896.2,-0.00015117297676370313
3897.1,-0.0001520475389410983
3898.0,-0.00015309646155730312
3898.9,-0.00015227376836947487
3899.8,-0.00015393887023005317
3900.7,-0.00015345037317634883
3901.6,-0.00015427276021534098
3902.51,-0.0001538731152391743
3903.41,-0.0001529926343708004
3904.31,-0.0001512141334182635
3905.21,-0.00015056844322718533
3906.11,-0.00015111894048139813
3907.01,-0.0001550241112048128
3907.91,-0.0001610642642089561
3908.81,-0.00016972650953769321
3909.71,-0.00017820317689336594
3910.61,-0.00018512287935953405
3911.51,-0.00019225866190461565
3912.41,-0.0001966084777079881
3913.31,-0.00019980129455578652
3914.21,-0.0002001376121215997
3915.11,-0.00020029145886921713
3916.01,-0.00019764539257443277
3916.91,-0.00019426952424191052
3917.81,-0.00018922995528149075
3918.71,-0.00018302119829147174
3919.61,-0.0001760167238636286
3920.51,-0.00016956477207335483
3921.41,-0.00016268768186907055
3922.31,-0.0001582705574313526
3923.21,-0.00015619350685730783
3924.11,-0.0001551785387001658
3925.01,-0.00015309413327284425
3925.91,-0.0001495016668434912
3926.81,-0.00014259019268815406
3927.71,-0.00013241136080155135
3928.61,-0.00012068869644420094
3929.51,-0.00010740708303852003
3930.41,-9.455157760862054e-05
3931.31,-8.302487209525344e-05
3932.21,-7.329883532723048e-05
3933.11,-6.636949103429207e-05
3934.01,-6.29695972624416e-05
3934.91,-6.336372473902192e-05
3935.81,-6.781292378608342e-05
3936.71,-7.626356357786654e-05
3937.61,-8.807175275843842e-05
3938.51,-0.00010189726715079562
3939.42,-0.0001160989162466741
3940.32,-0.0001300014939302837
3941.22,-0.0001401364744691997
3942.12,-0.00014900417128756112
3943.02,-0.00015592812463708188
3943.92,-0.00016205375093408136
3944.82,-0.00016938928016129213
3945.72,-0.00017981385397035352
3946.62,-0.00019131192513595818
3947.52,-0.00020349409610193102
3948.42,-0.00021557070003100576
3949.32,-0.00022527269852278998
3950.22,-0.0002350939803037632
3951.12,-0.00024309850999795928
3952.02,-0.0002485582933674915
3952.92,-0.00025268208558784535
3953.82,-0.00025644705531574784
3954.72,-0.0002593190211145844
3955.62,-0.00025865726152435976
3956.52,-0.00025698611127027013
3957.42,-0.000253796425503064
3958.32,-0.00024948881135324454
3959.22,-0.00024299163196216347
3960.12,-0.0002324664359404421
3961.02,-0.00021858003530803214
3961.92,-0.0002030358548993185
3962.82,-0.00018636539389842535
3963.72,-0.0001693605107831895
3964.62,-0.0001550152072425895
3965.52,-0.00014039784404476326
3966.42,-0.0001259390647429253
3967.32,-0.00011269368630525296
3968.22,-0.00010269185154969008
3969.12,-9.757189004149915e-05
3970.02,-9.818454941934375e-05
3970.92,-0.00010555819111727445
3971.82,-0.00011901348692309931
3972.72,-0.00013755411492125854
3973.62,-0.00015900790154900214
3974.52,-0.00018303714298157926
3975.42,-0.00020704802800154668
3976.32,-0.0002319193953373402
3977.22,-0.0002538945508087515
3978.13,-0.0002774697689827656
3979.03,-0.00029748163083808456
3979.93,-0.0003145436953481079
3980.83,-0.0003281090681941106
3981.73,-0.0003390590463015579
3982.63,-0.0003447269547538471
3983.53,-0.00035165754236560567
3984.43,-0.00035720828989178665
3985.33,-0.0003618522238954037
3986.23,-0.00037056057678429543
3987.13,-0.00037737681960315603
3988.03,-0.00038674510893377603
3988.93,-0.00039414134335132413
3989.83,-0.00040122821624566536
3990.73,-0.00040715413345602744
3991.63,-0.0004141560684076144
3992.53,-0.0004191146966726611
3993.43,-0.00042359279484788535
3994.33,-0.0004253833377267467
3995.23,-0.00042455993214889965
3996.13,-0.0004243259188674546
3997.03,-0.00042455109324839274
3997.93,-0.00042555361967400987
3998.83,-0.0004338831562635073
3999.73,-0.0004422185895236903
4000.63,-0.0004557383842928823
4001.53,-0.0004660742857287365
4002.43,-0.000474224007314979
4003.33,-0.0004770338066193875
4004.23,-0.0004722288582516098
4005.13,-0.00046510002666236977
4006.03,-0.00045813340907827684
4006.93,-0.00045659537437495315
4007.83,-0.0004602100191488224
4008.73,-0.0004698343575758933
4009.63,-0.00048517203609857223
4010.53,-0.000500380867567824
4011.43,-0.0005127252387909769
4012.33,-0.0005237461539990465
4013.23,-0.0005307816105524063
4014.13,-0.0005396439665279508
4015.03,-0.0005433021660826063
4015.93,-0.0005494263762965023
4016.84,-0.0005540157295515615
4017.74,-0.0005589888692157919
4018.64,-0.0005643938756500989
4019.54,-0.0005651772340329763
4020.44,-0.0005735085576695914
4021.34,-0.0005768565874870947
4022.24,-0.0005810785231543345
4023.14,-0.0005844781460998302
4024.04,-0.0005860613497299195
4024.94,-0.000588974637614542
4025.84,-0.0005935357860036567
4026.74,-0.000600598556565741
4027.64,-0.00060696551906468
4028.54,-0.00060798636651812
4029.44,-0.0006008610120949073
4030.34,-0.0005862812396153971
4031.24,-0.0005658020171967277
4032.14,-0.000546588425285221
4033.04,-0.0005334859285015248
4033.94,-0.0005286242394719147
4034.84,-0.0005432750398701369
4035.74,-0.0005661714776990333
4036.64,-0.000596197256187299
4037.54,-0.0006257099542962824
4038.44,-0.0006529621504105529
4039.34,-0.0006716059820955535
4040.24,-0.0006813340876303648
4041.14,-0.0006817022654395565
4042.04,-0.0006702190448207009
4042.94,-0.0006500642010670343
4043.84,-0.0006277175090053865
4044.74,-0.000598515803778696
4045.64,-0.0005769274804630232
4046.54,-0.0005679588884336955
4047.44,-0.0005720281557508973
4048.34,-0.0005993958680005234
4049.24,-0.0006361970950141511
4050.14,-0.0006723667992186047
4051.04,-0.0007004460486680475
4051.94,-0.0007199456964322523
4052.84,-0.0007289461942664869
4053.74,-0.0007278465849913001
4054.65,-0.0007171140059268669
4055.55,-0.000710348322243604
4056.45,-0.0007015696079314278
4057.35,-0.0006920138811202766
4058.25,-0.0006914299436103037
4059.15,-0.0006962490827794172
4060.05,-0.0006983042103890396
4060.95,-0.0007000028357836058
4061.85,-0.0006938902165488483
4062.75,-0.0006846799971913844
4063.65,-0.0006726648272268269
4064.55,-0.0006642835181473413
4065.45,-0.0006704107514791464
4066.35,-0.0006819885657616844
4067.25,-0.0007071881349204606
4068.15,-0.0007326308009963187
4069.05,-0.0007542171471935528
4069.95,-0.0007713510690135538
4070.85,-0.0007720488038529865
4071.75,-0.0007793279057773631
4072.65,-0.0007792876819241818
4073.55,-0.0007797492519081664
4074.45,-0.0007819862583470558
4075.35,-0.0007867484640522269
4076.25,-0.0007841420530117183
4077.15,-0.0007845954204799792
4078.05,-0.0007884942105774117
4078.95,-0.0008006291674759429
4079.85,-0.0008282440434944953
4080.75,-0.0008587273170088853
4081.65,-0.0008948531144069169
4082.55,-0.0009198565143029168
4083.45,-0.000939395050728705
4084.35,-0.0009504379117919164
4085.25,-0.0009628801293641504
4086.15,-0.0009818256000307273
4087.05,-0.0010035087437696717
4087.95,-0.0010336017933027847
4088.85,-0.0010573882581236718
4089.75,-0.0010786216909489815
4090.65,-0.0010977224751398146
4091.55,-0.0011002926570499462
4092.45,-0.0010941218976457466
4093.36,-0.0010807685381367608
4094.26,-0.0010727941932032392
4095.16,-0.0010546471072489137
4096.06,-0.0010336954597199555
4096.96,-0.001013098684528319
4097.86,-0.0009870443769267497
4098.76,-0.0009719111726793296
4099.66,-0.0009470319116421678
4100.56,-0.0009298310631999953
4101.46,-0.0009158198603717188
4102.36,-0.0009133647343340791
4103.26,-0.0009291390892078823
4104.16,-0.000953325532909737
4105.06,-0.0009899150990661293
4105.96,-0.0010359226776224836
4106.86,-0.0010752842486948717
4107.76,-0.001111916766698733
4108.66,-0.0011356251777987654
4109.56,-0.001150393928326106
4110.46,-0.0011542299566528768
4111.36,-0.0011605537178041847
4112.26,-0.0011696472697270807
4113.16,-0.0011860398223887732
4114.06,-0.0012152011697411516
4114.96,-0.0012389236923138387
4115.86,-0.0012586059914548207
4116.76,-0.0012642436054470813
4117.66,-0.0012726400822494772
4118.56,-0.001267569992552835
4119.46,-0.0012620033878455676
4120.36,-0.0012617638649715826
4121.26,-0.0012669711997322429
4122.16,-0.001276020369566789
4123.06,-0.0012847717339975501
4123.96,-0.0013083657170223223
4124.86,-0.0013230437929536744
4125.76,-0.0013392767439648467
4126.66,-0.00134045559514034
4127.56,-0.0013387508513425506
4128.46,-0.0013391655441195136
4129.36,-0.0013231580170650421
4130.26,-0.0013038517791841486
4131.17,-0.0012859997363403057
4132.06,-0.0012718313519986956
4132.97,-0.0012624172902322031
4133.87,-0.001268391656434869
4134.77,-0.0012957050268314638
4135.67,-0.0013352367710719386
4136.57,-0.0013773753718636036
4137.47,-0.0014297253077671635
4138.37,-0.0014717641598505124
4139.27,-0.0014951715214263357
4140.17,-0.0015065384594432811
4141.07,-0.0014949018924722015
4141.97,-0.0014619170974277892
4142.87,-0.0014220365151553212
4143.77,-0.001384413999006182
4144.67,-0.0013780892175143569
4145.57,-0.0013825780535599603
4146.47,-0.0014109018485540246
4147.37,-0.0014526432396585734
4148.27,-0.0014937119899992787
4149.17,-0.0015216063784254815
4150.07,-0.0015305930638974507
4150.97,-0.001544070057268635
4151.87,-0.001549179357517678
4152.77,-0.0015465387469056433
4153.67,-0.0015472498914642756
4154.57,-0.0015455125465163588
4155.47,-0.0015598759903948534
4156.37,-0.0015757155543767941
4157.27,-0.0016101531303439973
4158.17,-0.0016486703299424474
4159.07,-0.0016937144140774412
4159.97,-0.0017393248873869673
4160.87,-0.0017835080065354526
4161.77,-0.0018269129627282619
4162.67,-0.0018674311037572874
4163.57,-0.0018941366712344932
4164.47,-0.0019052876617985867
4165.37,-0.0019015807213709044
4166.27,-0.0018921608780749692
4167.17,-0.0018805062246316734
4168.07,-0.001872026432798185
4168.98,-0.0018616416002191223
4169.88,-0.001856375097582527
4170.78,-0.0018431358399654985
4171.68,-0.0018347729380991428
4172.58,-0.0018137392872230648
4173.48,-0.0017860711906030637
4174.38,-0.001781142077488513
4175.28,-0.0017872068321925926
4176.18,-0.0018150830858227557
4177.08,-0.0018411996329710616
4177.98,-0.0018806412561730174
4178.88,-0.0019151693750398468
4179.78,-0.0019529120355993006
4180.68,-0.001986355587815038
4181.58,-0.002007375247247235
4182.48,-0.002031392999974941
4183.38,-0.0020675816664633756
4184.28,-0.0020867070884293772
4185.18,-0.0021103029217718456
4186.08,-0.002121723545002851
4186.98,-0.00214106365634325
4187.88,-0.0021484332046015635
4188.78,-0.0021583607930995992
4189.68,-0.002186445453097338
4190.58,-0.002224885766827939
4191.48,-0.0022707497274542117
4192.38,-0.0023095579603910586
4193.28,-0.002347732694022241
4194.18,-0.0023705642174271977
4195.08,-0.0023545326017127563
4195.98,-0.0023326222531602652
4196.88,-0.0022879941125238733
4197.78,-0.002245061802733696
4198.68,-0.002208465482568599
4199.58,-0.0021987844733316383
4200.48,-0.002199266698735121
4201.38,-0.002226434745742631
4202.28,-0.0022711179512717515
4203.18,-0.002316261354096363
4204.08,-0.0024025535738918667
4204.98,-0.0024877352308475893
4205.88,-0.0025779430857280562
4206.79,-0.002674254969249548
4207.69,-0.002749191468887004
4208.59,-0.0028220776205714008
4209.49,-0.0028627599792121834
4210.39,-0.002901027349115283
4211.29,-0.0029134644347469647
4212.19,-0.002919442805726622
4213.09,-0.0029067918813358616
4213.99,-0.0028932043776224753
4214.89,-0.002885874675665228
4215.79,-0.0029073498991017696
4216.69,-0.0029106719943059935
4217.59,-0.0029776161672139035
4218.49,-0.0030564197428980056
4219.39,-0.003143610385989556
4220.29,-0.0032093286524795483
4221.19,-0.0032435957762072198
4222.09,-0.00321532560684434
4222.99,-0.003121721293395806
4223.89,-0.002978841566174701
4224.79,-0.0028108059747987903
4225.69,-0.0026410093149459545
4226.59,-0.0025058559475259847
4227.49,-0.002459923999351032
4228.39,-0.0025033272820220065
4229.29,-0.002647968322430026
4230.19,-0.0028393484899747385
4231.09,-0.0030512093639022252
4231.99,-0.003241572032053305
4232.89,-0.0033485581780770017
4233.79,-0.003418587810597642
4234.69,-0.0034337588044478806
4235.59,-0.0034196244322048405
4236.49,-0.003429868817477196
4237.39,-0.003436640854986478
4238.29,-0.0034765503288221064
4239.19,-0.003545223722150555
4240.09,-0.003649747952029743
4240.99,-0.0037562237509872957
4241.89,-0.0038600233297533004
4242.79,-0.003999387706619745
4243.69,-0.004118327856189013
4244.59,-0.004197145764835728
4245.5,-0.004233689186697409
4246.4,-0.004270186497585135
4247.3,-0.004222041959102106
4248.2,-0.004140751395508098
4249.1,-0.0040462112512214795
4250.0,-0.003974163602801037
4250.9,-0.003906402771949999
4251.8,-0.003905006091723835
4252.7,-0.003913681085493415
4253.6,-0.00395869938350039
4254.5,-0.004018651196826724
4255.4,-0.004099655602305194
4256.3,-0.004168464555254864
4257.2,-0.004231148846878299
4258.1,-0.0042854309832359725
4259.0,-0.004300976385869677
4259.9,-0.004310949299595876
4260.8,-0.004347565243738926
4261.7,-0.004400657670945397
4262.6,-0.0045453609360538005
4263.5,-0.004704789374102125
4264.4,-0.004898103507900005
4265.3,-0.005114005021920163
4266.2,-0.005220063578880172
4267.1,-0.0052578281482335894
4268.0,-0.005185526429492214
4268.9,-0.0050769045342846505
4269.8,-0.004873363385574809
4270.7,-0.0046471102489141075
4271.6,-0.004445858679673794
4272.5,-0.004309857487726347
4273.4,-0.004250254802018622
4274.3,-0.004286242759992706
4275.2,-0.004427409595035369
4276.1,-0.004678067010621455
4277.0,-0.00493216972128064
4277.9,-0.005193556296956197
4278.8,-0.0054072529955250855
4279.7,-0.005555058509940388
4280.6,-0.005656710584684124
4281.5,-0.0057135530691728165
4282.4,-0.005711424694897304
