wave,flux
3700.85,-4.1460790229480817e-07
3701.75,-4.1042915682387127e-07
3702.65,-3.9940864489363554e-07
3703.55,-3.8012843331670836e-07
3704.45,-3.631114585159793e-07
3705.35,-3.4847595159011783e-07
3706.25,-3.367616000092902e-07
3707.15,-3.3239641381390506e-07
3708.05,-3.3538121564604266e-07
3708.96,-3.389467162568912e-07
3709.86,-3.475855684188146e-07
3710.76,-3.555910631870791e-07
3711.66,-3.692168607990594e-07
3712.56,-3.8345034968836325e-07
3713.46,-3.988019794117184e-07
3714.36,-4.1302054224886594e-07
3715.26,-4.2456427056631296e-07
3716.16,-4.302135584120594e-07
3717.06,-4.281086028664751e-07
3717.96,-4.151052127171608e-07
3718.86,-3.944237799327876e-07
3719.76,-3.686419274571865e-07
3720.66,-3.44721569938704e-07
3721.56,-3.275216526426329e-07
3722.46,-3.216331799027357e-07
3723.36,-3.2937016098458436e-07
3724.26,-3.469116509947432e-07
3725.16,-3.6889781553240175e-07
3726.06,-3.869251338444097e-07
3726.96,-4.018997646615877e-07
3727.86,-4.077727257379533e-07
3728.76,-4.081358955594175e-07
3729.66,-4.0709189805318867e-07
3730.56,-3.982733384349324e-07
3731.46,-3.8282010534950527e-07
3732.36,-3.6014802283444697e-07
3733.26,-3.3517706216244726e-07
3734.16,-3.1099811288835084e-07
3735.06,-2.940053899433707e-07
3735.96,-2.886503462127772e-07
3736.86,-2.969507780538383e-07
3737.76,-3.1409776320463757e-07
3738.66,-3.44327163621646e-07
3739.56,-3.71622432583915e-07
3740.46,-3.969918697510584e-07
3741.36,-4.1346539291600236e-07
3742.26,-4.188279240441163e-07
3743.16,-4.1225390738251255e-07
3744.06,-4.013262263993308e-07
3744.96,-3.8482774706866204e-07
3745.86,-3.6443661251949377e-07
3746.76,-3.445541544215214e-07
3747.67,-3.2500954637109717e-07
3748.57,-3.09416727392369e-07
3749.47,-2.9831709259658116e-07
3750.37,-2.9976668442400593e-07
3751.27,-3.14572051149843e-07
3752.17,-3.400078709927129e-07
3753.07,-3.7092815970082055e-07
3753.97,-4.0375751521386554e-07
3754.87,-4.298319160839342e-07
3755.77,-4.44779975662574e-07
3756.67,-4.5087321255153377e-07
3757.57,-4.421911212373203e-07
3758.47,-4.3337494551052863e-07
3759.37,-4.2443420301968896e-07
3760.27,-4.1989922282457416e-07
3761.17,-4.2175778627278664e-07
3762.07,-4.273572393318331e-07
3762.97,-4.32560687905083e-07
3763.87,-4.3672315466406707e-07
3764.77,-4.3633189652241724e-07
3765.67,-4.3152349955264186e-07
3766.57,-4.2095505991378185e-07
3767.47,-4.122463623892253e-07
3768.37,-4.01730622213106e-07
3769.27,-3.90717660589491e-07
3770.17,-3.8308394858452207e-07
3771.07,-3.8362785698536286e-07
3771.97,-3.902543093659594e-07
3772.87,-4.0572848446840803e-07
3773.77,-4.2277094529694996e-07
3774.67,-4.413959087477e-07
3775.57,-4.618682001834769e-07
3776.47,-4.786453255013488e-07
3777.37,-4.907834935491718e-07
3778.27,-5.067319217809399e-07
3779.17,-5.258873020243203e-07
3780.07,-5.381905413947117e-07
3780.97,-5.510295314755832e-07
3781.87,-5.608857260419347e-07
3782.77,-5.67306857836656e-07
3783.67,-5.687579051567945e-07
3784.57,-5.624240634398716e-07
3785.47,-5.527886915159161e-07
3786.38,-5.344380411620443e-07
3787.28,-5.180359548731147e-07
3788.18,-4.991070751856913e-07
3789.08,-4.857514556269964e-07
3789.98,-4.759505952893573e-07
3790.88,-4.694291826819599e-07
3791.78,-4.631401657619174e-07
3792.68,-4.503754050654193e-07
3793.58,-4.397813462557697e-07
3794.48,-4.1985255306478255e-07
3795.38,-4.023001766752642e-07
3796.28,-3.7990647001568e-07
3797.18,-3.619989221058015e-07
3798.08,-3.541458594864667e-07
3798.98,-3.5248590460858875e-07
3799.88,-3.653440552377262e-07
3800.78,-3.878360923379379e-07
3801.68,-4.178276079542289e-07
3802.58,-4.5178625436209956e-07
3803.48,-4.798693383066685e-07
3804.38,-5.06569033773154e-07
3805.28,-5.205130522447811e-07
3806.18,-5.2892180875864e-07
3807.08,-5.369213524444999e-07
3807.98,-5.434544790673535e-07
3808.88,-5.518851829350421e-07
3809.78,-5.650814124086008e-07
3810.68,-5.689783015024106e-07
3811.58,-5.723103754758337e-07
3812.48,-5.60847917818195e-07
3813.38,-5.490311673803975e-07
3814.28,-5.352024663989601e-07
3815.18,-5.19794379473123e-07
3816.08,-5.147964914320349e-07
3816.98,-5.086817042399188e-07
3817.88,-5.117580672799946e-07
3818.78,-5.132487094440181e-07
3819.68,-5.097968236464368e-07
3820.58,-5.041677272078924e-07
3821.48,-4.984021221498627e-07
3822.38,-4.913125720181203e-07
3823.28,-4.83231945137008e-07
3824.18,-4.7412597871101274e-07
3825.09,-4.6194247088620667e-07
3825.99,-4.4715908151814513e-07
3826.89,-4.3432190983313e-07
3827.79,-4.235313630656135e-07
3828.69,-4.1563883878627305e-07
3829.59,-4.073083902861267e-07
3830.49,-3.975220477543323e-07
3831.39,-3.8394358535343436e-07
3832.29,-3.677192405716168e-07
3833.19,-3.4772665123528657e-07
3834.09,-3.308651794287505e-07
3834.99,-3.1678167116490925e-07
3835.89,-3.130449741008605e-07
3836.79,-3.1325585997449055e-07
3837.69,-3.207538780888999e-07
3838.59,-3.339464797486495e-07
3839.49,-3.526675355667789e-07
3840.39,-3.7441806445294865e-07
3841.29,-4.0221528531873464e-07
3842.19,-4.3376067155368547e-07
3843.09,-4.6099728090950697e-07
3843.99,-4.884981147623153e-07
3844.89,-5.112341487203778e-07
3845.79,-5.320751514044136e-07
3846.69,-5.458800872658118e-07
3847.59,-5.56175155755431e-07
3848.49,-5.664239751049477e-07
3849.39,-5.721674738215063e-07
3850.29,-5.770890241510969e-07
3851.19,-5.835226560642054e-07
3852.09,-5.877266846447044e-07
3852.99,-5.912336868690675e-07
3853.89,-5.93119837360715e-07
3854.79,-5.909272552452891e-07
3855.69,-5.860138202803117e-07
3856.59,-5.781219178156862e-07
3857.49,-5.691483700439109e-07
3858.39,-5.586870788030292e-07
3859.29,-5.572470373325504e-07
3860.19,-5.55902229265213e-07
3861.09,-5.637758599017431e-07
3861.99,-5.750645686059101e-07
3862.9,-5.917758898140397e-07
3863.8,-6.055097164985433e-07
3864.7,-6.17842787694684e-07
3865.6,-6.203087222694583e-07
3866.5,-6.193840790211824e-07
3867.4,-6.210854120468355e-07
3868.3,-6.161416777143681e-07
3869.2,-6.100757970507286e-07
3870.1,-6.007124674035222e-07
3871.0,-5.90227862905767e-07
3871.9,-5.8139165048855e-07
3872.8,-5.735670954927295e-07
3873.7,-5.714605217170124e-07
3874.6,-5.721743982087776e-07
3875.5,-5.769139586568531e-07
3876.4,-5.760686386782347e-07
3877.3,-5.713780553029071e-07
3878.2,-5.660558417345402e-07
3879.1,-5.558158538178944e-07
3880.0,-5.48363555344406e-07
3880.9,-5.422684685738173e-07
3881.8,-5.385609973241526e-07
3882.7,-5.272399781416864e-07
3883.6,-5.192292818425824e-07
3884.5,-5.005394081218588e-07
3885.4,-4.784546372744403e-07
3886.3,-4.57539553880125e-07
3887.2,-4.3253480268829296e-07
3888.1,-4.138068502563832e-07
3889.0,-4.03711390703197e-07
3889.9,-4.058280108540176e-07
3890.8,-4.186588538255496e-07
3891.7,-4.416248556689166e-07
3892.6,-4.7042129795199583e-07
3893.5,-4.96277812455014e-07
3894.4,-5.183722989286611e-07
3895.3,-5.388100986971996e-07
3896.2,-5.532830731772255e-07
3897.1,-5.689159889221603e-07
3898.0,-5.816274916768765e-07
3898.9,-5.913980897950061e-07
3899.8,-5.994926961068847e-07
3900.7,-6.080228476933973e-07
3901.6,-6.149512877577284e-07
3902.51,-6.19208455802449e-07
3903.41,-6.205916440705487e-07
3904.31,-6.197387056374156e-07
3905.21,-6.163805286145837e-07
3906.11,-6.203607828329874e-07
3907.01,-6.286881206497174e-07
3907.91,-6.444464665143829e-07
3908.81,-6.621610175413817e-07
3909.71,-6.799309405966601e-07
3910.61,-7.005034263754165e-07
3911.51,-7.098965393487346e-07
3912.41,-7.163471575120093e-07
3913.31,-7.221522806581996e-07
3914.21,-7.182537658336313e-07
3915.11,-7.136084920308122e-07
3916.01,-7.072666192628097e-07
3916.91,-7.001836493879565e-07
3917.81,-6.902268794901645e-07
3918.71,-6.809349740505475e-07
3919.61,-6.708016569544257e-07
3920.51,-6.626463005315526e-07
3921.41,-6.555562452015258e-07
3922.31,-6.528267653097351e-07
3923.21,-6.483101824378095e-07
3924.11,-6.433768266105424e-07
3925.01,-6.350857108019936e-07
3925.91,-6.210103648976915e-07
3926.81,-5.96307630787622e-07
3927.71,-5.614392082495138e-07
3928.61,-5.195851608444236e-07
3929.51,-4.724606668532394e-07
3930.41,-4.2481399815215454e-07
3931.31,-3.728745359823285e-07
3932.21,-3.295001011439037e-07
3933.11,-2.9223251177506614e-07
3934.01,-2.728286885619809e-07
3934.91,-2.6888716103791403e-07
3935.81,-2.849812822475959e-07
3936.71,-3.1755384708152127e-07
3937.61,-3.635779742603062e-07
3938.51,-4.136271731286343e-07
3939.42,-4.635730267585859e-07
3940.32,-5.076576739239836e-07
3941.22,-5.424522486000178e-07
3942.12,-5.722648102010072e-07
3943.02,-5.950370200668276e-07
3943.92,-6.063116478284763e-07
3944.82,-6.206791310055797e-07
3945.72,-6.374091465157011e-07
3946.62,-6.522850663740902e-07
3947.52,-6.687407107303997e-07
3948.42,-6.808879848246646e-07
3949.32,-6.897555928410426e-07
3950.22,-6.993099043749143e-07
3951.12,-7.059930186870269e-07
3952.02,-7.060057707083809e-07
3952.92,-7.125746125694904e-07
3953.82,-7.126767155760429e-07
3954.72,-7.121047933178449e-07
3955.62,-7.066783450411745e-07
3956.52,-7.018439101309683e-07
3957.42,-6.938148585162912e-07
3958.32,-6.846592873037318e-07
3959.22,-6.704456769575154e-07
3960.12,-6.547531125963823e-07
3961.02,-6.287977404520454e-07
3961.92,-5.967931825581197e-07
3962.82,-5.619012357007154e-07
3963.72,-5.18187533044751e-07
3964.62,-4.7436709428184373e-07
3965.52,-4.3254457913429916e-07
3966.42,-3.847367426824946e-07
3967.32,-3.3961809090940086e-07
3968.22,-3.00856652956915e-07
3969.12,-2.780939958056187e-07
3970.02,-2.705562762652168e-07
3970.92,-2.8147995237014e-07
3971.82,-3.096433950644714e-07
3972.72,-3.489904119327237e-07
3973.62,-3.9627636346651254e-07
3974.52,-4.4710216223817236e-07
3975.42,-4.96474354528672e-07
3976.32,-5.396636906251635e-07
3977.22,-5.841656014220208e-07
3978.13,-6.233947583283104e-07
3979.03,-6.610377313531043e-07
3979.93,-6.922790667631123e-07
3980.83,-7.133298996366568e-07
3981.73,-7.299526789373282e-07
3982.63,-7.438813072176844e-07
3983.53,-7.489835577031341e-07
3984.43,-7.569987566167581e-07
3985.33,-7.684940908036967e-07
3986.23,-7.754973872187153e-07
3987.13,-7.881757172075639e-07
3988.03,-8.00827598097691e-07
3988.93,-8.154603153934752e-07
3989.83,-8.229815261269709e-07
3990.73,-8.33489409319906e-07
3991.63,-8.402529794018893e-07
3992.53,-8.502827389020844e-07
3993.43,-8.551947007172972e-07
3994.33,-8.57080899280263e-07
3995.23,-8.50372705822161e-07
3996.13,-8.498697920072771e-07
3997.03,-8.437947737794039e-07
3997.93,-8.462916712718703e-07
3998.83,-8.493596266701648e-07
3999.73,-8.604403474076146e-07
4000.63,-8.744950427210712e-07
4001.53,-8.849118117435067e-07
4002.43,-8.929828506642255e-07
4003.33,-8.88840798311601e-07
4004.23,-8.88009842530126e-07
4005.13,-8.752935540806167e-07
4006.03,-8.686076458497681e-07
4006.93,-8.61285852213005e-07
4007.83,-8.657011706107823e-07
4008.73,-8.755855205463415e-07
4009.63,-8.887372846882832e-07
4010.53,-9.085584013535736e-07
4011.43,-9.132882069489722e-07
4012.33,-9.226521902825328e-07
4013.23,-9.259193358971167e-07
4014.13,-9.318038090432205e-07
4015.03,-9.361866266977916e-07
4015.93,-9.396022411008671e-07
4016.84,-9.39387212229024e-07
4017.74,-9.462167483177525e-07
4018.64,-9.506916394345287e-07
4019.54,-9.542215308441864e-07
4020.44,-9.537878507049024e-07
4021.34,-9.583580927959287e-07
4022.24,-9.595531820813563e-07
4023.14,-9.57932187228349e-07
4024.04,-9.559193049061143e-07
4024.94,-9.574889831998383e-07
4025.84,-9.619903879386366e-07
4026.74,-9.650335741196736e-07
4027.64,-9.646533745551017e-07
4028.54,-9.614379641560113e-07
4029.44,-9.548717987246798e-07
4030.34,-9.330545389123841e-07
4031.24,-9.15835941288373e-07
4032.14,-8.971876606865377e-07
4033.04,-8.808672463451855e-07
4033.94,-8.777062995982982e-07
4034.84,-8.92545059836608e-07
4035.74,-9.121531459847528e-07
4036.64,-9.392057026924597e-07
4037.54,-9.610991890754553e-07
4038.44,-9.844787411636992e-07
4039.34,-9.964366888986283e-07
4040.24,-1.0039025004380511e-06
4041.14,-9.938872241092803e-07
4042.04,-9.839575915787702e-07
4042.94,-9.655082275242784e-07
4043.84,-9.432840705878056e-07
4044.74,-9.189009016319923e-07
4045.64,-9.040008810857023e-07
4046.54,-8.952724163038947e-07
4047.44,-9.027460694269293e-07
4048.34,-9.179327014906774e-07
4049.24,-9.469666324641601e-07
4050.14,-9.640853485071013e-07
4051.04,-9.799447956778556e-07
4051.94,-9.844138813316504e-07
4052.84,-9.830753021653645e-07
4053.74,-9.718269301553389e-07
4054.65,-9.598849571213939e-07
4055.55,-9.499557083394189e-07
4056.45,-9.371949166811118e-07
4057.35,-9.330535817658835e-07
4058.25,-9.342429293059669e-07
4059.15,-9.383477974665087e-07
4060.05,-9.376882866983884e-07
4060.95,-9.402288706833714e-07
4061.85,-9.392184015007113e-07
4062.75,-9.277315330539747e-07
4063.65,-9.192038269232469e-07
4064.55,-9.153590462924374e-07
4065.45,-9.110871404580307e-07
4066.35,-9.173745437145881e-07
4067.25,-9.279669968778258e-07
4068.15,-9.41046615848177e-07
4069.05,-9.506087591333342e-07
4069.95,-9.60025591372767e-07
4070.85,-9.60050902523618e-07
4071.75,-9.532978875418732e-07
4072.65,-9.489833057965364e-07
4073.55,-9.462551408720779e-07
4074.45,-9.379795034560327e-07
4075.35,-9.3116277314264e-07
4076.25,-9.155389738207613e-07
4077.15,-9.069066393004033e-07
4078.05,-8.969416516609466e-07
4078.95,-8.972704225183735e-07
4079.85,-9.086503054536383e-07
4080.75,-9.312918734615212e-07
4081.65,-9.434403983074036e-07
4082.55,-9.591224545373626e-07
4083.45,-9.683569320590233e-07
4084.35,-9.671937475461627e-07
4085.25,-9.720753802349373e-07
4086.15,-9.738559935756756e-07
4087.05,-9.766077339202607e-07
4087.95,-9.870910817477674e-07
4088.85,-9.954039007445168e-07
4089.75,-1.0022058556990528e-06
4090.65,-1.0000903398443616e-06
4091.55,-9.92979457194988e-07
4092.45,-9.836834157521003e-07
4093.36,-9.66509672710374e-07
4094.26,-9.449555714681508e-07
4095.16,-9.222008167142125e-07
4096.06,-8.96104766625583e-07
4096.96,-8.656790273717691e-07
4097.86,-8.312749844099058e-07
4098.76,-7.968737958936687e-07
4099.66,-7.584369811010463e-07
4100.56,-7.238273025593806e-07
4101.46,-6.92817108606494e-07
4102.36,-6.796492433516387e-07
4103.26,-6.827567279409454e-07
4104.16,-6.981850889989519e-07
4105.06,-7.336429435117363e-07
4105.96,-7.715408299672049e-07
4106.86,-8.085506596471583e-07
4107.76,-8.467067173592685e-07
4108.66,-8.710318158118464e-07
4109.56,-8.920869927806268e-07
4110.46,-9.06727424643141e-07
4111.36,-9.220346179524321e-07
4112.26,-9.365748451485502e-07
4113.16,-9.536894225131453e-07
4114.06,-9.683299673327832e-07
4114.96,-9.864053303797103e-07
4115.86,-9.989927839544014e-07
4116.76,-1.0076046166555858e-06
4117.66,-1.0100703338769518e-06
4118.56,-1.0079891578862934e-06
4119.46,-1.0062040104521815e-06
4120.36,-9.999982459116932e-07
4121.26,-1.0008986978102042e-06
4122.16,-1.003840247663335e-06
4123.06,-1.010655213524469e-06
4123.96,-1.0136248810868324e-06
4124.86,-1.0212103944059137e-06
4125.76,-1.0258099651918282e-06
4126.66,-1.023863385151369e-06
4127.56,-1.0221145611075174e-06
4128.46,-1.0166874538056417e-06
4129.36,-1.00887443803361e-06
4130.26,-9.986395667747347e-07
4131.17,-9.965769105434307e-07
4132.06,-9.900733685529018e-07
4132.97,-9.881275543353799e-07
4133.87,-9.889746052071477e-07
4134.77,-1.0011243388919712e-06
4135.67,-1.0185598155353878e-06
4136.57,-1.035984784144307e-06
4137.47,-1.0555317690552486e-06
4138.37,-1.075540143492128e-06
4139.27,-1.0876251662212554e-06
4140.17,-1.0911043493476526e-06
4141.07,-1.0839874842904836e-06
4141.97,-1.0706469899130215e-06
4142.87,-1.0519608892551265e-06
4143.77,-1.0387084495727518e-06
4144.67,-1.02987515335522e-06
4145.57,-1.0281853658480302e-06
4146.47,-1.0380113534527745e-06
4147.37,-1.0462169193095142e-06
4148.27,-1.0533736672999412e-06
4149.17,-1.0618898356843785e-06
4150.07,-1.0618925009538072e-06
4150.97,-1.0590484604406125e-06
4151.87,-1.0599221227113414e-06
4152.77,-1.049167985642649e-06
4153.67,-1.0463304381859982e-06
4154.57,-1.041388373324133e-06
4155.47,-1.0410831242376557e-06
4156.37,-1.043519885238106e-06
4157.27,-1.0462441975777226e-06
4158.17,-1.0504221453902398e-06
4159.07,-1.0661965870016588e-06
4159.97,-1.0842314589126728e-06
4160.87,-1.0993192870528201e-06
4161.77,-1.107761914895505e-06
4162.67,-1.1161302050319753e-06
4163.57,-1.1240782945375188e-06
4164.47,-1.1308528301368823e-06
4165.37,-1.1263773977056786e-06
4166.27,-1.1176873631702213e-06
4167.17,-1.1143048611301191e-06
4168.07,-1.107819126872231e-06
4168.98,-1.0931691000422884e-06
4169.88,-1.0859368913781652e-06
4170.78,-1.0760390961251592e-06
4171.68,-1.0558874777898583e-06
4172.58,-1.0417504908784205e-06
4173.48,-1.0259139089051657e-06
4174.38,-1.0184084247087575e-06
4175.28,-1.0152708954374178e-06
4176.18,-1.0277123510541325e-06
4177.08,-1.0323692622584214e-06
4177.98,-1.036698717894097e-06
4178.88,-1.044596289894747e-06
4179.78,-1.0529675004036626e-06
4180.68,-1.0632988719098274e-06
4181.58,-1.0695424863723335e-06
4182.48,-1.0798322595622827e-06
4183.38,-1.0839069492356882e-06
4184.28,-1.093076714616367e-06
4185.18,-1.0946013310521066e-06
4186.08,-1.0970522087615454e-06
4186.98,-1.0985974942617365e-06
4187.88,-1.098663517549097e-06
4188.78,-1.1039654279808641e-06
4189.68,-1.1033239169846502e-06
4190.58,-1.1127562934605957e-06
4191.48,-1.125800840386034e-06
4192.38,-1.1324963839401647e-06
4193.28,-1.141393131927197e-06
4194.18,-1.1463752263110238e-06
4195.08,-1.1391716584739894e-06
4195.98,-1.1257717594240762e-06
4196.88,-1.1100534487110076e-06
4197.78,-1.0942719611069742e-06
4198.68,-1.077380872254299e-06
4199.58,-1.0710692741303746e-06
4200.48,-1.0603006071716076e-06
4201.38,-1.065046937847109e-06
4202.28,-1.071730239161671e-06
4203.18,-1.0810624648468321e-06
4204.08,-1.0929415108616603e-06
4204.98,-1.1098122445329691e-06
4205.88,-1.1246378702947983e-06
4206.79,-1.1393785344228049e-06
4207.69,-1.1515801532659146e-06
4208.59,-1.1709409332060065e-06
4209.49,-1.175421276842369e-06
4210.39,-1.1853195636237382e-06
4211.29,-1.182078277974364e-06
4212.19,-1.1817460378693045e-06
4213.09,-1.180841049507141e-06
4213.99,-1.1724372653466694e-06
4214.89,-1.1635389452559084e-06
4215.79,-1.1586003006994062e-06
4216.69,-1.1591464041995546e-06
4217.59,-1.160984212398465e-06
4218.49,-1.175226148030707e-06
4219.39,-1.195582532755873e-06
4220.29,-1.2037603350815363e-06
4221.19,-1.2102405890722583e-06
4222.09,-1.205211404222341e-06
4222.99,-1.1831205944322785e-06
4223.89,-1.1490230618293217e-06
4224.79,-1.1099386435223435e-06
4225.69,-1.0686518504084072e-06
4226.59,-1.0407932962087187e-06
4227.49,-1.0308523790701459e-06
4228.39,-1.0422229284056505e-06
4229.29,-1.0670056008944525e-06
4230.19,-1.10268587224313e-06
4231.09,-1.1423693011654346e-06
4231.99,-1.1641644655401006e-06
4232.89,-1.179872248777674e-06
4233.79,-1.1897341075043632e-06
4234.69,-1.1786207313668046e-06
4235.59,-1.169501146507838e-06
4236.49,-1.1581155523755901e-06
4237.39,-1.1582289365384319e-06
4238.29,-1.1586516036236406e-06
4239.19,-1.1635160995311096e-06
4240.09,-1.1725251487526768e-06
4240.99,-1.1879820092871985e-06
4241.89,-1.2017489952047688e-06
4242.79,-1.215788509240433e-06
4243.69,-1.234532655880658e-06
4244.59,-1.2337303166086828e-06
4245.5,-1.2380207007366935e-06
4246.4,-1.2356214765622391e-06
4247.3,-1.2226703827172085e-06
4248.2,-1.204315089137563e-06
4249.1,-1.1918661259895007e-06
4250.0,-1.1821514161045834e-06
4250.9,-1.168561461090067e-06
4251.8,-1.1762075813745941e-06
4252.7,-1.1825418951182836e-06
4253.6,-1.1876931932346642e-06
4254.5,-1.1964418099113387e-06
4255.4,-1.2029623221358354e-06
4256.3,-1.2120748004596791e-06
4257.2,-1.207292821015391e-06
4258.1,-1.205468880962395e-06
4259.0,-1.200585266038501e-06
4259.9,-1.192983698879727e-06
4260.8,-1.1919566662568186e-06
4261.7,-1.1971556123841007e-06
4262.6,-1.212923748532219e-06
4263.5,-1.235752703741413e-06
4264.4,-1.2565103835320735e-06
4265.3,-1.278300709132242e-06
4266.2,-1.2834563959152307e-06
4267.1,-1.2919232096278976e-06
4268.0,-1.2714189290085112e-06
4268.9,-1.2528472915071091e-06
4269.8,-1.2183543552010032e-06
4270.7,-1.1887467113083734e-06
4271.6,-1.1574362062853988e-06
4272.5,-1.1339254764862083e-06
4273.4,-1.1230222479938663e-06
4274.3,-1.1287214630988148e-06
4275.2,-1.1396499653999306e-06
4276.1,-1.1662034141416722e-06
4277.0,-1.1900671030748238e-06
4277.9,-1.2197921815533805e-06
4278.8,-1.2414690923740705e-06
