wave,flux
3700.85,-0.0018823848088612087
3701.75,-0.0018934034720605752
3702.65,-0.001867260187755797
3703.55,-0.00183125350295594
3704.45,-0.0017965819593521385
3705.35,-0.0017778916986888936
3706.25,-0.0017911768359814954
3707.15,-0.001814047965316325
3708.05,-0.0018636364951094382
3708.96,-0.0019061616452509251
3709.86,-0.0019495212614758903
3710.76,-0.001979011100269308
3711.66,-0.00201981387557621
3712.56,-0.002079819418487598
3713.46,-0.0021557738249812493
3714.36,-0.0022548029264444986
3715.26,-0.002359721536705653
3716.16,-0.0024577463584237835
3717.06,-0.002505066430542448
3717.96,-0.0025140519506714463
3718.86,-0.0024723241581665503
3719.76,-0.002385485590131538
3720.66,-0.0022700212867152866
3721.56,-0.002199326354457168
3722.46,-0.0021829317964448627
3723.36,-0.0022406158069112193
3724.26,-0.0023746342604054676
3725.16,-0.0025372263091844355
3726.06,-0.002694733652267379
3726.96,-0.0028356039793217096
3727.86,-0.0029522545034288594
3728.76,-0.0030222592103602776
3729.66,-0.003049373709370245
3730.56,-0.003041955833077193
3731.46,-0.0029534808738138868
3732.36,-0.002851172762930321
3733.26,-0.0026969668927722653
3734.16,-0.0025582959699162046
3735.06,-0.002495234752282818
3735.96,-0.0025095815267236494
3736.86,-0.002622274404955231
3737.76,-0.002828756116598705
3738.66,-0.003088761129774432
3739.56,-0.003360878028159913
3740.46,-0.0036087842730981863
3741.36,-0.003806634580343339
3742.26,-0.003929151551273133
3743.16,-0.003959741120189628
3744.06,-0.003956267485622147
3744.96,-0.0038826809911644477
3745.86,-0.003797224393707378
3746.76,-0.0036727455008828676
3747.67,-0.0035008112188745014
3748.57,-0.003341347243653534
3749.47,-0.0032216946411108426
3750.37,-0.0032100842882291543
3751.27,-0.003315199863411856
3752.17,-0.0035484492509859295
3753.07,-0.003884531474023613
3753.97,-0.004274056006708377
3754.87,-0.004605289580208047
3755.77,-0.004902794466933643
3756.67,-0.0050961900693064915
3757.57,-0.005202100238279555
3758.47,-0.005274917844613091
3759.37,-0.005334526153168254
3760.27,-0.005423469075129464
3761.17,-0.005549739571909146
3762.07,-0.00567040047249702
3762.97,-0.005800763016711954
3763.87,-0.005902788599317246
3764.77,-0.005998711323550294
3765.67,-0.005984731087363732
3766.57,-0.005946221838752359
3767.47,-0.005786622005087894
3768.37,-0.0055815660123470275
3769.27,-0.005408270655810634
3770.17,-0.005273002145965605
3771.07,-0.005266909853858985
3771.97,-0.005376228868515437
3772.87,-0.005646793983614258
3773.77,-0.005985751617835938
3774.67,-0.00641050216027016
3775.57,-0.0068650943403306235
3776.47,-0.00730611792331229
3777.37,-0.007714334204744826
3778.27,-0.00816423303197934
3779.17,-0.0085796073464352
3780.07,-0.00893807636546815
3780.97,-0.0093445929228561
3781.87,-0.009650604897404144
3782.77,-0.009901970408459224
3783.67,-0.010070577260132113
3784.57,-0.010224608468539358
3785.47,-0.010250070070856827
3786.38,-0.010261483899854202
3787.28,-0.010154306549926911
3788.18,-0.010171671798887488
3789.08,-0.010135831391775662
3789.98,-0.010160334116762693
3790.88,-0.01014778442091386
3791.78,-0.010092817012067119
3792.68,-0.009990093683359848
3793.58,-0.009702279259136531
3794.48,-0.009406641760790146
3795.38,-0.008999547851360565
3796.28,-0.008642507805145453
3797.18,-0.00826656856208501
3798.08,-0.008072724130454095
3798.98,-0.008201553840091058
3799.88,-0.008598658828418539
3800.78,-0.009239115990007072
3801.68,-0.010173583670430131
3802.58,-0.01114752668220968
3803.48,-0.012114518070544063
3804.38,-0.012931258660989826
3805.28,-0.013700837699911473
3806.18,-0.014256610519286563
3807.08,-0.014817069282750055
3807.98,-0.015366175174159905
3808.88,-0.01593390175329945
3809.78,-0.01653145961370821
3810.68,-0.01697387699319471
3811.58,-0.017474540685957225
3812.48,-0.017819713005561576
3813.38,-0.017959041105540842
3814.28,-0.01807416838271853
3815.18,-0.018272829549261745
3816.08,-0.01855881435580108
3816.98,-0.018985305723751008
3817.88,-0.019469605246226367
3818.78,-0.019818141744303797
3819.68,-0.02012649194630642
3820.58,-0.0203804389208647
3821.48,-0.020522969950840863
3822.38,-0.020707623064685314
3823.28,-0.02077555347587355
3824.18,-0.020782229372502674
3825.09,-0.020813856630009214
3825.99,-0.02072836839790343
3826.89,-0.020652126355367468
3827.79,-0.020537055093894117
3828.69,-0.02046794958490511
3829.59,-0.020248496777397575
3830.49,-0.019841095483532373
3831.39,-0.01932484588768173
3832.29,-0.018548344778262296
3833.19,-0.017718547853692767
3834.09,-0.016945637952659437
3834.99,-0.01629488028836207
3835.89,-0.01612495574559759
3836.79,-0.016323342778427997
3837.69,-0.01720380276296379
3838.59,-0.01843512839558631
3839.49,-0.020107177189680327
3840.39,-0.021963511589900096
3841.29,-0.02409376626665692
3842.19,-0.026067696459511156
3843.09,-0.0281455550462857
3843.99,-0.030166464992085796
3844.89,-0.031928989029255055
3845.79,-0.03358122310090926
3846.69,-0.03512121877352406
3847.59,-0.036649538302744665
3848.49,-0.03789407993904064
3849.39,-0.03905210849285587
3850.29,-0.0405646939268652
3851.19,-0.04183623579803955
3852.09,-0.04335419746636753
3852.99,-0.044520746469444414
3853.89,-0.046097728188931916
3854.79,-0.04733763307444578
3855.69,-0.04833882182788573
3856.59,-0.049344833869005615
3857.49,-0.04996742521128936
3858.39,-0.050884470964008874
3859.29,-0.05185581269271603
3860.19,-0.05321614166148723
3861.09,-0.054912490687531464
3861.99,-0.05635891969054163
3862.9,-0.05880496615032247
3863.8,-0.060784909122860574
3864.7,-0.062434390970574426
3865.6,-0.0644194135003431
3866.5,-0.06559596514730905
3867.4,-0.0673516745826239
3868.3,-0.06862958563010481
3869.2,-0.06977640902755637
3870.1,-0.07114210034725403
3871.0,-0.07205299057593742
3871.9,-0.07266552362771872
3872.8,-0.07331775641700017
3873.7,-0.07449179516284665
3874.6,-0.07572960053788204
3875.5,-0.07696160871256608
3876.4,-0.07817734454678156
3877.3,-0.07935508303993431
3878.2,-0.08008898177721557
3879.1,-0.08076513029000267
3880.0,-0.08163999643933695
3880.9,-0.08286043632796086
3881.8,-0.083714330806317
3882.7,-0.0842676892298567
3883.6,-0.08405752957720904
3884.5,-0.08341610684964883
3885.4,-0.08151214868289106
3886.3,-0.07890669110683542
3887.2,-0.07609834295676149
3888.1,-0.07390747866413892
3889.0,-0.07246647752042594
3889.9,-0.07316652064927381
3890.8,-0.07687629178267563
3891.7,-0.08251059249753441
3892.6,-0.08995252490211515
3893.5,-0.09859370013046824
3894.4,-0.1065576655555459
3895.3,-0.11542936376329006
3896.2,-0.12281095662521835
3897.1,-0.13044803012193817
3898.0,-0.13800331406349037
3898.9,-0.1451828656638451
3899.8,-0.1532273945362045
3900.7,-0.16097440522824133
3901.6,-0.16839047489401707
3902.51,-0.17601843951128263
3903.41,-0.18416301941654398
3904.31,-0.19177838972170794
3905.21,-0.19926714060281345
3906.11,-0.20709690504186729
3907.01,-0.21585731205826605
3907.91,-0.22640469343993544
3908.81,-0.23976943346417956
3909.71,-0.2529537071343419
3910.61,-0.26618330531868994
3911.51,-0.2787458284931468
3912.41,-0.2916047532853133
3913.31,-0.3019898985908281
3914.21,-0.3138670538406934
3915.11,-0.32387814227706296
3916.01,-0.3349346486002487
3916.91,-0.3460330640337889
3917.81,-0.3579017115106955
3918.71,-0.3698927849965368
3919.61,-0.38378206067560877
3920.51,-0.3995275666716697
3921.41,-0.41754343638537
3922.31,-0.4353607411563514
3923.21,-0.4556684042892715
3924.11,-0.474857634928645
3925.01,-0.4978622778907096
3925.91,-0.5157717220104648
3926.81,-0.5292082921259267
3927.71,-0.5369765588281018
3928.61,-0.5430286259526992
3929.51,-0.5400453348422627
3930.41,-0.529622753059807
3931.31,-0.5104138047531487
3932.21,-0.4878516553160196
3933.11,-0.47281686507700293
3934.01,-0.4724796280844432
3934.91,-0.4986117934589242
3935.81,-0.5593829572085244
3936.71,-0.6567809048649071
3937.61,-0.7907122035890886
3938.51,-0.9539314120340062
3939.42,-1.1347486245089051
3940.32,-1.324036665216388
3941.22,-1.5370038327123128
3942.12,-1.760159467128932
3943.02,-2.023281389517467
3943.92,-2.327259059434911
3944.82,-2.7180782263101544
3945.72,-3.229244662416057
3946.62,-3.940898154869143
3947.52,-4.95734948883308
3948.42,-6.6461304248978665
3949.32,-9.698086571953224
3950.22,-17.92209351465424
3951.12,-98.043125153236
3952.02,29.28302324768448
3952.92,12.910702038226038
3953.82,8.389975710799371
3954.72,6.196350645727924
3955.62,4.951893362622824
3956.52,4.123721728514628
3957.42,3.5082947107736415
3958.32,3.0446391067588485
3959.22,2.694233933422813
3960.12,2.404341204974069
3961.02,2.157073430417405
3961.92,1.9195418758195222
3962.82,1.7148500398832187
3963.72,1.5245134401690505
3964.62,1.3390222898769715
3965.52,1.1624005873391017
3966.42,0.9992231836430037
3967.32,0.8426285095167011
3968.22,0.7188041500830891
3969.12,0.6288389020289736
3970.02,0.5785758592101313
3970.92,0.5721635514086639
3971.82,0.6003373634141352
3972.72,0.6534537378224102
3973.62,0.7135542683987002
3974.52,0.7810484138856258
3975.42,0.8396587843069134
3976.32,0.8897459660964244
3977.22,0.9318632175861673
3978.13,0.9629719167879143
3979.03,0.9907520770990678
3979.93,1.0045278524316392
3980.83,1.0137746472293336
3981.73,1.0199927780798277
3982.63,1.0220709773403396
3983.53,1.0208955572663139
3984.43,1.020639799225502
3985.33,1.0192624579098695
3986.23,1.0215621561248585
3987.13,1.0212708227613854
3988.03,1.0194478126501083
3988.93,1.0263216706254357
3989.83,1.0230811647736926
3990.73,1.0253243508934986
3991.63,1.0244558082044197
3992.53,1.0224994042159994
3993.43,1.0237378020305037
3994.33,1.0185400341368704
3995.23,1.0110116744032016
3996.13,0.9976576981372968
3997.03,0.9860920336010881
3997.93,0.9823319522090018
3998.83,0.9812338239272351
3999.73,0.9848743771348173
4000.63,0.9833419690051086
4001.53,0.9916965293427162
4002.43,0.9965325317520703
4003.33,0.9901375274773295
4004.23,0.9872748659935549
4005.13,0.977846444501555
4006.03,0.9701299785531019
4006.93,0.9675912141803441
4007.83,0.969558302798954
4008.73,0.9738683569114561
4009.63,0.9799220427507549
4010.53,0.9868712283715714
4011.43,0.9943299674989587
4012.33,0.9921490344774962
4013.23,0.9902974673444632
4014.13,0.9963234675821483
4015.03,0.9913640723457876
4015.93,0.9951452614314975
4016.84,0.9948155501831287
4017.74,0.9991413437764312
4018.64,0.9989541384745213
4019.54,1.002737302755415
4020.44,1.003242272981549
4021.34,1.003741452281157
4022.24,1.0035612641864118
4023.14,1.0057721846689134
4024.04,1.0051572117034109
4024.94,1.0074908335707613
4025.84,1.0109713234199147
4026.74,1.0137541038157918
4027.64,1.0146375320631495
4028.54,1.0149308305575953
4029.44,1.0073732110867704
4030.34,0.9961949216056951
4031.24,0.9867411500142708
4032.14,0.9753733663025365
4033.04,0.9708539354274293
4033.94,0.976701641190411
4034.84,0.9848959923880468
4035.74,0.9949116046044083
4036.64,1.0141405802559063
4037.54,1.0232845368482109
4038.44,1.0410424283949937
4039.34,1.0475550415254338
4040.24,1.0501897380425844
4041.14,1.0450676627687416
4042.04,1.038035248557004
4042.94,1.0297355523281055
4043.84,1.0185853482584923
4044.74,1.0104179384788214
4045.64,1.003368482896887
4046.54,0.9964994683993439
4047.44,1.007064247586029
4048.34,1.0145104095227566
4049.24,1.026582877451875
4050.14,1.0386147839368682
4051.04,1.0477816046848456
4051.94,1.0521190531473272
4052.84,1.0531353981229887
4053.74,1.049471598848232
4054.65,1.0461707331705872
4055.55,1.0447430431515146
4056.45,1.0392858641980574
4057.35,1.038715289290826
4058.25,1.040612243743863
4059.15,1.0436610067362204
4060.05,1.0468385335695318
4060.95,1.0524209192336065
4061.85,1.0474208759676085
4062.75,1.0399390508673023
4063.65,1.0348841839888079
4064.55,1.0273398653652115
4065.45,1.0298767688129196
4066.35,1.0312134782968618
4067.25,1.0338196533352195
4068.15,1.0388502482283966
4069.05,1.0494448880846874
4069.95,1.050045571755662
4070.85,1.0508923559610879
4071.75,1.0489628452945792
4072.65,1.0471247074886552
4073.55,1.043831367749849
4074.45,1.0326512849978196
4075.35,1.0251591934890179
4076.25,1.0175343128321677
4077.15,1.0091758172435321
4078.05,1.001858046345748
4078.95,0.9966720706748629
4079.85,1.0004861448738318
4080.75,1.0090588901208484
4081.65,1.0195748894749947
4082.55,1.0281729337240066
4083.45,1.0310338673441068
4084.35,1.0289510217988955
4085.25,1.0275527487668907
4086.15,1.0255271054275354
4087.05,1.0253262913764918
4087.95,1.0336458300468778
4088.85,1.0316550909192723
4089.75,1.033572389083408
4090.65,1.0274140311673072
4091.55,1.0175797663777242
4092.45,1.0044714458039663
4093.36,0.9833004418546731
4094.26,0.9648944452431318
4095.16,0.9387905772992832
4096.06,0.9149991588685066
4096.96,0.8825831701750783
4097.86,0.8452700938704654
4098.76,0.8073632059231848
4099.66,0.7624637301006234
4100.56,0.7234440528572623
4101.46,0.6922370838621762
4102.36,0.669920737260793
4103.26,0.6680058286171918
4104.16,0.6877237571012955
4105.06,0.7190150409056263
4105.96,0.7595475814645362
4106.86,0.7995767416746824
4107.76,0.833764696623938
4108.66,0.8660707621134859
4109.56,0.88886309560003
4110.46,0.9145594518590019
4111.36,0.9290032693775059
4112.26,0.9454022410293054
4113.16,0.9629451158213779
4114.06,0.9813773165251333
4114.96,0.990944678151398
4115.86,1.0076232884011898
4116.76,1.0101183530364009
4117.66,1.0219883697702465
4118.56,1.0205546268134764
4119.46,1.020349641375027
4120.36,1.0233737212907221
4121.26,1.0197677110415204
4122.16,1.0245764375722355
4123.06,1.0289078080315281
4123.96,1.0330999895746074
4124.86,1.034817484961978
4125.76,1.0407237522688197
4126.66,1.0453299176598918
4127.56,1.045195677030528
4128.46,1.0436205964523924
4129.36,1.0400155798391906
4130.26,1.0392274282232312
4131.17,1.0311074568810417
4132.06,1.0295122163645252
4132.97,1.0270464380517728
4133.87,1.0259194107413816
4134.77,1.0318047453696668
4135.67,1.0345686523551425
4136.57,1.0469216057413362
4137.47,1.0511950965013805
4138.37,1.0656243100918898
4139.27,1.0693906818071437
4140.17,1.069596551807294
4141.07,1.0686718829109767
4141.97,1.0549611487343777
4142.87,1.0506380848625199
4143.77,1.0363891926939273
4144.67,1.0327506896861276
4145.57,1.0384678889153325
4146.47,1.0364478824248375
4147.37,1.040404073633482
4148.27,1.0499305347920962
4149.17,1.0487327042039145
4150.07,1.051624983202488
4150.97,1.0476963569997606
4151.87,1.045423333607714
4152.77,1.0447525912818048
4153.67,1.0394908252157273
4154.57,1.0286285779009738
4155.47,1.0299878178433983
4156.37,1.0269827169829415
4157.27,1.0287449309047447
4158.17,1.0346800103112606
4159.07,1.0413024114082257
4159.97,1.044994102538042
4160.87,1.0519287615863802
4161.77,1.054168519194134
4162.67,1.0519305402134829
4163.57,1.0544446517192545
4164.47,1.0553607971442758
4165.37,1.0554688438402207
4166.27,1.0516312767035063
4167.17,1.049607045853
4168.07,1.045117555624579
4168.98,1.0423274123072077
4169.88,1.0357833815668185
4170.78,1.0186613895691392
4171.68,1.0080124658394893
4172.58,0.9953825890710127
4173.48,0.9882591775798804
4174.38,0.9860997964106123
4175.28,0.9820289329798313
4176.18,0.981057064081434
4177.08,0.9831754920097066
4177.98,0.9868521563165537
4178.88,0.9991878434876186
4179.78,0.9999207321286787
4180.68,1.0018139551961056
4181.58,1.00639869458696
4182.48,1.0116742914034502
4183.38,1.0142270070537016
4184.28,1.012302197839388
4185.18,1.013254569864022
4186.08,1.0084076604685752
4186.98,1.0134873904495798
4187.88,1.0071552619944235
4188.78,1.0088253631087667
4189.68,1.0058459340823978
4190.58,1.012134937430627
4191.48,1.014311128166818
4192.38,1.0211671505741244
4193.28,1.0223328475421278
4194.18,1.0224863290367505
4195.08,1.0163077050699176
4195.98,1.015097942886724
4196.88,1.0040606028618366
4197.78,0.9951738532376966
4198.68,0.9882707309717218
4199.58,0.9829118566948628
4200.48,0.9758615383892738
4201.38,0.9743256694916296
4202.28,0.9756742603554299
4203.18,0.9811052511496857
4204.08,0.9844032488014359
4204.98,0.9910782571927009
4205.88,0.9961424745900221
4206.79,0.9961858249791807
4207.69,1.0048329247249979
4208.59,1.0122618876252416
4209.49,1.0158102699917395
4210.39,1.0173091963295824
4211.29,1.0132941614029451
4212.19,1.015727680322431
4213.09,1.015920502735221
4213.99,1.0134436869176526
4214.89,1.0012790940730765
4215.79,0.9984222434464679
4216.69,0.9947980120014189
4217.59,0.9969611829957618
4218.49,0.9977096337732445
4219.39,1.0043307703180095
4220.29,1.0127296716859973
4221.19,1.0130448133449559
4222.09,1.0107135336449184
4222.99,1.003538865028893
4223.89,0.9865766457650845
4224.79,0.972346036297587
4225.69,0.9530769635415989
4226.59,0.9407455234317987
4227.49,0.9350595394530832
4228.39,0.9424931914086714
4229.29,0.9556719625662006
4230.19,0.9726993684361821
4231.09,0.9868947848611207
4231.99,0.9986510208495925
4232.89,1.0026657467555518
4233.79,1.0058493823761763
4234.69,0.9996626233468734
4235.59,0.9979222496925866
4236.49,0.9898638643785344
4237.39,0.9887339960216631
4238.29,0.9983222039406271
4239.19,0.9985128579678962
4240.09,1.0033367088063374
4240.99,1.0083091906901953
4241.89,1.014515044478059
4242.79,1.0210456599537836
4243.69,1.026382707788875
4244.59,1.0236108349789486
4245.5,1.0243835002455188
4246.4,1.0155747056552615
4247.3,1.0056566743323636
4248.2,0.9995354661801299
4249.1,0.9998773887409755
4250.0,0.9929396151342369
4250.9,0.9956871356691914
4251.8,1.0015994227395262
4252.7,1.0096034637290632
4253.6,1.009709714838228
4254.5,1.017139792855228
4255.4,1.0222811225025972
4256.3,1.026109299712663
4257.2,1.0258553839117124
4258.1,1.0229088470427992
4259.0,1.0268750991966602
4259.9,1.0203176237352536
4260.8,1.0213204376370353
4261.7,1.0183207028189771
4262.6,1.0269679753632834
4263.5,1.0368423997770493
4264.4,1.045982629893139
4265.3,1.0536799909685617
4266.2,1.0585450447782374
4267.1,1.0560971156127748
4268.0,1.0563540771839544
4268.9,1.0435464977463647
4269.8,1.0295254659492623
4270.7,1.0182663061390782
4271.6,1.0094373658039302
4272.5,0.9984549246524401
4273.4,0.9949508158561738
4274.3,0.9942161738977551
4275.2,1.000924191492015
4276.1,1.0072693012344176
4277.0,1.022348781924095
4277.9,1.0319187258577012
4278.8,1.0381469404422592
4279.7,1.0417083314884836
4280.6,1.0429931539634876
4281.5,1.0407269911377426
4282.4,1.0388857159366622
4283.31,1.0333267260172638
4284.21,1.0295794051158305
4285.11,1.021530686059699
4286.01,1.0253791454820071
4286.91,1.0124365709468786
4287.81,1.002721340827462
4288.71,0.9932776302449706
4289.61,0.9848100744693681
4290.51,0.9792267486823323
4291.41,0.9832389095240309
4292.31,0.9876062536890194
4293.21,0.9896490671788947
4294.11,0.9954659379834455
4295.01,0.9957994356726192
4295.91,1.0015670164851722
4296.81,0.9937280092296057
4297.71,0.9766912400345672
4298.61,0.9664661943971472
4299.51,0.95343647119108
4300.41,0.9391514923923292
4301.31,0.9291859171562952
4302.21,0.9181272789055784
4303.11,0.9194431877486451
4304.01,0.9225624701088488
4304.91,0.9197794503773215
4305.81,0.9284980376572476
4306.71,0.929692210719061
4307.61,0.9290594873428255
4308.51,0.9264625064691066
4309.41,0.9301361038612129
4310.31,0.9302907663127918
4311.21,0.9374141828654335
4312.11,0.9453501283263712
4313.01,0.9579398139806707
4313.91,0.969258604744265
4314.81,0.9865549712456321
4315.71,1.0032539854050728
4316.61,1.022062239613546
4317.51,1.0413439524077532
4318.41,1.0549853995947567
4319.31,1.057837881429319
4320.21,1.0573011095195695
4321.12,1.0540735161649188
4322.02,1.0426116148287399
4322.92,1.0259654159920109
4323.82,1.0083061546616512
4324.72,0.9908247500208535
4325.62,0.9780652273825667
4326.52,0.9705205828066807
4327.42,0.9702499072209623
4328.32,0.9752249151292949
4329.22,0.9792660529546382
4330.12,0.979196474184234
4331.02,0.9834573083635383
4331.92,0.9835121817220119
4332.82,0.9735585375754668
4333.72,0.961597565692782
4334.62,0.9458494594671601
4335.52,0.9189239370278196
4336.42,0.8870651286495109
4337.32,0.8470591784998117
4338.22,0.8001312976400636
4339.12,0.7584505774832635
4340.02,0.7254801711918242
4340.92,0.7018269205892044
4341.82,0.69801941626034
4342.72,0.7087192300905112
4343.62,0.7395247424831932
4344.52,0.7791950869862213
4345.42,0.8190931804668993
4346.32,0.8585167947312793
4347.22,0.8909924600155044
4348.12,0.9141328915999121
4349.02,0.9387274559056732
