wave,flux
3700.85,-6.583950738975593e-05
3701.75,-6.534592771235051e-05
3702.65,-6.378743257540421e-05
3703.55,-6.11375848804923e-05
3704.45,-5.809900989049973e-05
3705.35,-5.5418877367258086e-05
3706.25,-5.382168379450337e-05
3707.15,-5.3343433573156145e-05
3708.05,-5.3718713533785655e-05
3708.96,-5.486048849024479e-05
3709.86,-5.656782003724959e-05
3710.76,-5.863336633764494e-05
3711.66,-6.13884315540622e-05
3712.56,-6.444254138750616e-05
3713.46,-6.752321929384193e-05
3714.36,-7.006527752370733e-05
3715.26,-7.228689647311866e-05
3716.16,-7.299939521396869e-05
3717.06,-7.22992044432914e-05
3717.96,-7.02028094639068e-05
3718.86,-6.671306579104729e-05
3719.76,-6.260721764901351e-05
3720.66,-5.840688116032147e-05
3721.56,-5.5538345689528255e-05
3722.46,-5.5136673249703764e-05
3723.36,-5.675829403712643e-05
3724.26,-6.0268413281497396e-05
3725.16,-6.409763939093681e-05
3726.06,-6.770393067241305e-05
3726.96,-6.997522336342733e-05
3727.86,-7.135672022994777e-05
3728.76,-7.184490329792837e-05
3729.66,-7.133128236328375e-05
3730.56,-7.012999212524534e-05
3731.46,-6.816508477622648e-05
3732.36,-6.443530306904492e-05
3733.26,-6.017180981271754e-05
3734.16,-5.588211158282132e-05
3735.06,-5.303212349551506e-05
3735.96,-5.1705966940961735e-05
3736.86,-5.3462256715939404e-05
3737.76,-5.677565141642863e-05
3738.66,-6.206385987567707e-05
3739.56,-6.734598687876688e-05
3740.46,-7.244900765928183e-05
3741.36,-7.54591092286467e-05
3742.26,-7.676804523975603e-05
3743.16,-7.629053803726214e-05
3744.06,-7.406985649386774e-05
3744.96,-7.108709816822372e-05
3745.86,-6.78344124014921e-05
3746.76,-6.453070301385754e-05
3747.67,-6.119267690136286e-05
3748.57,-5.880772596645218e-05
3749.47,-5.7614914320137134e-05
3750.37,-5.828943921725018e-05
3751.27,-6.161599929208057e-05
3752.17,-6.720117410930252e-05
3753.07,-7.364846621505137e-05
3753.97,-8.008263268457464e-05
3754.87,-8.534268677242918e-05
3755.77,-8.843494828118337e-05
3756.67,-8.910478808029954e-05
3757.57,-8.739672321998318e-05
3758.47,-8.535182149643678e-05
3759.37,-8.323086077011972e-05
3760.27,-8.224407874940647e-05
3761.17,-8.322668347832654e-05
3762.07,-8.479038637288199e-05
3762.97,-8.625371041512018e-05
3763.87,-8.817256497418206e-05
3764.77,-8.825432543061598e-05
3765.67,-8.863189106299998e-05
3766.57,-8.772814774863785e-05
3767.47,-8.666151748648859e-05
3768.37,-8.568759772698162e-05
3769.27,-8.427039355183267e-05
3770.17,-8.383549819149434e-05
3771.07,-8.48055559627323e-05
3771.97,-8.693580767552533e-05
3772.87,-9.034629575483264e-05
3773.77,-9.422302847370568e-05
3774.67,-9.841830845163911e-05
3775.57,-0.00010171856922404895
3776.47,-0.00010485867256147104
3777.37,-0.00010778679494122068
3778.27,-0.00011102924406680702
3779.17,-0.00011437902326781439
3780.07,-0.00011831641828215965
3780.97,-0.00012038362372675194
3781.87,-0.00012305426726530756
3782.77,-0.00012489548269212371
3783.67,-0.00012599595086866912
3784.57,-0.0001250641171050282
3785.47,-0.00012271642742404994
3786.38,-0.00011936183639215772
3787.28,-0.00011556332929091939
3788.18,-0.00011209160989551505
3789.08,-0.00010990852753721651
3789.98,-0.00010812601433265449
3790.88,-0.00010723911014270945
3791.78,-0.00010650403152988033
3792.68,-0.00010581949644639156
3793.58,-0.00010358592994783088
3794.48,-0.00010035736778320224
3795.38,-9.685240514357864e-05
3796.28,-9.319478435077655e-05
3797.18,-8.930888609012875e-05
3798.08,-8.777235776096377e-05
3798.98,-8.815507054500366e-05
3799.88,-9.142052917853215e-05
3800.78,-9.702182176245621e-05
3801.68,-0.00010521461387304732
3802.58,-0.00011331004453236893
3803.48,-0.00012088291123514267
3804.38,-0.00012620771420052273
3805.28,-0.0001304537347106481
3806.18,-0.00013227508054436396
3807.08,-0.000134252821395134
3807.98,-0.0001354539043762847
3808.88,-0.0001372744350965932
3809.78,-0.00014013962426411732
3810.68,-0.00014200602258433875
3811.58,-0.0001423496309790792
3812.48,-0.00014078812701897057
3813.38,-0.00013756568668893965
3814.28,-0.00013364706176578815
3815.18,-0.00012979329508319717
3816.08,-0.00012916367966280497
3816.98,-0.00012738046633296217
3817.88,-0.0001285261199990021
3818.78,-0.0001293888286894954
3819.68,-0.00012812626054171754
3820.58,-0.00012788034038508516
3821.48,-0.00012719599894567358
3822.38,-0.0001261898200546479
3823.28,-0.00012521675302038407
3824.18,-0.00012338954192945984
3825.09,-0.00012040262330330426
3825.99,-0.00011738586075171308
3826.89,-0.0001146049866009555
3827.79,-0.00011273356424286881
3828.69,-0.00011171134023186329
3829.59,-0.00011058166577704283
3830.49,-0.00010950851415802823
3831.39,-0.00010670149334905435
3832.29,-0.00010291076795870272
3833.19,-9.888946581382731e-05
3834.09,-9.485828997166568e-05
3834.99,-9.229858952113043e-05
3835.89,-9.134117062704231e-05
3836.79,-9.177534384088915e-05
3837.69,-9.429267241083307e-05
3838.59,-9.78554217474283e-05
3839.49,-0.0001028965830807463
3840.39,-0.00010909323478020234
3841.29,-0.00011767315493455411
3842.19,-0.00012630125704734963
3843.09,-0.000135890901216188
3843.99,-0.00014479085706628527
3844.89,-0.0001509372282611424
3845.79,-0.00015762895535567263
3846.69,-0.00016192096860531495
3847.59,-0.00016554604909137284
3848.49,-0.00016750903688426456
3849.39,-0.00017101592583348844
3850.29,-0.00017217399057767262
3851.19,-0.0001747163164532668
3852.09,-0.00017520953564581512
3852.99,-0.00017770061522425152
3853.89,-0.00017842863770227863
3854.79,-0.00017796098977290452
3855.69,-0.00017663784979352664
3856.59,-0.00017421405507888905
3857.49,-0.00017202248813968913
3858.39,-0.00016892086459908872
3859.29,-0.00016870469903448586
3860.19,-0.00016897535904421596
3861.09,-0.00017174319647698285
3861.99,-0.0001774516682302033
3862.9,-0.00018397300045232132
3863.8,-0.0001899642596588218
3864.7,-0.0001947042438444999
3865.6,-0.00019811594064196063
3866.5,-0.00019917763700641946
3867.4,-0.00019896632010409735
3868.3,-0.00019779344167524988
3869.2,-0.0001965622540655259
3870.1,-0.00019380505275479185
3871.0,-0.00019153949332954874
3871.9,-0.00018863704269180651
3872.8,-0.0001873857641644662
3873.7,-0.00018721264293578902
3874.6,-0.00019000289156479417
3875.5,-0.00019189271940665974
3876.4,-0.00019427964947100917
3877.3,-0.00019544048266521136
3878.2,-0.00019399713543864956
3879.1,-0.0001918737989709054
3880.0,-0.00019224128370124393
3880.9,-0.00019106243639404913
3881.8,-0.00019083533526385944
3882.7,-0.00018973552965261266
3883.6,-0.00018815194835279715
3884.5,-0.00018439572619674603
3885.4,-0.00017873141423170496
3886.3,-0.00017207456608202965
3887.2,-0.0001658068965053705
3888.1,-0.0001605109532451212
3889.0,-0.00015840901994602805
3889.9,-0.00016011900319747737
3890.8,-0.00016647403283739627
3891.7,-0.00017644221702000254
3892.6,-0.00018709912157884807
3893.5,-0.00019745026332695462
3894.4,-0.00020562649521837928
3895.3,-0.00021370398246867544
3896.2,-0.0002187727946483411
3897.1,-0.0002243611187355622
3898.0,-0.00022915672230233166
3898.9,-0.00023296051322029256
3899.8,-0.0002375662689212461
3900.7,-0.00024030677184900984
3901.6,-0.0002434345309774354
3902.51,-0.0002460328466953918
3903.41,-0.00024581186295631434
3904.31,-0.00024650999543548963
3905.21,-0.0002460681583897296
3906.11,-0.0002472565863389821
3907.01,-0.00025102729083768496
3907.91,-0.0002575342144257129
3908.81,-0.0002665622001764026
3909.71,-0.0002743960323749256
3910.61,-0.00028472098837643687
3911.51,-0.00028972914201934866
3912.41,-0.0002943468106811735
3913.31,-0.00029723658709549243
3914.21,-0.0002989950903890954
3915.11,-0.00029632513731986794
3916.01,-0.00029476219723151547
3916.91,-0.0002934490716202396
3917.81,-0.00028901646299354065
3918.71,-0.00028546478383097206
3919.61,-0.0002824263886531762
3920.51,-0.00027850879984565993
3921.41,-0.000275978412778491
3922.31,-0.0002747406719798119
3923.21,-0.00027476266504132855
3924.11,-0.00027276072304679197
3925.01,-0.0002699724294481749
3925.91,-0.0002634301695134113
3926.81,-0.0002529360467594309
3927.71,-0.0002376853797522219
3928.61,-0.00021863256049881732
3929.51,-0.00019821777326847919
3930.41,-0.00017621671556058226
3931.31,-0.00015452227728212687
3932.21,-0.00013531947565638799
3933.11,-0.0001195106210137742
3934.01,-0.00011122983466588678
3934.91,-0.0001097304468343421
3935.81,-0.00011778323334757045
3936.71,-0.0001332903784903803
3937.61,-0.00015504527443152056
3938.51,-0.00017986869291445487
3939.42,-0.0002049100649918015
3940.32,-0.00022970535908143502
3941.22,-0.00024831801148432085
3942.12,-0.00026388636313266284
3943.02,-0.0002760885939667684
3943.92,-0.0002855059725004769
3944.82,-0.0002949267659456899
3945.72,-0.0003073188715717328
3946.62,-0.00031683699561408236
3947.52,-0.00032858011027883
3948.42,-0.0003376980430023355
3949.32,-0.0003470116254509827
3950.22,-0.0003533295681334574
3951.12,-0.0003599546153295511
3952.02,-0.000365018040747415
3952.92,-0.0003685395789308337
3953.82,-0.0003732717456752205
3954.72,-0.00037332381590982647
3955.62,-0.000376438466399302
3956.52,-0.00037502545073856195
3957.42,-0.0003739053618711364
3958.32,-0.00037132092695518195
3959.22,-0.00036663379186055456
3960.12,-0.0003596209712410171
3961.02,-0.00034645315407241876
3961.92,-0.0003296650931759863
3962.82,-0.000308951078652328
3963.72,-0.0002881396244182693
3964.62,-0.000264386306034168
3965.52,-0.0002398413090316112
3966.42,-0.00021453515832036254
3967.32,-0.00018943643810508286
3968.22,-0.00016825830408096043
3969.12,-0.00015596175342068278
3970.02,-0.00015363564875444814
3970.92,-0.00016258179076572107
3971.82,-0.0001810438147340518
3972.72,-0.00020754368509005167
3973.62,-0.0002382813634391497
3974.52,-0.0002715790271514392
3975.42,-0.000302140210940232
3976.32,-0.000332637860430578
3977.22,-0.00036049635004320007
3978.13,-0.0003881151438175015
3979.03,-0.0004109860101295609
3979.93,-0.00043340157296079717
3980.83,-0.0004509174182422806
3981.73,-0.00046199969315111115
3982.63,-0.00047044038881714165
3983.53,-0.00047598390614526936
3984.43,-0.0004814721400567989
3985.33,-0.0004906729911838073
3986.23,-0.000500096163799204
3987.13,-0.0005089544088651359
3988.03,-0.0005211145846934985
3988.93,-0.000526605901983901
3989.83,-0.0005379898762939878
3990.73,-0.0005442299874221963
3991.63,-0.0005546738734546044
3992.53,-0.0005589581038113907
3993.43,-0.0005676671561451454
3994.33,-0.0005710627741325522
3995.23,-0.0005707164418423039
3996.13,-0.0005723197003507748
3997.03,-0.0005712223286450967
3997.93,-0.0005712238746412668
3998.83,-0.0005777100079451613
3999.73,-0.0005896172899227832
4000.63,-0.0006023493476169121
4001.53,-0.0006131595480452891
4002.43,-0.0006225187628869891
4003.33,-0.0006280720226089889
4004.23,-0.0006242829804037422
4005.13,-0.0006193714393261449
4006.03,-0.0006152216290439043
4006.93,-0.0006152579705770282
4007.83,-0.0006221637293776379
4008.73,-0.000631280536305606
4009.63,-0.0006477333553192227
4010.53,-0.000662423196507324
4011.43,-0.0006694321093938522
4012.33,-0.0006856023787169657
4013.23,-0.0006906354781789883
4014.13,-0.0006974440848158053
4015.03,-0.0007065439968837761
4015.93,-0.0007102678149068668
4016.84,-0.00071615521570254
4017.74,-0.000719079488051734
4018.64,-0.0007288288846634157
4019.54,-0.0007387415228273541
4020.44,-0.0007449225705431227
4021.34,-0.0007452027978119764
4022.24,-0.0007546719623468215
4023.14,-0.00075771025799837
4024.04,-0.0007595719941236849
4024.94,-0.0007655859927062795
4025.84,-0.0007712115914913282
4026.74,-0.0007815847649646252
4027.64,-0.0007856841408125596
4028.54,-0.0007920826695711256
4029.44,-0.0007834656130297561
4030.34,-0.0007754960446593782
4031.24,-0.0007605865862594624
4032.14,-0.0007482290188890958
4033.04,-0.0007401396966399818
4033.94,-0.0007423621602039641
4034.84,-0.0007575358656101078
4035.74,-0.0007810716602075371
4036.64,-0.0008088016297045197
4037.54,-0.0008395834679616626
4038.44,-0.0008595891424495727
4039.34,-0.0008774039379026855
4040.24,-0.0008856386866557046
4041.14,-0.0008836628157775329
4042.04,-0.0008757799476138109
4042.94,-0.0008650087845025204
4043.84,-0.000847094464436997
4044.74,-0.0008316185541943882
4045.64,-0.0008185381842769992
4046.54,-0.000815199680995554
4047.44,-0.0008232509699632478
4048.34,-0.000851488497070029
4049.24,-0.0008771352935769223
4050.14,-0.0009033477953171347
4051.04,-0.000930977314546019
4051.94,-0.0009424704503734202
4052.84,-0.0009395032100107831
4053.74,-0.0009349193026054416
4054.65,-0.0009328030802816062
4055.55,-0.0009219963093863669
4056.45,-0.0009177818989968297
4057.35,-0.0009196997455521145
4058.25,-0.0009266550716680962
4059.15,-0.0009332730698777557
4060.05,-0.0009407414423466618
4060.95,-0.0009462479422890881
4061.85,-0.0009447777201484145
4062.75,-0.0009457537741176331
4063.65,-0.0009404135746568671
4064.55,-0.0009362208494552958
4065.45,-0.0009453889973126662
4066.35,-0.0009517422237713017
4067.25,-0.000973358317783432
4068.15,-0.0009964819349040765
4069.05,-0.001013710627777987
4069.95,-0.0010323344850173748
4070.85,-0.0010374264518104301
4071.75,-0.0010378027873883724
4072.65,-0.001043772835238061
4073.55,-0.0010436953522461882
4074.45,-0.0010439485666155627
4075.35,-0.0010360818569999397
4076.25,-0.0010277311250723401
4077.15,-0.0010189352404449444
4078.05,-0.0010207266329786725
4078.95,-0.0010271028986789863
4079.85,-0.001042525540485585
4080.75,-0.0010789226498571808
4081.65,-0.0011066342165000115
4082.55,-0.0011353606249700392
4083.45,-0.0011524305069135902
4084.35,-0.0011660303115001577
4085.25,-0.0011757037077852982
4086.15,-0.001191379676942325
4087.05,-0.0012102438008950941
4087.95,-0.001231634432537098
4088.85,-0.0012566750558179848
4089.75,-0.001274563097842898
4090.65,-0.0012887514169372955
4091.55,-0.0012882084352998581
4092.45,-0.0012859890695624157
4093.36,-0.0012772279236522
4094.26,-0.0012668214956226558
4095.16,-0.0012435735405745727
4096.06,-0.001219636886586088
4096.96,-0.0011947493049145803
4097.86,-0.0011626349878233932
4098.76,-0.0011201467915558322
4099.66,-0.0010833510173567174
4100.56,-0.0010416522769072605
4101.46,-0.001012478252416939
4102.36,-0.000999447787720827
4103.26,-0.0010088869029412475
4104.16,-0.0010406315696633315
4105.06,-0.001091417076303905
4105.96,-0.0011486320780860983
4106.86,-0.0012129513107135797
4107.76,-0.00126138835677857
4108.66,-0.00130319265084331
4109.56,-0.001339046044382083
4110.46,-0.0013604391900615478
4111.36,-0.0013834568348573698
4112.26,-0.001407816995488258
4113.16,-0.0014407413824743464
4114.06,-0.0014723562714675888
4114.96,-0.0014976122414909398
4115.86,-0.0015276717873388584
4116.76,-0.0015444300607037886
4117.66,-0.001549334630303058
4118.56,-0.0015572204623478265
4119.46,-0.0015607494471875623
4120.36,-0.001560194871700503
4121.26,-0.0015680203780527838
4122.16,-0.0015729581625666936
4123.06,-0.001591802106851683
4123.96,-0.0016086025642987468
4124.86,-0.0016275279491685818
4125.76,-0.0016484477276812427
4126.66,-0.0016571203363518893
4127.56,-0.001660075010077615
4128.46,-0.001654924026582777
4129.36,-0.001663932774701341
4130.26,-0.0016611280201224011
4131.17,-0.0016588538323775975
4132.06,-0.001644628342315016
4132.97,-0.0016555532930709726
4133.87,-0.0016665014691999724
4134.77,-0.0016946890707072054
4135.67,-0.0017365411292286621
4136.57,-0.0017784385953846585
4137.47,-0.0018283360018449375
4138.37,-0.0018639086407942357
4139.27,-0.0019024755686710278
4140.17,-0.001922013666369664
4141.07,-0.001918029833799372
4141.97,-0.0019077985113390792
4142.87,-0.0018733207223877784
4143.77,-0.0018540279911890838
4144.67,-0.0018538781828307295
4145.57,-0.001868389774855592
4146.47,-0.001901392693365883
4147.37,-0.0019428584891019159
4148.27,-0.0019654578677741996
4149.17,-0.001993586008210096
4150.07,-0.0020069398543428765
4150.97,-0.002019318045015048
4151.87,-0.0020150567174119093
4152.77,-0.002027224644180874
4153.67,-0.0020236438289638566
4154.57,-0.002033858527920668
4155.47,-0.0020424675262589237
4156.37,-0.0020633254996343664
4157.27,-0.0020857236034788735
4158.17,-0.0021149786636722465
4159.07,-0.002158375863156754
4159.97,-0.0021963151425181487
4160.87,-0.0022545225466380253
4161.77,-0.0022891168601987745
4162.67,-0.0023267087931666927
4163.57,-0.0023609164445129215
4164.47,-0.0023772090491854464
4165.37,-0.0023976401234063758
4166.27,-0.0024020688395869393
4167.17,-0.002397811083400112
4168.07,-0.002388714683226731
4168.98,-0.002385505428969349
4169.88,-0.002380747309626606
4170.78,-0.00236755250830974
4171.68,-0.002337008222506703
4172.58,-0.002327385478410565
4173.48,-0.002300727275139375
4174.38,-0.0022976599451754033
4175.28,-0.0023066636340758396
4176.18,-0.002339392750228356
4177.08,-0.0023807309241213243
4177.98,-0.002421779433766316
4178.88,-0.002458023537285346
4179.78,-0.002495209496012497
4180.68,-0.0025348046624959607
4181.58,-0.0025699467480490516
4182.48,-0.002601431072755066
4183.38,-0.002624083463854391
4184.28,-0.0026685987026890275
4185.18,-0.0026906484092149275
4186.08,-0.0027057717545565783
4186.98,-0.0027300096837645214
4187.88,-0.0027523496304734797
4188.78,-0.002769389514637808
4189.68,-0.0028073180003426834
4190.58,-0.0028477110657289524
4191.48,-0.0028980438530756226
4192.38,-0.0029544073709299634
4193.28,-0.002981541348802677
4194.18,-0.003003987104020831
4195.08,-0.003006239602862456
4195.98,-0.0030069591581542766
4196.88,-0.0029691072197744165
4197.78,-0.0029446201543297857
4198.68,-0.0029208156269884375
4199.58,-0.0029250739125190276
4200.48,-0.0029281756775080534
4201.38,-0.0029309639556389256
4202.28,-0.002990437253787626
4203.18,-0.0030359382193102017
4204.08,-0.0030965656601930794
4204.98,-0.0031656930950269982
4205.88,-0.0032336817275460607
4206.79,-0.0033081782129942656
4207.69,-0.0033900808166892377
4208.59,-0.0034431060619926116
4209.49,-0.0035007737048197846
4210.39,-0.003553087131255169
4211.29,-0.003575136119744372
4212.19,-0.0035998567958268604
4213.09,-0.0035994514976121087
4213.99,-0.003617835022628539
4214.89,-0.0036133681169562737
4215.79,-0.0036235840331984167
4216.69,-0.003635299455604034
4217.59,-0.00367820596710745
4218.49,-0.0037578552683335256
4219.39,-0.0038244083215153712
4220.29,-0.0039021166546154935
4221.19,-0.003955056885271807
4222.09,-0.003959452972475374
4222.99,-0.003913181101634044
4223.89,-0.0038204814145119978
4224.79,-0.0037195229274951318
4225.69,-0.0035899519203693403
4226.59,-0.003494174613789719
4227.49,-0.0034914341456320336
4228.39,-0.0035538156090535273
4229.29,-0.003677346057760128
4230.19,-0.0038382627118495236
4231.09,-0.0040159358235107795
4231.99,-0.004165152518977597
4232.89,-0.004238085400540217
4233.79,-0.004272113342000556
4234.69,-0.004307189827414137
4235.59,-0.004286424514656125
4236.49,-0.0042957763285304046
4237.39,-0.0043135207822283745
4238.29,-0.004338743098687296
4239.19,-0.004411332681052137
4240.09,-0.004484419606810104
4240.99,-0.004571240460556705
4241.89,-0.00465352619164459
4242.79,-0.004762594937908634
4243.69,-0.004857591027299448
4244.59,-0.004933431843719657
4245.5,-0.004963757909403699
4246.4,-0.004982016946971788
4247.3,-0.004981910521801424
4248.2,-0.004942878749658618
4249.1,-0.004896169377488405
4250.0,-0.004899619182247933
4250.9,-0.004924274805548624
4251.8,-0.004975836526303615
4252.7,-0.00501101201585919
4253.6,-0.005088572922764584
4254.5,-0.005163759768888555
4255.4,-0.005212195842081474
4256.3,-0.005283311858884802
4257.2,-0.005338966174540446
4258.1,-0.00537702925528183
4259.0,-0.005396336867971524
4259.9,-0.005388618219108881
4260.8,-0.005424855293137921
4261.7,-0.0054922961682046635
4262.6,-0.005609148455951202
4263.5,-0.005757380852715693
4264.4,-0.005932236025066038
4265.3,-0.006056152156211627
4266.2,-0.006158693517671207
4267.1,-0.006229556929080052
4268.0,-0.006200192030502748
4268.9,-0.0061224965279322325
4269.8,-0.006009750044065669
4270.7,-0.005909780407515325
4271.6,-0.0057594489110621445
4272.5,-0.005691358373618609
4273.4,-0.005691339869238264
4274.3,-0.005741469023380187
4275.2,-0.0058915435852298715
4276.1,-0.006069945690940229
4277.0,-0.006251318139030716
4277.9,-0.0064717485981156805
4278.8,-0.006637009144387111
4279.7,-0.006746817009032444
4280.6,-0.006843922000963556
4281.5,-0.006862548395378441
4282.4,-0.006879293771698553
