wave,flux
3700.85,-0.003297896193922357
3701.75,-0.0032954618262398217
3702.65,-0.0032418906195015224
3703.55,-0.0031420392288256465
3704.45,-0.003014900454325978
3705.35,-0.002911124981932425
3706.25,-0.0028492156906974463
3707.15,-0.0028280248679244642
3708.05,-0.002883759488876946
3708.96,-0.002978260173193819
3709.86,-0.003083400380092456
3710.76,-0.0032305107671136944
3711.66,-0.003386231099451528
3712.56,-0.0035740827419986124
3713.46,-0.0037761118535510965
3714.36,-0.003972662389271265
3715.26,-0.004129392209717679
3716.16,-0.004215196880692035
3717.06,-0.004239194602900775
3717.96,-0.0041534992169550864
3718.86,-0.003994615453667909
3719.76,-0.0037553865448498006
3720.66,-0.003566903777418786
3721.56,-0.0034142676898163008
3722.46,-0.00342395875988403
3723.36,-0.0035621220660777735
3724.26,-0.0037899823205959104
3725.16,-0.004084123597704255
3726.06,-0.004344477915851537
3726.96,-0.00453666036132277
3727.86,-0.004678369117653584
3728.76,-0.004769065464590533
3729.66,-0.004761727784990522
3730.56,-0.004732608250391996
3731.46,-0.004606773529979342
3732.36,-0.004401813867856889
3733.26,-0.00414234408846399
3734.16,-0.003906301260077385
3735.06,-0.003725524114210057
3735.96,-0.0037090808722122838
3736.86,-0.0038627288347340247
3737.76,-0.004167829062655536
3738.66,-0.004581127601394317
3739.56,-0.005049258701495215
3740.46,-0.005454266866669352
3741.36,-0.005751371001596116
3742.26,-0.005917201480080394
3743.16,-0.0059392956685146445
3744.06,-0.005809443616867365
3744.96,-0.00563876267960427
3745.86,-0.005395225945058079
3746.76,-0.005193370536112813
3747.67,-0.004978467866526569
3748.57,-0.004810321339814517
3749.47,-0.004727132786684791
3750.37,-0.004841182225664346
3751.27,-0.005177714579871813
3752.17,-0.005692259560717787
3753.07,-0.006291790055528561
3753.97,-0.00695538978240684
3754.87,-0.007497124657909996
3755.77,-0.007870317329044056
3756.67,-0.008045831043108015
3757.57,-0.008013906297782815
3758.47,-0.007903557696639913
3759.37,-0.00781567786710778
3760.27,-0.007870061339726007
3761.17,-0.00799316892367547
3762.07,-0.008257884075068252
3762.97,-0.008406685277097968
3763.87,-0.008639104439396517
3764.77,-0.008795467339821223
3765.67,-0.008828525885827616
3766.57,-0.008806990357841486
3767.47,-0.008735464999617694
3768.37,-0.008664774815584768
3769.27,-0.008622163757779187
3770.17,-0.008604656235346923
3771.07,-0.008752363804655909
3771.97,-0.009077855272692637
3772.87,-0.009584058715693684
3773.77,-0.010154436025007865
3774.67,-0.01076827964131892
3775.57,-0.011413124761211663
3776.47,-0.011907651260325194
3777.37,-0.012425067979333806
3778.27,-0.01298793480056048
3779.17,-0.013584992025442664
3780.07,-0.01415868125822975
3780.97,-0.0147649824837695
3781.87,-0.015211355097342252
3782.77,-0.015639255747043702
3783.67,-0.015938422762783698
3784.57,-0.015984230187783457
3785.47,-0.015893203400785958
3786.38,-0.015696720816371523
3787.28,-0.015348454859933365
3788.18,-0.015052066418656345
3789.08,-0.014834294486487728
3789.98,-0.014795872124488603
3790.88,-0.01479394065155436
3791.78,-0.014869647749737668
3792.68,-0.014790078088872028
3793.58,-0.014622237112907771
3794.48,-0.014278694800109149
3795.38,-0.013799776527459931
3796.28,-0.01335351225631243
3797.18,-0.013020124108249187
3798.08,-0.012837514538871591
3798.98,-0.013041219840256194
3799.88,-0.013725858974628215
3800.78,-0.014931737933204306
3801.68,-0.016304305198281355
3802.58,-0.01785880657722567
3803.48,-0.01936394315987534
3804.38,-0.020611300701915292
3805.28,-0.0216319859152634
3806.18,-0.022349679656901066
3807.08,-0.0228973383967704
3807.98,-0.023668499730693838
3808.88,-0.024498918440885597
3809.78,-0.025255812793642272
3810.68,-0.02600718422542627
3811.58,-0.026472596035219207
3812.48,-0.0265447320017485
3813.38,-0.026398856952099845
3814.28,-0.025920557772687505
3815.18,-0.025714984605464168
3816.08,-0.025768708362722426
3816.98,-0.026083005079772067
3817.88,-0.026530934680626214
3818.78,-0.026999046439932107
3819.68,-0.02724860852370352
3820.58,-0.02758016908814386
3821.48,-0.027629208385413447
3822.38,-0.027816642728267352
3823.28,-0.02794746175840336
3824.18,-0.028031560396764545
3825.09,-0.027662454081237693
3825.99,-0.027332173625143563
3826.89,-0.026938547516103105
3827.79,-0.02686071779527667
3828.69,-0.026812211258190097
3829.59,-0.026837551570095194
3830.49,-0.026777319863348942
3831.39,-0.026488510959944783
3832.29,-0.025912061648279774
3833.19,-0.025034921229540655
3834.09,-0.024306671390121617
3834.99,-0.023988609836490305
3835.89,-0.024044491720292206
3836.79,-0.024644799836065746
3837.69,-0.025682756328118166
3838.59,-0.027386772722707096
3839.49,-0.029164085590217426
3840.39,-0.03175017212194718
3841.29,-0.03464394501407059
3842.19,-0.037916346717084444
3843.09,-0.04142230574533409
3843.99,-0.04471325235157486
3844.89,-0.047936514055306266
3845.79,-0.05078583714270361
3846.69,-0.053142775558937906
3847.59,-0.05536483259499288
3848.49,-0.05751901562019769
3849.39,-0.05931777198439576
3850.29,-0.06104369763623864
3851.19,-0.06294561012700187
3852.09,-0.06470543382653446
3852.99,-0.06645682629493012
3853.89,-0.06798418354741118
3854.79,-0.06911798413295746
3855.69,-0.07033159907952653
3856.59,-0.07044629113730555
3857.49,-0.07110226258889785
3858.39,-0.07156311327971851
3859.29,-0.0724921133650461
3860.19,-0.0737841175606367
3861.09,-0.07675272025928317
3861.99,-0.08082420067163057
3862.9,-0.08501758610390373
3863.8,-0.08937073452027958
3864.7,-0.09299760192409869
3865.6,-0.09619588291117848
3866.5,-0.09838942054926209
3867.4,-0.10050728798306478
3868.3,-0.10217413541328903
3869.2,-0.10393240886447054
3870.1,-0.10453068518267934
3871.0,-0.10537742403257891
3871.9,-0.1059822711740998
3872.8,-0.10700378602252772
3873.7,-0.11003964667041644
3874.6,-0.11352952925390299
3875.5,-0.11707953237155187
3876.4,-0.12101662606648517
3877.3,-0.12352893170131361
3878.2,-0.12566742111851345
3879.1,-0.12696877079721222
3880.0,-0.12871057236706437
3880.9,-0.13012177290439983
3881.8,-0.13292087512229167
3882.7,-0.13472534209691264
3883.6,-0.13655005720676558
3884.5,-0.13565293347296387
3885.4,-0.13479079055091994
3886.3,-0.13142759467423976
3887.2,-0.1292877632843881
3888.1,-0.12755319569641968
3889.0,-0.12878807550209606
3889.9,-0.13337438960516254
3890.8,-0.1434296618625226
3891.7,-0.15562129185443296
3892.6,-0.1706776779955895
3893.5,-0.18493020348226266
3894.4,-0.2004506674920946
3895.3,-0.2145997079621543
3896.2,-0.22781980920792072
3897.1,-0.24107715115933545
3898.0,-0.2541025733108958
3898.9,-0.26727963255829446
3899.8,-0.28168604077540016
3900.7,-0.29577830433477753
3901.6,-0.3091905616541325
3902.51,-0.32351098132741796
3903.41,-0.33476760492987984
3904.31,-0.3469338559962926
3905.21,-0.3604822851762539
3906.11,-0.3748703572505213
3907.01,-0.3969150407043429
3907.91,-0.4230259397579188
3908.81,-0.45561919955820257
3909.71,-0.48954023358090654
3910.61,-0.5268214931892893
3911.51,-0.5605953911048265
3912.41,-0.5932192483908456
3913.31,-0.6252234493490941
3914.21,-0.6551714562709664
3915.11,-0.6838208696848347
3916.01,-0.7135028283354052
3916.91,-0.7429924680150156
3917.81,-0.7766335196902374
3918.71,-0.8074112442147462
3919.61,-0.8468566640303441
3920.51,-0.8880131868526553
3921.41,-0.9364679077634649
3922.31,-0.9921890489369037
3923.21,-1.0572733529546494
3924.11,-1.1346145190094359
3925.01,-1.2118816169145135
3925.91,-1.2866730245792797
3926.81,-1.349554560843237
3927.71,-1.4047041057209066
3928.61,-1.436704377238123
3929.51,-1.4565795796512724
3930.41,-1.4668599029561626
3931.31,-1.4790842757033864
3932.21,-1.5256913541170691
3933.11,-1.6309260910922663
3934.01,-1.8771891495205681
3934.91,-2.4505099226370266
3935.81,-3.781644399096079
3936.71,-7.548660252893079
3937.61,-36.74566734892949
3938.51,19.472504107050323
3939.42,8.940216332227305
3940.32,6.269413199476403
3941.22,4.9965907451692715
3942.12,4.1861271994989515
3943.02,3.6127612347364337
3943.92,3.200394716484887
3944.82,2.8908306438702374
3945.72,2.6643021334433317
3946.62,2.4875355172605995
3947.52,2.340459904955781
3948.42,2.2132918440800218
3949.32,2.1031677389477417
3950.22,1.9998395706425918
3951.12,1.9103811534958748
3952.02,1.8157974512445325
3952.92,1.7447112519488228
3953.82,1.6651452248236844
3954.72,1.5987372322750304
3955.62,1.5279551956876538
3956.52,1.4645393212379596
3957.42,1.3954487922895953
3958.32,1.3328838106004546
3959.22,1.2674941999289417
3960.12,1.1966406081847973
3961.02,1.117908221049936
3961.92,1.0335351395643253
3962.82,0.9435539710755783
3963.72,0.8548332939300729
3964.62,0.7644954686273289
3965.52,0.6784755022669164
3966.42,0.5905787669001968
3967.32,0.5100929052603972
3968.22,0.4476634165176817
3969.12,0.4059814673823317
3970.02,0.3880717583372512
3970.92,0.3995431263868822
3971.82,0.43439238053678214
3972.72,0.4866404630107476
3973.62,0.5440361078598361
3974.52,0.6059518554886538
3975.42,0.6645328938589969
3976.32,0.7224416623641494
3977.22,0.7702275561301399
3978.13,0.8164950992901799
3979.03,0.8536963491214347
3979.93,0.8839318394535044
3980.83,0.9077672780311726
3981.73,0.9212869706485118
3982.63,0.9238397926010957
3983.53,0.9251128095525071
3984.43,0.9299281222332945
3985.33,0.9345001283965931
3986.23,0.938549804153184
3987.13,0.943622907232132
3988.03,0.950641992321793
3988.93,0.958827440372478
3989.83,0.9654866408470834
3990.73,0.9748106619164192
3991.63,0.9810895204635962
3992.53,0.9806636861089385
3993.43,0.981237952549743
3994.33,0.9799956691039202
3995.23,0.9726643464044431
3996.13,0.9687629142277154
3997.03,0.9558491920431527
3997.93,0.951137033395732
3998.83,0.9528231615796309
3999.73,0.9629828959152767
4000.63,0.9836032706682186
4001.53,0.9935558902766096
4002.43,0.9942007459630872
4003.33,0.9893182631006949
4004.23,0.979604278478103
4005.13,0.9635807079418064
4006.03,0.9474393076754549
4006.93,0.9404331839682925
4007.83,0.945009655184511
4008.73,0.9582052125108746
4009.63,0.9694677987030049
4010.53,0.9858243378148254
4011.43,0.9951884003821034
4012.33,0.9995418773727403
4013.23,1.0069671343608912
4014.13,1.0107567841654799
4015.03,1.014588805360571
4015.93,1.0150122103863395
4016.84,1.0181597501079718
4017.74,1.0207909503756134
4018.64,1.024246966503833
4019.54,1.0334122508175003
4020.44,1.0362510707825738
4021.34,1.0390207499056388
4022.24,1.0398212638671365
4023.14,1.0376701017604788
4024.04,1.0338434930305413
4024.94,1.0303268956531724
4025.84,1.0330912373981593
4026.74,1.0385120416098788
4027.64,1.0384004655912245
4028.54,1.0358280454659314
4029.44,1.0228254762130038
4030.34,1.0036081095191214
4031.24,0.9788649479412717
4032.14,0.9521968619111267
4033.04,0.9418683716334845
4033.94,0.9447727642902574
4034.84,0.9524472934507148
4035.74,0.9750346786611253
4036.64,1.0064961925704086
4037.54,1.0329705155656634
4038.44,1.0553116169207573
4039.34,1.0723077234649996
4040.24,1.0748796307706794
4041.14,1.072656271012848
4042.04,1.0563023887350136
4042.94,1.0384228857878615
4043.84,1.0116369885865928
4044.74,0.98731072291146
4045.64,0.9672979504399137
4046.54,0.9567511635083682
4047.44,0.9644202943812181
4048.34,0.98320583388642
4049.24,1.0087890993194337
4050.14,1.0391744652278376
4051.04,1.0610804003533578
4051.94,1.0599662126366467
4052.84,1.0565015975012064
4053.74,1.0472989435084503
4054.65,1.0317127802441517
4055.55,1.0198062360116034
4056.45,1.0062441939245723
4057.35,0.9969093518578261
4058.25,0.998692610163636
4059.15,1.0004647658952839
4060.05,1.0027469751832232
4060.95,1.0065923253364109
4061.85,1.0080199564139662
4062.75,0.9950127437835492
4063.65,0.9834321490923079
4064.55,0.9734892557646266
4065.45,0.972072529695617
4066.35,0.9807095456860678
4067.25,0.9930420695733383
4068.15,1.0046650303095863
4069.05,1.0168149849246126
4069.95,1.0292471805498293
4070.85,1.030093138639894
4071.75,1.028034936234024
4072.65,1.019198783622695
4073.55,1.0121153009033503
4074.45,1.0072868966392243
4075.35,0.9975547486935209
4076.25,0.9857490488180487
4077.15,0.9668952221504257
4078.05,0.9611022037805298
4078.95,0.9666628677715718
4079.85,0.9752932123853842
4080.75,0.9953648798971205
4081.65,1.0184729140799562
4082.55,1.0313342138361985
4083.45,1.0425094950825726
4084.35,1.0442630997016409
4085.25,1.041725598550904
4086.15,1.0468479199202265
4087.05,1.0534857960985025
4087.95,1.0694960632211092
4088.85,1.0722740037817893
4089.75,1.0791325349616312
4090.65,1.0780415586003356
4091.55,1.0744686989405197
4092.45,1.0558460264508172
4093.36,1.0400534861288622
4094.26,1.015587478619064
4095.16,0.9943760711837387
4096.06,0.9600456476019238
4096.96,0.9288443194556802
4097.86,0.8902314065143118
4098.76,0.8536954167050708
4099.66,0.8151481235448363
4100.56,0.7767340152889914
4101.46,0.7458311477454411
4102.36,0.7294021730291791
4103.26,0.7285455104924713
4104.16,0.7485126312785554
4105.06,0.7837255456046922
4105.96,0.8255402859478956
4106.86,0.8660999792531261
4107.76,0.8989377730062719
4108.66,0.9231957781929764
4109.56,0.9387691010576157
4110.46,0.9568571755396403
4111.36,0.9684877245426335
4112.26,0.982293354214306
4113.16,0.9987423373074761
4114.06,1.0157253516421956
4114.96,1.028751472333643
4115.86,1.039599033019195
4116.76,1.049436746827665
4117.66,1.047155108294284
4118.56,1.0432311268538113
4119.46,1.0387633469871358
4120.36,1.0343189098104053
4121.26,1.0251119811252076
4122.16,1.0286709158206755
4123.06,1.0298162103404795
4123.96,1.0347773267915994
4124.86,1.0391264996652183
4125.76,1.0427193104546049
4126.66,1.0379142422588241
4127.56,1.0362505930705568
4128.46,1.03276726977158
4129.36,1.0191956013372723
4130.26,1.0097333995002344
4131.17,1.0019323118862422
4132.06,0.9905163580935059
4132.97,0.9879997951866109
4133.87,0.9879643940143009
4134.77,0.9995625376713247
4135.67,1.0109330958590053
4136.57,1.0310053700883006
4137.47,1.050616313071016
4138.37,1.068698805264155
4139.27,1.0822663236226375
4140.17,1.0848679459322446
4141.07,1.0729697396854279
4141.97,1.0528901177973176
4142.87,1.0345352244184531
4143.77,1.0185019381120208
4144.67,1.0063889465787659
4145.57,1.004047846432553
4146.47,1.0065695241358439
4147.37,1.021818892164461
4148.27,1.0300623865717726
4149.17,1.0298144626265315
4150.07,1.0304977395657189
4150.97,1.0240690266010881
4151.87,1.0157441253804553
4152.77,1.013448911528706
4153.67,1.0059679290477348
4154.57,0.9983572881597488
4155.47,0.9936992750798364
4156.37,0.9946287634136399
4157.27,0.9951669611712208
4158.17,1.0028499939402553
4159.07,1.0186643946604066
4159.97,1.0283068293744433
4160.87,1.0434229112478304
4161.77,1.0504658322567695
4162.67,1.0598691411507148
4163.57,1.0670163512295243
4164.47,1.0690701494296846
4165.37,1.0644321321303158
4166.27,1.0634268596116971
4167.17,1.0492558364511273
4168.07,1.0392696743343597
4168.98,1.0303100464903499
4169.88,1.015833239928381
4170.78,1.0033259297808486
4171.68,0.9841100548169083
4172.58,0.9684657912356985
4173.48,0.9530966420066355
4174.38,0.9431074852782753
4175.28,0.9393603123274525
4176.18,0.9439079132310878
4177.08,0.9467266719783198
4177.98,0.9539666503026736
4178.88,0.9638566799549702
4179.78,0.9725282908962065
4180.68,0.9744396549700158
4181.58,0.9830104554548768
4182.48,0.9862839067744364
4183.38,0.9940001115411484
4184.28,0.9955725192998998
4185.18,0.9973887337041514
4186.08,0.9940739389020986
4186.98,1.0000160094288766
4187.88,0.9969888094224054
4188.78,0.9986030539920577
4189.68,1.0010130240978412
4190.58,1.0102157351831034
4191.48,1.0209505488853892
4192.38,1.027056632903683
4193.28,1.033816365069323
4194.18,1.0328298704475916
4195.08,1.0272700277758056
4195.98,1.0137389186842778
4196.88,0.9925037349190668
4197.78,0.9772886456500003
4198.68,0.9646145306565401
4199.58,0.9506661642042444
4200.48,0.9471577440759771
4201.38,0.9473059950334763
4202.28,0.9502152166552381
4203.18,0.9626633583574172
4204.08,0.972924455508688
4204.98,0.9839644013640076
4205.88,1.0044761703956533
4206.79,1.0077781498756613
4207.69,1.0256999731270824
4208.59,1.037842793397472
4209.49,1.0442088122664706
4210.39,1.0491891455346392
4211.29,1.0516020472413123
4212.19,1.0447370761497223
4213.09,1.0434293438491464
4213.99,1.0353765500372842
4214.89,1.0279970341383107
4215.79,1.0178478089779428
4216.69,1.017863884583915
4217.59,1.0231297657859089
4218.49,1.0359369182292035
4219.39,1.048005133572622
4220.29,1.0588744110480712
4221.19,1.066515269837103
4222.09,1.0505781579022344
4222.99,1.0354791782527342
4223.89,1.0020146465747857
4224.79,0.9658287997895691
4225.69,0.9281344119011822
4226.59,0.8979263573300825
4227.49,0.8888253805952363
4228.39,0.8969489714987143
4229.29,0.9226012296140296
4230.19,0.9532149581635858
4231.09,0.987871334954593
4231.99,1.0140064010226442
4232.89,1.0258359433016075
4233.79,1.0311766091363097
4234.69,1.0182489239726988
4235.59,1.0102727234040363
4236.49,1.0018517230589725
4237.39,1.00006898612697
4238.29,1.0015655918384392
4239.19,1.0051538662827746
4240.09,1.0139893515177412
4240.99,1.022745237116637
4241.89,1.038343216686935
4242.79,1.0531889187698764
4243.69,1.0650349866944413
4244.59,1.0708319184710762
4245.5,1.0725612452460707
4246.4,1.0635937681415648
4247.3,1.0543646214418034
4248.2,1.038239061585874
4249.1,1.0220141481635725
4250.0,1.0122167347009314
4250.9,1.0077202064505202
4251.8,1.0061887547118784
4252.7,1.0073937562832345
4253.6,1.0122828653689804
4254.5,1.020723786424679
4255.4,1.0257883667337733
4256.3,1.0312312072003202
4257.2,1.0359517382925219
4258.1,1.0300022338743522
4259.0,1.0276319652625254
4259.9,1.0197318031904696
4260.8,1.010767851389839
4261.7,1.0148920069699563
4262.6,1.0332483224939202
4263.5,1.0522299990085098
4264.4,1.0675433471663835
4265.3,1.09094723483737
4266.2,1.1018885440975217
4267.1,1.0987545403605086
4268.0,1.08714026909978
4268.9,1.0649378827154903
4269.8,1.0391470146327975
4270.7,1.0058912577060115
4271.6,0.9770542078369593
4272.5,0.9552454447769136
4273.4,0.9461641366000725
4274.3,0.945228676250791
4275.2,0.9635167056724531
4276.1,0.9838743591186773
4277.0,1.0062740252282787
4277.9,1.0279340491459146
4278.8,1.0463550208721384
4279.7,1.0600859540230576
4280.6,1.0640497943389229
4281.5,1.0619370856661023
4282.4,1.0576289390019318
4283.31,1.0495046039358469
4284.21,1.039391490771182
4285.11,1.032183211427115
4286.01,1.0210507594879827
4286.91,1.0067477644312202
4287.81,0.9902656774022136
4288.71,0.972264528443275
4289.61,0.9631826300889412
4290.51,0.9551150242188482
4291.41,0.9530894278160307
4292.31,0.9546288149027865
4293.21,0.9710274598655207
4294.11,0.978222129925079
4295.01,0.9845257944658782
4295.91,0.9784447705924728
4296.81,0.9679164599696897
4297.71,0.9495141527101875
4298.61,0.9234883327464974
4299.51,0.8926683164670737
4300.41,0.8673230325717031
4301.31,0.8476031645765241
4302.21,0.8354311228680057
4303.11,0.834238244684357
4304.01,0.8340350158588853
4304.91,0.8406792269267468
4305.81,0.8365061718082994
4306.71,0.8350525488289956
4307.61,0.8300462924508264
4308.51,0.8289373285548386
4309.41,0.8309607871258935
4310.31,0.8399018003493273
4311.21,0.8583700775241665
4312.11,0.8802919002919696
4313.01,0.9125549953428859
4313.91,0.9467341901508819
4314.81,0.9785687457724427
4315.71,1.0187694667325948
4316.61,1.055208607543366
4317.51,1.0889027662731003
4318.41,1.1115646923962903
4319.31,1.1248007686634423
4320.21,1.1214729965814312
4321.12,1.1095283723778715
4322.02,1.0826609859511203
4322.92,1.0531073535832711
4323.82,1.0195874224277979
4324.72,0.9859774109831709
4325.62,0.9572700364818367
4326.52,0.9512235901102273
4327.42,0.9587469825306594
4328.32,0.9782592488357222
4329.22,0.9969415656072185
4330.12,1.0236170681678642
4331.02,1.039741542216948
4331.92,1.0521468409776726
4332.82,1.0522320737048794
4333.72,1.0458597926374593
4334.62,1.030450641999751
4335.52,1.003713420952493
4336.42,0.9723642405416879
4337.32,0.920626509538643
4338.22,0.8719804565732939
4339.12,0.8253805034141989
4340.02,0.783200541038382
4340.92,0.7574743870593887
4341.82,0.7556383409766064
4342.72,0.7649817024990992
4343.62,0.7994608656341263
4344.52,0.840085786907926
4345.42,0.8850972904148556
4346.32,0.9247494755929452
4347.22,0.9589198451234074
4348.12,0.9884531893440678
4349.02,0.9996961832877111
4349.92,1.0075714221850978
4350.82,1.0009119210709994
