wave,flux
3700.85,-5.119922827742039e-07
3701.75,-5.069396218913953e-07
3702.65,-4.870116641556497e-07
3703.55,-4.636358380328114e-07
3704.45,-4.3632647091225157e-07
3705.35,-4.117110979801696e-07
3706.25,-3.910739686561998e-07
3707.15,-3.8176425316790625e-07
3708.05,-3.823813336406377e-07
3708.96,-3.892656942842967e-07
3709.86,-4.037200173054694e-07
3710.76,-4.2505689427924377e-07
3711.66,-4.467113169306199e-07
3712.56,-4.755294084161229e-07
3713.46,-4.967856787401773e-07
3714.36,-5.1631486673224e-07
3715.26,-5.267671389501787e-07
3716.16,-5.220119577187481e-07
3717.06,-5.07356610967503e-07
3717.96,-4.838211076590016e-07
3718.86,-4.5073733961319934e-07
3719.76,-4.12434059213265e-07
3720.66,-3.8040982968624944e-07
3721.56,-3.5888178303980394e-07
3722.46,-3.563588379219617e-07
3723.36,-3.7025373294811384e-07
3724.26,-3.974151497003825e-07
3725.16,-4.236356590033831e-07
3726.06,-4.478660575469119e-07
3726.96,-4.606484569071775e-07
3727.86,-4.6430937113349525e-07
3728.76,-4.6655285780645053e-07
3729.66,-4.625710964775697e-07
3730.56,-4.5283644206371475e-07
3731.46,-4.351311691629031e-07
3732.36,-4.113934111907105e-07
3733.26,-3.796663637166229e-07
3734.16,-3.4837326796740176e-07
3735.06,-3.225620254918748e-07
3735.96,-3.0980977930292136e-07
3736.86,-3.1304221074127673e-07
3737.76,-3.3154696013093537e-07
3738.66,-3.620376957632068e-07
3739.56,-3.9526727576700467e-07
3740.46,-4.270498348007211e-07
3741.36,-4.4617054382221397e-07
3742.26,-4.532879965820414e-07
3743.16,-4.448629395403258e-07
3744.06,-4.259745182316427e-07
3744.96,-4.0453901796584046e-07
3745.86,-3.7918442785751445e-07
3746.76,-3.5742400030735134e-07
3747.67,-3.3968108431071296e-07
3748.57,-3.2763546767504795e-07
3749.47,-3.2559075815214505e-07
3750.37,-3.3256398678550105e-07
3751.27,-3.5907328514672946e-07
3752.17,-3.9429305110082066e-07
3753.07,-4.3313400043231097e-07
3753.97,-4.687620266643071e-07
3754.87,-4.954372397477625e-07
3755.77,-5.060330260028278e-07
3756.67,-5.00966143604682e-07
3757.57,-4.867656328420941e-07
3758.47,-4.655015568896383e-07
3759.37,-4.5036269572610597e-07
3760.27,-4.4111374902479266e-07
3761.17,-4.4230705961556115e-07
3762.07,-4.490938335436131e-07
3762.97,-4.58164805603524e-07
3763.87,-4.646825917995418e-07
3764.77,-4.7159117700814246e-07
3765.67,-4.709171060772744e-07
3766.57,-4.7121284151293465e-07
3767.47,-4.6707058469269413e-07
3768.37,-4.6782818196438316e-07
3769.27,-4.7053470357753145e-07
3770.17,-4.7528016263416786e-07
3771.07,-4.850395030320266e-07
3771.97,-4.96896560377898e-07
3772.87,-5.123018688605618e-07
3773.77,-5.299889132384118e-07
3774.67,-5.433649312270877e-07
3775.57,-5.555289203667021e-07
3776.47,-5.67159987081272e-07
3777.37,-5.683102805695701e-07
3778.27,-5.789476263588632e-07
3779.17,-5.875937861167535e-07
3780.07,-6.01691204254087e-07
3780.97,-6.115722461666753e-07
3781.87,-6.199269876439091e-07
3782.77,-6.273950783412891e-07
3783.67,-6.229339025353439e-07
3784.57,-6.185502877034252e-07
3785.47,-6.007743677801775e-07
3786.38,-5.790089950116715e-07
3787.28,-5.53317784678645e-07
3788.18,-5.328876280775902e-07
3789.08,-5.174736552621332e-07
3789.98,-5.099858928684598e-07
3790.88,-5.03349678990504e-07
3791.78,-5.038037059315459e-07
3792.68,-5.017440934553029e-07
3793.58,-4.949079466397328e-07
3794.48,-4.834994639091482e-07
3795.38,-4.680713168284168e-07
3796.28,-4.515274032620083e-07
3797.18,-4.3830613925572643e-07
3798.08,-4.297806943411654e-07
3798.98,-4.3027803035618017e-07
3799.88,-4.425951190250321e-07
3800.78,-4.6803570117964915e-07
3801.68,-5.00083043907574e-07
3802.58,-5.376167427684591e-07
3803.48,-5.653148111775071e-07
3804.38,-5.85211865273481e-07
3805.28,-5.973744770743711e-07
3806.18,-5.997165033137695e-07
3807.08,-5.966090824574751e-07
3807.98,-5.967089711546322e-07
3808.88,-6.004654666133392e-07
3809.78,-6.040960901322411e-07
3810.68,-6.041136090938753e-07
3811.58,-6.023636624563239e-07
3812.48,-5.879196531219746e-07
3813.38,-5.672529756524995e-07
3814.28,-5.43801977993471e-07
3815.18,-5.187119184505174e-07
3816.08,-5.028067005420537e-07
3816.98,-4.944678772684206e-07
3817.88,-4.903816549366711e-07
3818.78,-4.878896716503969e-07
3819.68,-4.785782866863084e-07
3820.58,-4.709883051008604e-07
3821.48,-4.6222409913856386e-07
3822.38,-4.578204552306302e-07
3823.28,-4.513969410159874e-07
3824.18,-4.417668653581925e-07
3825.09,-4.2901987383857567e-07
3825.99,-4.146044019567931e-07
3826.89,-4.0334335839033985e-07
3827.79,-3.9315277549717277e-07
3828.69,-3.916315385705692e-07
3829.59,-3.88658689470266e-07
3830.49,-3.8639162388744126e-07
3831.39,-3.8086167887699466e-07
3832.29,-3.7054424745813596e-07
3833.19,-3.594221538846731e-07
3834.09,-3.4802197129665663e-07
3834.99,-3.4319584156886135e-07
3835.89,-3.415706730660853e-07
3836.79,-3.4563853898625e-07
3837.69,-3.487202722526967e-07
3838.59,-3.54785546680362e-07
3839.49,-3.632654274476013e-07
3840.39,-3.786919080466717e-07
3841.29,-4.0473946411844837e-07
3842.19,-4.353087145067248e-07
3843.09,-4.7115536097126017e-07
3843.99,-5.037211723864322e-07
3844.89,-5.331478707863599e-07
3845.79,-5.545793149437843e-07
3846.69,-5.646979134786646e-07
3847.59,-5.73551824407709e-07
3848.49,-5.752220932086099e-07
3849.39,-5.729018921689296e-07
3850.29,-5.718634006946192e-07
3851.19,-5.708686190613734e-07
3852.09,-5.712983953533364e-07
3852.99,-5.72834175049236e-07
3853.89,-5.726202705985575e-07
3854.79,-5.648369055641791e-07
3855.69,-5.526506094356136e-07
3856.59,-5.390545906865874e-07
3857.49,-5.18075221514747e-07
3858.39,-5.033565756977066e-07
3859.29,-4.934323020133346e-07
3860.19,-4.88176386835756e-07
3861.09,-4.967517563845212e-07
3861.99,-5.149658751408586e-07
3862.9,-5.417339610073711e-07
3863.8,-5.637482599540124e-07
3864.7,-5.814670816997748e-07
3865.6,-5.918922770061645e-07
3866.5,-5.916410875511242e-07
3867.4,-5.901736406780652e-07
3868.3,-5.851939135333134e-07
3869.2,-5.738823064429888e-07
3870.1,-5.587057831486831e-07
3871.0,-5.433602649187356e-07
3871.9,-5.300994601999965e-07
3872.8,-5.244756679368269e-07
3873.7,-5.244869099792003e-07
3874.6,-5.350932663464223e-07
3875.5,-5.467557178571614e-07
3876.4,-5.495227174276451e-07
3877.3,-5.532388583216683e-07
3878.2,-5.457598507610337e-07
3879.1,-5.388817217988021e-07
3880.0,-5.334584658189965e-07
3880.9,-5.341861918134874e-07
3881.8,-5.306928898316785e-07
3882.7,-5.352172642763307e-07
3883.6,-5.327158093649072e-07
3884.5,-5.262611266572819e-07
3885.4,-5.146519680929548e-07
3886.3,-4.992561610943642e-07
3887.2,-4.873138218568125e-07
3888.1,-4.778318826590743e-07
3889.0,-4.749843702960094e-07
3889.9,-4.847400812428642e-07
3890.8,-5.054390297536442e-07
3891.7,-5.31638858552673e-07
3892.6,-5.555363716627908e-07
3893.5,-5.778933009784651e-07
3894.4,-5.947168487044388e-07
3895.3,-6.063283388918012e-07
3896.2,-6.126651618691666e-07
3897.1,-6.195915281234389e-07
3898.0,-6.210800911384464e-07
3898.9,-6.276882763809916e-07
3899.8,-6.298144137585096e-07
3900.7,-6.326211780428969e-07
3901.6,-6.320924029759192e-07
3902.51,-6.30405779858165e-07
3903.41,-6.261870998241199e-07
3904.31,-6.16911501738675e-07
3905.21,-6.127688687141256e-07
3906.11,-6.126548607922128e-07
3907.01,-6.188199488168696e-07
3907.91,-6.33620368599781e-07
3908.81,-6.555194439149874e-07
3909.71,-6.744809116969872e-07
3910.61,-6.984608282547322e-07
3911.51,-7.13975111989034e-07
3912.41,-7.28244943830999e-07
3913.31,-7.218642511872605e-07
3914.21,-7.241516451415062e-07
3915.11,-7.17656169061489e-07
3916.01,-7.088389189720511e-07
3916.91,-6.933165746086241e-07
3917.81,-6.81899771748811e-07
3918.71,-6.66963173512574e-07
3919.61,-6.468695982294264e-07
3920.51,-6.279723038309932e-07
3921.41,-6.108675460926081e-07
3922.31,-5.995660351538666e-07
3923.21,-5.903715673177809e-07
3924.11,-5.839341184065541e-07
3925.01,-5.737650027257739e-07
3925.91,-5.539470480301771e-07
3926.81,-5.248508361723087e-07
3927.71,-4.883849968371598e-07
3928.61,-4.420601741296845e-07
3929.51,-3.9165316220743077e-07
3930.41,-3.424885420771324e-07
3931.31,-2.9622205090713524e-07
3932.21,-2.5531495716953704e-07
3933.11,-2.2473304723798295e-07
3934.01,-2.0820422294966617e-07
3934.91,-2.05542347927916e-07
3935.81,-2.1980004196545833e-07
3936.71,-2.484145082793716e-07
3937.61,-2.889188359503464e-07
3938.51,-3.3689576482043817e-07
3939.42,-3.8647092407500864e-07
3940.32,-4.318120331637551e-07
3941.22,-4.689620736758599e-07
3942.12,-5.012748655383327e-07
3943.02,-5.25437654618991e-07
3943.92,-5.46054718007887e-07
3944.82,-5.677728605702286e-07
3945.72,-5.905951232435858e-07
3946.62,-6.172122746919346e-07
3947.52,-6.416960877224861e-07
3948.42,-6.62719562840941e-07
3949.32,-6.825613799178259e-07
3950.22,-6.995384366495714e-07
3951.12,-7.120122934722293e-07
3952.02,-7.183383971874391e-07
3952.92,-7.278916310902748e-07
3953.82,-7.307691825667272e-07
3954.72,-7.329356596812314e-07
3955.62,-7.332629332823835e-07
3956.52,-7.283130564569759e-07
3957.42,-7.209943721588267e-07
3958.32,-7.111462450654958e-07
3959.22,-6.944457062987039e-07
3960.12,-6.707192449159194e-07
3961.02,-6.38196978432673e-07
3961.92,-6.003578717841334e-07
3962.82,-5.514109514555947e-07
3963.72,-5.079210981426241e-07
3964.62,-4.6027265541298476e-07
3965.52,-4.119139146020237e-07
3966.42,-3.6236155322894755e-07
3967.32,-3.1914095793632003e-07
3968.22,-2.8401783603618346e-07
3969.12,-2.619674500189921e-07
3970.02,-2.587215429186909e-07
3970.92,-2.759870045492819e-07
3971.82,-3.095320257952328e-07
3972.72,-3.563750165797661e-07
3973.62,-4.1097791123566043e-07
3974.52,-4.6979688787510486e-07
3975.42,-5.263537795173733e-07
3976.32,-5.837541168973971e-07
3977.22,-6.335662228219198e-07
3978.13,-6.78867348135874e-07
3979.03,-7.181622592888921e-07
3979.93,-7.50653040064674e-07
3980.83,-7.775290556866614e-07
3981.73,-7.956184263989594e-07
3982.63,-8.075813831347622e-07
3983.53,-8.129263024926636e-07
3984.43,-8.134806501302682e-07
3985.33,-8.219551360984766e-07
3986.23,-8.369452566495041e-07
3987.13,-8.511166909929099e-07
3988.03,-8.603901681963752e-07
3988.93,-8.722773831110564e-07
3989.83,-8.808444504483418e-07
3990.73,-8.959579882464072e-07
3991.63,-8.981846881874893e-07
3992.53,-9.086073237377667e-07
3993.43,-9.117008642125387e-07
3994.33,-9.104825036143968e-07
3995.23,-9.002454145633119e-07
3996.13,-8.950611941679918e-07
3997.03,-8.873544678725937e-07
3997.93,-8.851429689552303e-07
3998.83,-8.900487745076474e-07
3999.73,-9.016632588848927e-07
4000.63,-9.156597072213534e-07
4001.53,-9.31346728198001e-07
4002.43,-9.435688606782324e-07
4003.33,-9.402105290991269e-07
4004.23,-9.305442582646714e-07
4005.13,-9.199426559376326e-07
4006.03,-9.044103448001531e-07
4006.93,-8.954368518224744e-07
4007.83,-8.999062191064268e-07
4008.73,-9.132573485103503e-07
4009.63,-9.304243658898131e-07
4010.53,-9.484364322675643e-07
4011.43,-9.661021224294908e-07
4012.33,-9.739696711831106e-07
4013.23,-9.840804580706445e-07
4014.13,-9.865368401504233e-07
4015.03,-9.86655009099873e-07
4015.93,-9.90916289162769e-07
4016.84,-9.921939153754434e-07
4017.74,-9.954839301413342e-07
4018.64,-9.926556941722336e-07
4019.54,-9.987968758704145e-07
4020.44,-1.0069211117955754e-06
4021.34,-1.005793365281154e-06
4022.24,-1.0039492637694211e-06
4023.14,-1.0053971505574751e-06
4024.04,-1.0036577188585725e-06
4024.94,-1.0078036729270912e-06
4025.84,-1.0139401590826503e-06
4026.74,-1.0237272196823706e-06
4027.64,-1.024148464795503e-06
4028.54,-1.0250117893776234e-06
4029.44,-1.0178017475894677e-06
4030.34,-9.929187283583619e-07
4031.24,-9.68430903738023e-07
4032.14,-9.382941744338052e-07
4033.04,-9.270296878281129e-07
4033.94,-9.174100925340925e-07
4034.84,-9.328560672991235e-07
4035.74,-9.576838433651694e-07
4036.64,-9.890781809460403e-07
4037.54,-1.023209049566019e-06
4038.44,-1.0455678583280094e-06
4039.34,-1.0639448169927934e-06
4040.24,-1.0681476632115355e-06
4041.14,-1.0602635036494196e-06
4042.04,-1.0445732369723392e-06
4042.94,-1.0203252556599081e-06
4043.84,-9.824413867188613e-07
4044.74,-9.525219260318509e-07
4045.64,-9.297458688898206e-07
4046.54,-9.138521738432295e-07
4047.44,-9.22898069948215e-07
4048.34,-9.455580296814994e-07
4049.24,-9.818710514947858e-07
4050.14,-1.0119215673425143e-06
4051.04,-1.0386338493215034e-06
4051.94,-1.0492549603757925e-06
4052.84,-1.0496345566118738e-06
4053.74,-1.0479145497664533e-06
4054.65,-1.0334215822032732e-06
4055.55,-1.020537757328339e-06
4056.45,-1.0101894306818281e-06
4057.35,-1.0026117639114898e-06
4058.25,-1.000492576576304e-06
4059.15,-9.997383471024978e-07
4060.05,-1.0017811799916125e-06
4060.95,-1.0029694770953222e-06
4061.85,-9.98378428633213e-07
4062.75,-9.789393657293714e-07
4063.65,-9.66114498744893e-07
4064.55,-9.538957497666358e-07
4065.45,-9.533165185006527e-07
4066.35,-9.581415666987128e-07
4067.25,-9.723585477999784e-07
4068.15,-9.956487529876244e-07
4069.05,-1.0172526374752562e-06
4069.95,-1.0248682617163922e-06
4070.85,-1.0320354665610887e-06
4071.75,-1.0242920778386114e-06
4072.65,-1.016417268201929e-06
4073.55,-1.0172777355797396e-06
4074.45,-1.0072331778388727e-06
4075.35,-1.0008267372512398e-06
4076.25,-9.880719635485556e-07
4077.15,-9.76222781155581e-07
4078.05,-9.721534074647484e-07
4078.95,-9.734381484555758e-07
4079.85,-9.92053350623052e-07
4080.75,-1.0180039059138445e-06
4081.65,-1.0402039079878061e-06
4082.55,-1.0667759710787504e-06
4083.45,-1.0707901377311617e-06
4084.35,-1.0889403959782396e-06
4085.25,-1.0909868449044084e-06
4086.15,-1.101788721248293e-06
4087.05,-1.1174319487813506e-06
4087.95,-1.140284637884116e-06
4088.85,-1.1625325557530158e-06
4089.75,-1.17355985583094e-06
4090.65,-1.184076358716572e-06
4091.55,-1.1856320186789511e-06
4092.45,-1.1733515849493126e-06
4093.36,-1.1602894851526993e-06
4094.26,-1.1493218058977092e-06
4095.16,-1.1278935834399753e-06
4096.06,-1.100545802786153e-06
4096.96,-1.0773040769378063e-06
4097.86,-1.0451538614779102e-06
4098.76,-1.0143101334827086e-06
4099.66,-9.802473985457284e-07
4100.56,-9.434932805973749e-07
4101.46,-9.192069039887778e-07
4102.36,-9.047348770632138e-07
4103.26,-9.056696924827278e-07
4104.16,-9.275655529281234e-07
4105.06,-9.605926397804653e-07
4105.96,-9.99683102672213e-07
4106.86,-1.0370467451595707e-06
4107.76,-1.0703939966787586e-06
4108.66,-1.0871965369339263e-06
4109.56,-1.099513275454298e-06
4110.46,-1.1091399125763551e-06
4111.36,-1.1122664973252105e-06
4112.26,-1.1193249293391966e-06
4113.16,-1.1324430124474444e-06
4114.06,-1.1481883435862046e-06
4114.96,-1.1562690484914077e-06
4115.86,-1.1709141280111045e-06
4116.76,-1.1733854978119354e-06
4117.66,-1.1682048181610502e-06
4118.56,-1.1617359773548786e-06
4119.46,-1.1567148238805117e-06
4120.36,-1.1476610940835557e-06
4121.26,-1.141028840940569e-06
4122.16,-1.1438467260570977e-06
4123.06,-1.1502751156296609e-06
4123.96,-1.1545739880889048e-06
4124.86,-1.1590028311119206e-06
4125.76,-1.1642975539705705e-06
4126.66,-1.1671475274277624e-06
4127.56,-1.1622025709994469e-06
4128.46,-1.153927530801951e-06
4129.36,-1.1434818402730952e-06
4130.26,-1.1272251570251531e-06
4131.17,-1.109344973579881e-06
4132.06,-1.0977616286715275e-06
4132.97,-1.0882789879003456e-06
4133.87,-1.0869891551990444e-06
4134.77,-1.0969608418858188e-06
4135.67,-1.1153770347773413e-06
4136.57,-1.1370531025681635e-06
4137.47,-1.169137263630846e-06
4138.37,-1.1906578053490515e-06
4139.27,-1.202641102915456e-06
4140.17,-1.205993067936387e-06
4141.07,-1.1910913820422667e-06
4141.97,-1.167800899202912e-06
4142.87,-1.141279619187569e-06
4143.77,-1.1190182564665836e-06
4144.67,-1.1060343116156302e-06
4145.57,-1.1068638795625458e-06
4146.47,-1.1194788839279271e-06
4147.37,-1.13776480103013e-06
4148.27,-1.1544526322061621e-06
4149.17,-1.165954162034455e-06
4150.07,-1.1723800034118039e-06
4150.97,-1.1699357702127143e-06
4151.87,-1.169503562028553e-06
4152.77,-1.1609909711616026e-06
4153.67,-1.154672009167426e-06
4154.57,-1.1466956141982349e-06
4155.47,-1.1475647255682986e-06
4156.37,-1.1531234531715014e-06
4157.27,-1.1585653504349422e-06
4158.17,-1.1746826933089199e-06
4159.07,-1.1923558925090752e-06
4159.97,-1.2082817381278033e-06
4160.87,-1.2360173706457631e-06
4161.77,-1.2450045559765236e-06
4162.67,-1.2548377958638303e-06
4163.57,-1.2585587865052997e-06
4164.47,-1.2564691367510847e-06
4165.37,-1.250727250260795e-06
4166.27,-1.247663175326331e-06
4167.17,-1.2346548885963085e-06
4168.07,-1.2261764844835784e-06
4168.98,-1.2165374892429952e-06
4169.88,-1.2069295370080698e-06
4170.78,-1.181146385199313e-06
4171.68,-1.162591949305417e-06
4172.58,-1.1456124175874996e-06
4173.48,-1.1281467464684497e-06
4174.38,-1.1193046114132874e-06
4175.28,-1.1188527646238353e-06
4176.18,-1.1286288302382776e-06
4177.08,-1.1433487066942576e-06
4177.98,-1.1549179511637676e-06
4178.88,-1.1708597977390848e-06
4179.78,-1.1766271661838546e-06
4180.68,-1.192554951485743e-06
4181.58,-1.1958783905526242e-06
4182.48,-1.2079431950384252e-06
4183.38,-1.2061965268510776e-06
4184.28,-1.2119573535940219e-06
4185.18,-1.2115170427469477e-06
4186.08,-1.203548258025916e-06
4186.98,-1.2042761778558952e-06
4187.88,-1.1986434964556028e-06
4188.78,-1.1998256681186656e-06
4189.68,-1.2050174338256025e-06
4190.58,-1.209034612840175e-06
4191.48,-1.22188103975457e-06
4192.38,-1.2363994632696957e-06
4193.28,-1.2470535190953718e-06
4194.18,-1.2501338866661825e-06
4195.08,-1.2468078657242385e-06
4195.98,-1.231961883921195e-06
4196.88,-1.2134430211956153e-06
4197.78,-1.190444892281802e-06
4198.68,-1.1608971055559136e-06
4199.58,-1.1518818263921511e-06
4200.48,-1.1483665751328752e-06
4201.38,-1.1489700010948127e-06
4202.28,-1.1514391672250458e-06
4203.18,-1.1677835539206386e-06
4204.08,-1.174947271768588e-06
4204.98,-1.1992971782104687e-06
4205.88,-1.225700999630785e-06
4206.79,-1.244537230636634e-06
4207.69,-1.2752588839057907e-06
4208.59,-1.2865182699770836e-06
4209.49,-1.2998135724244363e-06
4210.39,-1.309101058502559e-06
4211.29,-1.3073037260389255e-06
4212.19,-1.3083979879835171e-06
4213.09,-1.3043020852511806e-06
4213.99,-1.2901415337849011e-06
4214.89,-1.2823694562950342e-06
4215.79,-1.2668045777444846e-06
4216.69,-1.2675882324850924e-06
4217.59,-1.2709471441927505e-06
4218.49,-1.2845528947544812e-06
4219.39,-1.2979810134946661e-06
4220.29,-1.3210847094094098e-06
4221.19,-1.3177717536946683e-06
4222.09,-1.3146554578310488e-06
4222.99,-1.2792241656244857e-06
4223.89,-1.2298029529499337e-06
4224.79,-1.178506759874269e-06
4225.69,-1.1223904811070448e-06
4226.59,-1.0769737847184868e-06
4227.49,-1.06009862092508e-06
4228.39,-1.0722617270825233e-06
4229.29,-1.1103926142766243e-06
4230.19,-1.1631639106291247e-06
4231.09,-1.2146639960962304e-06
4231.99,-1.2506388112844316e-06
4232.89,-1.2762100665358138e-06
4233.79,-1.2818965190668922e-06
4234.69,-1.277788594403037e-06
4235.59,-1.2675201384766338e-06
4236.49,-1.2564691634968132e-06
4237.39,-1.254744440578533e-06
4238.29,-1.2479547004130075e-06
4239.19,-1.2650213689305425e-06
4240.09,-1.2778145048708106e-06
4240.99,-1.3001579155360352e-06
4241.89,-1.3155153054969677e-06
4242.79,-1.3398897485793828e-06
4243.69,-1.3521074521767661e-06
4244.59,-1.3598109209912053e-06
4245.5,-1.3602065369662923e-06
4246.4,-1.3591877612520597e-06
4247.3,-1.3341492268795223e-06
4248.2,-1.3145265180115016e-06
4249.1,-1.293600633141136e-06
4250.0,-1.2734745987563834e-06
4250.9,-1.2632898577028556e-06
4251.8,-1.2646244506239347e-06
4252.7,-1.2704689205203114e-06
4253.6,-1.2817534562760145e-06
4254.5,-1.285436743856001e-06
4255.4,-1.2925883673368586e-06
4256.3,-1.3015213822532593e-06
4257.2,-1.3051617078547553e-06
4258.1,-1.3004462092770677e-06
4259.0,-1.303381326566797e-06
4259.9,-1.287646375375605e-06
4260.8,-1.2848151165833244e-06
4261.7,-1.289732481599491e-06
4262.6,-1.3058404161074276e-06
4263.5,-1.3395889356009725e-06
4264.4,-1.3673382016402987e-06
4265.3,-1.3948563701177493e-06
4266.2,-1.4080556865412273e-06
4267.1,-1.408754008382968e-06
4268.0,-1.388673733532562e-06
4268.9,-1.3577217671275316e-06
4269.8,-1.3162243587166441e-06
4270.7,-1.277014071221285e-06
4271.6,-1.23405496154784e-06
4272.5,-1.2000099482624972e-06
4273.4,-1.1806727956823002e-06
4274.3,-1.1874887899845447e-06
4275.2,-1.20818565087666e-06
4276.1,-1.2403469917949717e-06
