wave,flux
3700.85,-4.3815654654711543e-07
3701.75,-4.349060967968241e-07
3702.65,-4.2102369054073396e-07
3703.55,-4.0407060499139506e-07
3704.45,-3.848815766173162e-07
3705.35,-3.650760976781003e-07
3706.25,-3.551419472621686e-07
3707.15,-3.4997269704631094e-07
3708.05,-3.530324436002484e-07
3708.96,-3.598558070538139e-07
3709.86,-3.6820823940955775e-07
3710.76,-3.777193137199272e-07
3711.66,-3.899541698090674e-07
3712.56,-4.065506952283988e-07
3713.46,-4.2336847610063936e-07
3714.36,-4.411585727586145e-07
3715.26,-4.515291498076685e-07
3716.16,-4.593235434738482e-07
3717.06,-4.5334497345922166e-07
3717.96,-4.408462167553505e-07
3718.86,-4.173833283527493e-07
3719.76,-3.9171966963522795e-07
3720.66,-3.659841280134299e-07
3721.56,-3.472569066876033e-07
3722.46,-3.419720796482566e-07
3723.36,-3.5069470767821944e-07
3724.26,-3.693804108342921e-07
3725.16,-3.9243175670142734e-07
3726.06,-4.1109970066066976e-07
3726.96,-4.234834053007121e-07
3727.86,-4.282491895175979e-07
3728.76,-4.328376989485189e-07
3729.66,-4.289679610074139e-07
3730.56,-4.2150167812415296e-07
3731.46,-4.052076552393719e-07
3732.36,-3.8424377846002936e-07
3733.26,-3.5655845749722044e-07
3734.16,-3.322919272670864e-07
3735.06,-3.148880408963435e-07
3735.96,-3.081715551610986e-07
3736.86,-3.148740797437455e-07
3737.76,-3.3331956529809237e-07
3738.66,-3.6014108708255683e-07
3739.56,-3.9134478463130006e-07
3740.46,-4.1700045544130406e-07
3741.36,-4.33792918251926e-07
3742.26,-4.391555128873685e-07
3743.16,-4.3538346803982543e-07
3744.06,-4.2491922548706376e-07
3744.96,-4.066452860867346e-07
3745.86,-3.87356628295985e-07
3746.76,-3.6581559196597016e-07
3747.67,-3.4664574474859127e-07
3748.57,-3.302861091442151e-07
3749.47,-3.206866794999435e-07
3750.37,-3.2227923626295723e-07
3751.27,-3.375296606751352e-07
3752.17,-3.6438593395672283e-07
3753.07,-3.966117069473166e-07
3753.97,-4.295059309775786e-07
3754.87,-4.57029722238111e-07
3755.77,-4.7159068324935125e-07
3756.67,-4.750190202153638e-07
3757.57,-4.676379399314846e-07
3758.47,-4.560636925915033e-07
3759.37,-4.4444851114484495e-07
3760.27,-4.378007508523017e-07
3761.17,-4.395594710871988e-07
3762.07,-4.4794977431184313e-07
3762.97,-4.553089208285038e-07
3763.87,-4.587462019103227e-07
3764.77,-4.615033604085863e-07
3765.67,-4.598133434632053e-07
3766.57,-4.554609624865807e-07
3767.47,-4.4307270623124204e-07
3768.37,-4.301903667064422e-07
3769.27,-4.2357193288494307e-07
3770.17,-4.181952565976559e-07
3771.07,-4.181523850738135e-07
3771.97,-4.2836132816633584e-07
3772.87,-4.416555317061612e-07
3773.77,-4.578894795966438e-07
3774.67,-4.80355691365375e-07
3775.57,-4.968128541428218e-07
3776.47,-5.096613501512937e-07
3777.37,-5.237794059708455e-07
3778.27,-5.37786678881819e-07
3779.17,-5.520257394991866e-07
3780.07,-5.665688849531293e-07
3780.97,-5.796838571076032e-07
3781.87,-5.868482572271413e-07
3782.77,-5.963114091078334e-07
3783.67,-5.951014426920786e-07
3784.57,-5.890959689110101e-07
3785.47,-5.775436296309503e-07
3786.38,-5.598266172870129e-07
3787.28,-5.432881540579188e-07
3788.18,-5.266964666481782e-07
3789.08,-5.11064607739901e-07
3789.98,-5.06293153926664e-07
3790.88,-4.988987860908568e-07
3791.78,-4.940140210754204e-07
3792.68,-4.835045922227922e-07
3793.58,-4.726646313587865e-07
3794.48,-4.5475951844299905e-07
3795.38,-4.358056780575169e-07
3796.28,-4.1598943792560164e-07
3797.18,-3.9824755546143785e-07
3798.08,-3.8760958646650816e-07
3798.98,-3.8660697828591204e-07
3799.88,-4.0118772716483745e-07
3800.78,-4.251319942136834e-07
3801.68,-4.565158166732738e-07
3802.58,-4.921397142226849e-07
3803.48,-5.211812726605141e-07
3804.38,-5.46038355643103e-07
3805.28,-5.613169422667604e-07
3806.18,-5.681968708336663e-07
3807.08,-5.740848915709353e-07
3807.98,-5.785326305917091e-07
3808.88,-5.876075589094177e-07
3809.78,-5.967921246567282e-07
3810.68,-5.999703055200748e-07
3811.58,-6.002797281209758e-07
3812.48,-5.907892296657917e-07
3813.38,-5.771991569328201e-07
3814.28,-5.608707363399884e-07
3815.18,-5.463598092819272e-07
3816.08,-5.374491794169274e-07
3816.98,-5.358387911420975e-07
3817.88,-5.353356066226543e-07
3818.78,-5.369059360901252e-07
3819.68,-5.348057743642486e-07
3820.58,-5.306501974526253e-07
3821.48,-5.245225763527408e-07
3822.38,-5.187427088204366e-07
3823.28,-5.091219619516743e-07
3824.18,-5.033398280905224e-07
3825.09,-4.911065324212263e-07
3825.99,-4.773045580110219e-07
3826.89,-4.6391056872889845e-07
3827.79,-4.5226490936393344e-07
3828.69,-4.4753746105664834e-07
3829.59,-4.3817774571831363e-07
3830.49,-4.3058202662722517e-07
3831.39,-4.1515715047585364e-07
3832.29,-4.0020079517048e-07
3833.19,-3.7980061698226865e-07
3834.09,-3.623434856380387e-07
3834.99,-3.4794728636274365e-07
3835.89,-3.4378761507671065e-07
3836.79,-3.44220374211213e-07
3837.69,-3.514808884782822e-07
3838.59,-3.6480623291809127e-07
3839.49,-3.8270384989712774e-07
3840.39,-4.0715383779711326e-07
3841.29,-4.344631433699079e-07
3842.19,-4.659903612189763e-07
3843.09,-4.95744119033844e-07
3843.99,-5.251009480736453e-07
3844.89,-5.501392348327077e-07
3845.79,-5.698780939755065e-07
3846.69,-5.846262485466502e-07
3847.59,-5.938509205709233e-07
3848.49,-6.020807010034542e-07
3849.39,-6.061669191024173e-07
3850.29,-6.10136742883163e-07
3851.19,-6.152131178555408e-07
3852.09,-6.187932933674276e-07
3852.99,-6.234030733361036e-07
3853.89,-6.253945035895548e-07
3854.79,-6.207558025580166e-07
3855.69,-6.178251561744806e-07
3856.59,-6.091849126705113e-07
3857.49,-5.968707182430578e-07
3858.39,-5.891815739133307e-07
3859.29,-5.826307980770566e-07
3860.19,-5.831893783021399e-07
3861.09,-5.915974071336777e-07
3861.99,-6.048125702724146e-07
3862.9,-6.220318221839467e-07
3863.8,-6.358390076463668e-07
3864.7,-6.495024415545191e-07
3865.6,-6.548866306913913e-07
3866.5,-6.571945950961863e-07
3867.4,-6.535799151973724e-07
3868.3,-6.510145450395949e-07
3869.2,-6.455038404931542e-07
3870.1,-6.367801596631979e-07
3871.0,-6.23785931257472e-07
3871.9,-6.109375839112648e-07
3872.8,-6.027530994598652e-07
3873.7,-5.985060196816603e-07
3874.6,-6.006037483132466e-07
3875.5,-6.04535340485682e-07
3876.4,-6.082161985889043e-07
3877.3,-6.060625821338929e-07
3878.2,-5.978750520837701e-07
3879.1,-5.938157175824745e-07
3880.0,-5.882640132142577e-07
3880.9,-5.824539192626098e-07
3881.8,-5.80221006058239e-07
3882.7,-5.762169275654543e-07
3883.6,-5.641188659447753e-07
3884.5,-5.495831367229427e-07
3885.4,-5.296157955112292e-07
3886.3,-5.072192869763771e-07
3887.2,-4.821219727560269e-07
3888.1,-4.638289311906848e-07
3889.0,-4.5328737605596205e-07
3889.9,-4.545510309769944e-07
3890.8,-4.6928089863396854e-07
3891.7,-4.920503380876717e-07
3892.6,-5.198244874299695e-07
3893.5,-5.480287687574956e-07
3894.4,-5.703074010857338e-07
3895.3,-5.883342306884806e-07
3896.2,-6.031588567136698e-07
3897.1,-6.171518562606722e-07
3898.0,-6.284923644333501e-07
3898.9,-6.389073976021221e-07
3899.8,-6.466884608780655e-07
3900.7,-6.541693129055143e-07
3901.6,-6.601591086718521e-07
3902.51,-6.637049859551533e-07
3903.41,-6.594223475260772e-07
3904.31,-6.604597976004817e-07
3905.21,-6.59714234652161e-07
3906.11,-6.586121482366054e-07
3907.01,-6.670254999550619e-07
3907.91,-6.790404201729263e-07
3908.81,-6.953295477577291e-07
3909.71,-7.156879422749118e-07
3910.61,-7.336521697539588e-07
3911.51,-7.47379947905507e-07
3912.41,-7.538133267879353e-07
3913.31,-7.540834140954535e-07
3914.21,-7.521041359088285e-07
3915.11,-7.471168191657594e-07
3916.01,-7.408699097875694e-07
3916.91,-7.31922494155649e-07
3917.81,-7.219427337815984e-07
3918.71,-7.124867973146284e-07
3919.61,-7.018576008003395e-07
3920.51,-6.921128214386916e-07
3921.41,-6.823095231913902e-07
3922.31,-6.786823479982608e-07
3923.21,-6.732868384768375e-07
3924.11,-6.694832364883685e-07
3925.01,-6.5834083904056e-07
3925.91,-6.412696786454782e-07
3926.81,-6.132757453745169e-07
3927.71,-5.760372223330837e-07
3928.61,-5.312751497875898e-07
3929.51,-4.808232187967921e-07
3930.41,-4.270288535037343e-07
3931.31,-3.7263425603917983e-07
3932.21,-3.2475772366009177e-07
3933.11,-2.870047916034857e-07
3934.01,-2.636105368748444e-07
3934.91,-2.618077831702432e-07
3935.81,-2.7674689845361273e-07
3936.71,-3.107179199906184e-07
3937.61,-3.58287559972202e-07
3938.51,-4.142602627908339e-07
3939.42,-4.700210021453648e-07
3940.32,-5.19047288915386e-07
3941.22,-5.615321331405299e-07
3942.12,-5.936673949421231e-07
3943.02,-6.170444458507886e-07
3943.92,-6.369849610834021e-07
3944.82,-6.518968881674782e-07
3945.72,-6.6883414912334e-07
3946.62,-6.909885363209001e-07
3947.52,-7.055541535109386e-07
3948.42,-7.21634262012793e-07
3949.32,-7.346276886936291e-07
3950.22,-7.450416339306285e-07
3951.12,-7.508084363382254e-07
3952.02,-7.562119745727385e-07
3952.92,-7.575011748938439e-07
3953.82,-7.631755796866399e-07
3954.72,-7.61003503097835e-07
3955.62,-7.605178959183407e-07
3956.52,-7.582995307532482e-07
3957.42,-7.514180434912523e-07
3958.32,-7.428564450476861e-07
3959.22,-7.277595911000576e-07
3960.12,-7.11429750351924e-07
3961.02,-6.855374589906956e-07
3961.92,-6.508470844701684e-07
3962.82,-6.120902746723321e-07
3963.72,-5.66976980844367e-07
3964.62,-5.220635882305147e-07
3965.52,-4.675521481823589e-07
3966.42,-4.1581291089316806e-07
3967.32,-3.6550256444599447e-07
3968.22,-3.2376884847917723e-07
3969.12,-2.9850924499020455e-07
3970.02,-2.912157502825818e-07
3970.92,-3.046557312964712e-07
3971.82,-3.375060455518799e-07
3972.72,-3.841070964700733e-07
3973.62,-4.3770173082968347e-07
3974.52,-4.950276252408661e-07
3975.42,-5.499217778501084e-07
3976.32,-6.01616026262322e-07
3977.22,-6.491345844115348e-07
3978.13,-6.92953952575961e-07
3979.03,-7.306265626171251e-07
3979.93,-7.650782371274304e-07
3980.83,-7.851577281128696e-07
3981.73,-8.047629464646548e-07
3982.63,-8.169457182886892e-07
3983.53,-8.219406220215598e-07
3984.43,-8.3044708264614e-07
3985.33,-8.411847573450082e-07
3986.23,-8.501837724524354e-07
3987.13,-8.566674716610324e-07
3988.03,-8.694860780457271e-07
3988.93,-8.849150027636568e-07
3989.83,-8.932907503766329e-07
3990.73,-9.051218011682465e-07
3991.63,-9.145612239789202e-07
3992.53,-9.199348429200629e-07
3993.43,-9.255478638869538e-07
3994.33,-9.234143460058753e-07
3995.23,-9.258331226804441e-07
3996.13,-9.162187152564659e-07
3997.03,-9.08731310756708e-07
3997.93,-9.124150047640033e-07
3998.83,-9.162784036643203e-07
3999.73,-9.246220103509283e-07
4000.63,-9.380553914586184e-07
4001.53,-9.553711260738205e-07
4002.43,-9.633679359810285e-07
4003.33,-9.642008286972039e-07
4004.23,-9.550939265526553e-07
4005.13,-9.460213328180438e-07
4006.03,-9.349400855105212e-07
4006.93,-9.312411274692779e-07
4007.83,-9.327102780887848e-07
4008.73,-9.468726581596062e-07
4009.63,-9.62230794836744e-07
4010.53,-9.770630496242273e-07
4011.43,-9.873093066478732e-07
4012.33,-9.93808030591184e-07
4013.23,-1.0014699218176766e-06
4014.13,-1.0096366331604656e-06
4015.03,-1.0099782274472728e-06
4015.93,-1.0122926127242512e-06
4016.84,-1.0182440057367735e-06
4017.74,-1.0169878412835214e-06
4018.64,-1.0231786464249385e-06
4019.54,-1.0274986997196855e-06
4020.44,-1.0355826014032207e-06
4021.34,-1.035694643115712e-06
4022.24,-1.0393920641215735e-06
4023.14,-1.03757307852989e-06
4024.04,-1.0397583729382372e-06
4024.94,-1.0401479891712918e-06
4025.84,-1.0385372646522899e-06
4026.74,-1.048143278986995e-06
4027.64,-1.0496922562584812e-06
4028.54,-1.0526748288814221e-06
4029.44,-1.0402408594765997e-06
4030.34,-1.0167964628668233e-06
4031.24,-9.995371128710047e-07
4032.14,-9.777797943415306e-07
4033.04,-9.677866937714424e-07
4033.94,-9.679595351673017e-07
4034.84,-9.789374284245383e-07
4035.74,-1.001201983946398e-06
4036.64,-1.0289667233950806e-06
4037.54,-1.060783022464276e-06
4038.44,-1.0798228396790972e-06
4039.34,-1.0927156214057817e-06
4040.24,-1.0919858506922322e-06
4041.14,-1.087855669004851e-06
4042.04,-1.0725579129439603e-06
4042.94,-1.0541396555339918e-06
4043.84,-1.0304378905780739e-06
4044.74,-1.0070622973239581e-06
4045.64,-9.909118982962916e-07
4046.54,-9.85578796565453e-07
4047.44,-9.86350579245677e-07
4048.34,-1.0117939955495477e-06
4049.24,-1.034007082916448e-06
4050.14,-1.0579323496844244e-06
4051.04,-1.0772828955426268e-06
4051.94,-1.0836266132278215e-06
4052.84,-1.0864296191443876e-06
4053.74,-1.068518874810934e-06
4054.65,-1.0605477848590726e-06
4055.55,-1.0454452402860995e-06
4056.45,-1.0390398307333857e-06
4057.35,-1.0306321389893762e-06
4058.25,-1.034686593530538e-06
4059.15,-1.0365939957878714e-06
4060.05,-1.039252048514106e-06
4060.95,-1.0416244971875822e-06
4061.85,-1.0409845778924205e-06
4062.75,-1.0336753266691639e-06
4063.65,-1.0210276651815102e-06
4064.55,-1.0112502017013389e-06
4065.45,-1.010083186278836e-06
4066.35,-1.0171191461617909e-06
4067.25,-1.0317598513042133e-06
4068.15,-1.0448826004798528e-06
4069.05,-1.0594867962645643e-06
4069.95,-1.0619012271099068e-06
4070.85,-1.0666588334235022e-06
4071.75,-1.0634958010845777e-06
4072.65,-1.0614217882421711e-06
4073.55,-1.0575227039951336e-06
4074.45,-1.0475783761533367e-06
4075.35,-1.0377987020410891e-06
4076.25,-1.0233661483941994e-06
4077.15,-1.0134229355734421e-06
4078.05,-1.003155710126583e-06
4078.95,-1.0027684520397996e-06
4079.85,-1.0201696549910296e-06
4080.75,-1.0420556567796875e-06
4081.65,-1.0573871088141732e-06
4082.55,-1.0736120787937744e-06
4083.45,-1.0899835106523243e-06
4084.35,-1.0913258090308902e-06
4085.25,-1.0970115540181689e-06
4086.15,-1.1037000523514417e-06
4087.05,-1.1170616956697559e-06
4087.95,-1.1277587792439498e-06
4088.85,-1.1434493074939273e-06
4089.75,-1.151175658081275e-06
4090.65,-1.1548272664642636e-06
4091.55,-1.1471471538558695e-06
4092.45,-1.1370366622063282e-06
4093.36,-1.1240241431390576e-06
4094.26,-1.108654734992088e-06
4095.16,-1.085073779235445e-06
4096.06,-1.0591413179019205e-06
4096.96,-1.0245352148542178e-06
4097.86,-9.915469463152671e-07
4098.76,-9.503275253506843e-07
4099.66,-9.143317686545969e-07
4100.56,-8.735677944958266e-07
4101.46,-8.406800576286987e-07
4102.36,-8.24062532409234e-07
4103.26,-8.232698537575758e-07
4104.16,-8.436356407159992e-07
4105.06,-8.863665708047838e-07
4105.96,-9.273900211635085e-07
4106.86,-9.708856646297984e-07
4107.76,-1.007193276112772e-06
4108.66,-1.0390168007900527e-06
4109.56,-1.0563118588640149e-06
4110.46,-1.0685958358645662e-06
4111.36,-1.086392672045228e-06
4112.26,-1.1017557729634797e-06
4113.16,-1.1169998264974193e-06
4114.06,-1.1374717100626654e-06
4114.96,-1.15219166162318e-06
4115.86,-1.1627303888657109e-06
4116.76,-1.1720814825088228e-06
4117.66,-1.1758329135861029e-06
4118.56,-1.1637638593733307e-06
4119.46,-1.158674004008884e-06
4120.36,-1.1558044779875155e-06
4121.26,-1.1573334261398528e-06
4122.16,-1.1606072465802034e-06
4123.06,-1.1559574698195857e-06
4123.96,-1.1687860773223123e-06
4124.86,-1.1734680364944535e-06
4125.76,-1.1739071461471448e-06
4126.66,-1.1795381538332353e-06
4127.56,-1.1755594547929117e-06
4128.46,-1.169788349249125e-06
4129.36,-1.1631095748344993e-06
4130.26,-1.1588156953628538e-06
4131.17,-1.1441666752626375e-06
4132.06,-1.1423199717931097e-06
4132.97,-1.1355823889907237e-06
4133.87,-1.138173344767936e-06
4134.77,-1.142957707778536e-06
4135.67,-1.165373581713783e-06
4136.57,-1.1885607907899334e-06
4137.47,-1.2114123067201876e-06
4138.37,-1.2350380526836443e-06
4139.27,-1.2477111466333978e-06
4140.17,-1.2547514277262508e-06
4141.07,-1.2423326369975405e-06
4141.97,-1.2265530535326155e-06
4142.87,-1.2069572138264168e-06
4143.77,-1.1888029859392559e-06
4144.67,-1.179991212251778e-06
4145.57,-1.1807447474836302e-06
4146.47,-1.1904678689793941e-06
4147.37,-1.2035204043616823e-06
4148.27,-1.218717664045812e-06
4149.17,-1.2228563683321526e-06
4150.07,-1.2249562455853816e-06
4150.97,-1.2236425484619574e-06
4151.87,-1.218005491588922e-06
4152.77,-1.2149751693039572e-06
4153.67,-1.2092621583452967e-06
4154.57,-1.204741087711413e-06
4155.47,-1.2054724200649368e-06
4156.37,-1.2066315270918829e-06
4157.27,-1.2109784306752746e-06
4158.17,-1.2270015448795081e-06
4159.07,-1.2373424284498922e-06
4159.97,-1.2575427630362564e-06
4160.87,-1.2723437071100962e-06
4161.77,-1.2849073623599174e-06
4162.67,-1.2950333901349703e-06
4163.57,-1.299449367425227e-06
4164.47,-1.3124993818759205e-06
4165.37,-1.2997708994786545e-06
4166.27,-1.3021094198821924e-06
4167.17,-1.291719036836425e-06
4168.07,-1.2871196957589876e-06
4168.98,-1.2696865705589893e-06
4169.88,-1.2593787954269773e-06
4170.78,-1.2404861719770819e-06
4171.68,-1.2341401726549216e-06
4172.58,-1.211080583069428e-06
4173.48,-1.191026215686961e-06
4174.38,-1.178983496198745e-06
4175.28,-1.1823997330821017e-06
4176.18,-1.1866048593152377e-06
4177.08,-1.1984992466464128e-06
4177.98,-1.2094920010643727e-06
4178.88,-1.2189420405201563e-06
4179.78,-1.237327536223915e-06
4180.68,-1.2440809873608727e-06
4181.58,-1.2575211721201355e-06
4182.48,-1.2664837144502646e-06
4183.38,-1.2683352396944286e-06
4184.28,-1.2750579927782178e-06
4185.18,-1.2773673380413523e-06
4186.08,-1.278466959172241e-06
4186.98,-1.2752761114812404e-06
4187.88,-1.275428596575388e-06
4188.78,-1.282618248747716e-06
4189.68,-1.2844705965555213e-06
4190.58,-1.2950532906931227e-06
4191.48,-1.304737779051917e-06
4192.38,-1.3167704720499551e-06
4193.28,-1.3285070616128116e-06
4194.18,-1.3338558031789e-06
4195.08,-1.3316123853328302e-06
4195.98,-1.3110425298717725e-06
4196.88,-1.2978906411841572e-06
4197.78,-1.278152653377206e-06
4198.68,-1.2578573937322758e-06
4199.58,-1.2476872852444222e-06
4200.48,-1.2478081388587817e-06
4201.38,-1.243901079506609e-06
4202.28,-1.2505307477600712e-06
4203.18,-1.2619491846259597e-06
4204.08,-1.2798782750585826e-06
4204.98,-1.2918954860187415e-06
4205.88,-1.3087339405990803e-06
4206.79,-1.3298699782562147e-06
4207.69,-1.3443447485111057e-06
4208.59,-1.3659175537290342e-06
4209.49,-1.3790638379802082e-06
4210.39,-1.3867266590219954e-06
4211.29,-1.3865213598533754e-06
4212.19,-1.3887057159855049e-06
4213.09,-1.3858202459997595e-06
4213.99,-1.3769168403422362e-06
4214.89,-1.3642959954379395e-06
4215.79,-1.357276873034987e-06
4216.69,-1.3558036874607511e-06
4217.59,-1.3647195901681017e-06
4218.49,-1.375966892338861e-06
4219.39,-1.3898145454201262e-06
4220.29,-1.410098071591526e-06
4221.19,-1.4131826471282125e-06
4222.09,-1.4096983945282342e-06
4222.99,-1.3811231755879653e-06
4223.89,-1.3438653552120388e-06
4224.79,-1.2972887014563081e-06
4225.69,-1.2521887740408723e-06
4226.59,-1.2196275444005965e-06
4227.49,-1.2058599487642193e-06
4228.39,-1.217542043026677e-06
4229.29,-1.2500542316530954e-06
4230.19,-1.3012076767323542e-06
4231.09,-1.3395142839731965e-06
4231.99,-1.375536993514652e-06
4232.89,-1.3938690870407369e-06
4233.79,-1.3969090454164378e-06
4234.69,-1.3907879832748967e-06
4235.59,-1.3759755116173378e-06
4236.49,-1.3690080628114586e-06
4237.39,-1.3668754504280933e-06
4238.29,-1.3646285469623394e-06
4239.19,-1.3706649081522574e-06
4240.09,-1.3801698258076813e-06
4240.99,-1.4008796635904345e-06
4241.89,-1.4164596888379619e-06
4242.79,-1.4396064811569282e-06
4243.69,-1.451128377385508e-06
4244.59,-1.4580959688344753e-06
4245.5,-1.4662347650424116e-06
4246.4,-1.4535879318010205e-06
4247.3,-1.4408788748140244e-06
4248.2,-1.4198154814273687e-06
4249.1,-1.405993734643338e-06
4250.0,-1.3987086508775616e-06
4250.9,-1.3884644269516018e-06
4251.8,-1.3900953643421818e-06
4252.7,-1.4007842825918613e-06
4253.6,-1.4099698812623178e-06
4254.5,-1.4168804624523806e-06
4255.4,-1.4309269642897891e-06
4256.3,-1.4356309345546792e-06
4257.2,-1.4406198393463305e-06
4258.1,-1.4335510423035514e-06
4259.0,-1.426324021275543e-06
4259.9,-1.41882792714632e-06
4260.8,-1.4152569646489464e-06
4261.7,-1.4250230843109344e-06
4262.6,-1.4356708020823175e-06
4263.5,-1.466156750854008e-06
4264.4,-1.4983024974417213e-06
4265.3,-1.5144448856141554e-06
4266.2,-1.527428536768053e-06
4267.1,-1.5323940177029149e-06
4268.0,-1.5174553213668757e-06
4268.9,-1.4893204778470562e-06
4269.8,-1.451377155199411e-06
4270.7,-1.4126595791938363e-06
4271.6,-1.3825581771113108e-06
4272.5,-1.3545091796678608e-06
4273.4,-1.3478912984747628e-06
4274.3,-1.3519232691123364e-06
4275.2,-1.3687332462421902e-06
