wave,flux
3700.85,-0.003192581154360323
3701.75,-0.003204996519835321
3702.65,-0.0031627896406634
3703.55,-0.003076990509261226
3704.45,-0.0029632250075012348
3705.35,-0.0028923496813080974
3706.25,-0.002855829900372416
3707.15,-0.002885605321659715
3708.05,-0.0029401411011511936
3708.96,-0.0030187758747830342
3709.86,-0.0031039538760480687
3710.76,-0.003222626144858184
3711.66,-0.003345206844079166
3712.56,-0.003483548741071109
3713.46,-0.003661172196134989
3714.36,-0.003852409352624107
3715.26,-0.004021746183488965
3716.16,-0.00413620305391991
3717.06,-0.004172946941430522
3717.96,-0.004156300005047531
3718.86,-0.004019485187016648
3719.76,-0.003838740741719355
3720.66,-0.003657227220074068
3721.56,-0.0034976204382022834
3722.46,-0.0034786413716322785
3723.36,-0.0035960059793583164
3724.26,-0.0038386579355911203
3725.16,-0.00412138422948847
3726.06,-0.004387706757621032
3726.96,-0.004588561526262372
3727.86,-0.004727290572527807
3728.76,-0.004815722696456887
3729.66,-0.004865543624465626
3730.56,-0.00482221367865154
3731.46,-0.00471318121352097
3732.36,-0.004528509830194467
3733.26,-0.0042928335569303215
3734.16,-0.004053343532371872
3735.06,-0.0038925413811907996
3735.96,-0.0038755052886353327
3736.86,-0.004023226974200933
3737.76,-0.004329997165964682
3738.66,-0.004742578042924818
3739.56,-0.005202210487559183
3740.46,-0.005601759645514472
3741.36,-0.005943815212194049
3742.26,-0.006101140763896346
3743.16,-0.006116399631311748
3744.06,-0.006064179859717956
3744.96,-0.005926091976240341
3745.86,-0.005722799388016808
3746.76,-0.005521811804066216
3747.67,-0.005292762451929373
3748.57,-0.0050962347238006234
3749.47,-0.004986765494861747
3750.37,-0.005012687562376056
3751.27,-0.00528321367836868
3752.17,-0.005729592255969429
3753.07,-0.006321196669077765
3753.97,-0.006913426053431666
3754.87,-0.007475423428395265
3755.77,-0.007875751558214066
3756.67,-0.008100316733257519
3757.57,-0.008136149467403264
3758.47,-0.008114640512653164
3759.37,-0.008042596174074988
3760.27,-0.008119107777778146
3761.17,-0.00828974198696252
3762.07,-0.008491722242155927
3762.97,-0.008749692176777896
3763.87,-0.008992880682310514
3764.77,-0.009132851009268342
3765.67,-0.009194459114456167
3766.57,-0.009168299458766235
3767.47,-0.009061077066045448
3768.37,-0.00889980580567492
3769.27,-0.008786816713440814
3770.17,-0.008722816434899047
3771.07,-0.008822799980834508
3771.97,-0.009032070810249487
3772.87,-0.009474970401115997
3773.77,-0.010065372915880286
3774.67,-0.010687505322541412
3775.57,-0.011289107610606074
3776.47,-0.011816966393022531
3777.37,-0.012422815950389942
3778.27,-0.013022685303684412
3779.17,-0.013570256545818726
3780.07,-0.014140187055377665
3780.97,-0.014691826377586526
3781.87,-0.015175332573479838
3782.77,-0.01561695049930119
3783.67,-0.015908130421182783
3784.57,-0.016003848659481366
3785.47,-0.016025819293816274
3786.38,-0.015787088317504545
3787.28,-0.015660180003477065
3788.18,-0.015397307218345285
3789.08,-0.015395977037735497
3789.98,-0.015268966676380098
3790.88,-0.015416176262590418
3791.78,-0.015399726200119203
3792.68,-0.015356744226216626
3793.58,-0.015113940915443099
3794.48,-0.014782136575047981
3795.38,-0.014333499044374224
3796.28,-0.01378315351418591
3797.18,-0.013400746977089484
3798.08,-0.013250352194082144
3798.98,-0.013410947277924539
3799.88,-0.014123397721292017
3800.78,-0.015149354206657816
3801.68,-0.016710888918696095
3802.58,-0.018165721808422273
3803.48,-0.019762877942849637
3804.38,-0.02104359970872926
3805.28,-0.022071803408550184
3806.18,-0.02271703991064398
3807.08,-0.023440827023530137
3807.98,-0.024121462948966253
3808.88,-0.02490101406061537
3809.78,-0.025740711319299607
3810.68,-0.02651873905304192
3811.58,-0.027014420892808498
3812.48,-0.02720971817288019
3813.38,-0.027207208474590207
3814.28,-0.02707605145992897
3815.18,-0.02696285920411608
3816.08,-0.0271810711607714
3816.98,-0.027542372025390463
3817.88,-0.028192027434364417
3818.78,-0.028829942872358738
3819.68,-0.029285928459099556
3820.58,-0.029580011670647156
3821.48,-0.02983639485126592
3822.38,-0.029994408056766717
3823.28,-0.030131398403546696
3824.18,-0.030334537067806495
3825.09,-0.03007391604935394
3825.99,-0.029956671836933464
3826.89,-0.02965521245632535
3827.79,-0.029499018969977146
3828.69,-0.029559402245482296
3829.59,-0.029422564840749968
3830.49,-0.029265830229226707
3831.39,-0.028668707150017455
3832.29,-0.027798975698377894
3833.19,-0.026939958313763113
3834.09,-0.025883705576832346
3834.99,-0.025305146703108447
3835.89,-0.025212986301879653
3836.79,-0.0257601763851276
3837.69,-0.026986120880167656
3838.59,-0.02881406711515772
3839.49,-0.030916070619723523
3840.39,-0.033525479054585666
3841.29,-0.036660109441279926
3842.19,-0.04016045967864451
3843.09,-0.0436169491628495
3843.99,-0.047092435750752934
3844.89,-0.05007972003964937
3845.79,-0.052898009908869933
3846.69,-0.05539233069831137
3847.59,-0.057677297684055565
3848.49,-0.05973641987594107
3849.39,-0.06151786507447267
3850.29,-0.06367700177963563
3851.19,-0.0654223766967706
3852.09,-0.06749611512641057
3852.99,-0.06951208552625393
3853.89,-0.0712432463227898
3854.79,-0.07275679144110195
3855.69,-0.07415076557786725
3856.59,-0.07493275573204838
3857.49,-0.0755069351805394
3858.39,-0.07621161428203717
3859.29,-0.0773277462206747
3860.19,-0.07914103053270084
3861.09,-0.0819997373614515
3861.99,-0.0851317611579357
3862.9,-0.08904273427015116
3863.8,-0.0936662000003809
3864.7,-0.09720684072894403
3865.6,-0.0997876658269507
3866.5,-0.10255309777201334
3867.4,-0.10556922099592082
3868.3,-0.10766481323114882
3869.2,-0.1097024116067512
3870.1,-0.1105055699337278
3871.0,-0.1118641166873194
3871.9,-0.11227030275660356
3872.8,-0.11345562433247464
3873.7,-0.1151457886639905
3874.6,-0.11761823896599458
3875.5,-0.12104256160452181
3876.4,-0.12395878514459044
3877.3,-0.12683634605527594
3878.2,-0.12853042741240372
3879.1,-0.13033742977377016
3880.0,-0.13282811005786566
3880.9,-0.13508889740974347
3881.8,-0.13802918683304688
3882.7,-0.1401654204226699
3883.6,-0.14077618533534286
3884.5,-0.14090024876734542
3885.4,-0.13902078318040526
3886.3,-0.13578018984526113
3887.2,-0.13218845102133767
3888.1,-0.12994730552506956
3889.0,-0.13021688544948432
3889.9,-0.13360542064759945
3890.8,-0.14124648228877765
3891.7,-0.15279413383655596
3892.6,-0.16677563329064996
3893.5,-0.18066271469840237
3894.4,-0.19537466295442038
3895.3,-0.20981209494593542
3896.2,-0.22276364972606197
3897.1,-0.2361225204844411
3898.0,-0.24871891370971996
3898.9,-0.26280013306390165
3899.8,-0.27596044337176245
3900.7,-0.29052051992122546
3901.6,-0.3036492766195374
3902.51,-0.3168627812224424
3903.41,-0.3291704917736017
3904.31,-0.34165740343918255
3905.21,-0.35463435053362574
3906.11,-0.3697001190285771
3907.01,-0.38909179126179316
3907.91,-0.4135440347643304
3908.81,-0.4406211179012257
3909.71,-0.4708928561338115
3910.61,-0.4989253887761659
3911.51,-0.532020202785677
3912.41,-0.562390633860867
3913.31,-0.5895662837810461
3914.21,-0.6157229105217247
3915.11,-0.6423779375403502
3916.01,-0.6695423423762797
3916.91,-0.697792409712466
3917.81,-0.7287883740008807
3918.71,-0.7607281286881747
3919.61,-0.7947481408296931
3920.51,-0.8311960590610937
3921.41,-0.878421632392549
3922.31,-0.9346672620283212
3923.21,-0.9913272930251277
3924.11,-1.0564309987889242
3925.01,-1.122329123301746
3925.91,-1.182515507959053
3926.81,-1.2324321353177792
3927.71,-1.27333339663594
3928.61,-1.2967737522944809
3929.51,-1.3118189112849012
3930.41,-1.3082414295415241
3931.31,-1.3046677198397627
3932.21,-1.3028766282561932
3933.11,-1.3306134939788266
3934.01,-1.4478666700369212
3934.91,-1.7264528576908167
3935.81,-2.3163259555781854
3936.71,-3.462990447338249
3937.61,-5.993746241840681
3938.51,-13.511514100795317
3939.42,-370.5250693037336
3940.32,18.839285577295055
3941.22,9.990828401169628
3942.12,7.033423444450827
3943.02,5.4998605350230925
3943.92,4.57606295262231
3944.82,3.955851373567492
3945.72,3.4947314200388235
3946.62,3.1637990976680306
3947.52,2.892896504102451
3948.42,2.6865786703445753
3949.32,2.486346223716091
3950.22,2.331913946864395
3951.12,2.1943899565953147
3952.02,2.0757739782728155
3952.92,1.9689744805682434
3953.82,1.863093914233704
3954.72,1.7737073347474002
3955.62,1.6932035015105493
3956.52,1.6180785881075253
3957.42,1.534572247019486
3958.32,1.464743435006217
3959.22,1.3969259520889963
3960.12,1.3231340484606342
3961.02,1.2396505802330353
3961.92,1.1497444242716914
3962.82,1.0568812101055745
3963.72,0.96088324102148
3964.62,0.8590738553271524
3965.52,0.7594110356539847
3966.42,0.6618751163675461
3967.32,0.5730637594831345
3968.22,0.4969460474994112
3969.12,0.44700566480490334
3970.02,0.42461477648897833
3970.92,0.4345414278290292
3971.82,0.47108427918744367
3972.72,0.5212354362033812
3973.62,0.587132895523745
3974.52,0.6508804878744517
3975.42,0.7130788361704696
3976.32,0.7684265842778989
3977.22,0.8148871499254429
3978.13,0.8577532192915697
3979.03,0.895424573101112
3979.93,0.9221803066791294
3980.83,0.9385322770305571
3981.73,0.9529923964498211
3982.63,0.9572937142857143
3983.53,0.9571383299231377
3984.43,0.9578797963164761
3985.33,0.9612067216981182
3986.23,0.9647691742906278
3987.13,0.9696508274226056
3988.03,0.9765083505549305
3988.93,0.9818336741472327
3989.83,0.9911482543126487
3990.73,0.994837393673992
3991.63,0.9961462597730656
3992.53,1.004358882406404
3993.43,0.9988626308913249
3994.33,0.9969119481508673
3995.23,0.9884150867750393
3996.13,0.9799678843924783
3997.03,0.9655135314605403
3997.93,0.9616236552315289
3998.83,0.9634122318399632
3999.73,0.9655033912790986
4000.63,0.9760216321189467
4001.53,0.9860429919666917
4002.43,0.9933362594896185
4003.33,0.9901636568840635
4004.23,0.9835324297777637
4005.13,0.9689813933739079
4006.03,0.9588978201950746
4006.93,0.9510409378985843
4007.83,0.9534767033492767
4008.73,0.9604898835986301
4009.63,0.9795403457477304
4010.53,0.989121403015514
4011.43,0.9962203124509318
4012.33,1.0013135803608375
4013.23,1.003392118229182
4014.13,1.01144138246624
4015.03,1.0081265193211633
4015.93,1.0069217110428876
4016.84,1.009459231290389
4017.74,1.014436618633076
4018.64,1.0141476856379232
4019.54,1.0178982684946463
4020.44,1.0212651405672437
4021.34,1.0254182359229904
4022.24,1.0165845256631478
4023.14,1.0204760999046851
4024.04,1.0219879235688203
4024.94,1.0215547168628558
4025.84,1.025878596779761
4026.74,1.028366036907492
4027.64,1.0307728597659482
4028.54,1.034286663347562
4029.44,1.02233372112759
4030.34,1.0039749740395327
4031.24,0.9873744465544599
4032.14,0.9737906352824695
4033.04,0.9615427043090176
4033.94,0.958352754511575
4034.84,0.9748385215224121
4035.74,0.9900625956904535
4036.64,1.0122229256687028
4037.54,1.038691001093344
4038.44,1.0532412562745501
4039.34,1.0614014526029834
4040.24,1.0668076761790912
4041.14,1.0564004830892537
4042.04,1.0474020764236984
4042.94,1.0337712548828135
4043.84,1.0146526569500665
4044.74,0.996034623667129
4045.64,0.9823814273241815
4046.54,0.976045837921977
4047.44,0.9809274268835761
4048.34,0.9959086102112731
4049.24,1.0161675065711735
4050.14,1.0332984639086187
4051.04,1.0430481304222323
4051.94,1.0545400207819884
4052.84,1.0500855187815157
4053.74,1.040304455256608
4054.65,1.0318089171214824
4055.55,1.026068252014533
4056.45,1.0138274204368127
4057.35,1.0134814651745154
4058.25,1.0115444224028092
4059.15,1.0150414914217385
4060.05,1.023568419728075
4060.95,1.0201417874092624
4061.85,1.017868795596656
4062.75,1.0094128520184809
4063.65,1.0017348222611333
4064.55,0.9904178850540937
4065.45,0.9875521737795105
4066.35,0.9908588757013143
4067.25,1.0073438433764472
4068.15,1.0157668139065743
4069.05,1.0254976920197731
4069.95,1.0329150101566615
4070.85,1.0324421853847328
4071.75,1.032285436116836
4072.65,1.0276791964505627
4073.55,1.0227892192496497
4074.45,1.0109108423273516
4075.35,1.0025305577478214
4076.25,0.9869803069400707
4077.15,0.9720394117669109
4078.05,0.9650887925905949
4078.95,0.9666141966868889
4079.85,0.9731545643681027
4080.75,0.988031936182634
4081.65,1.0062502865713348
4082.55,1.0153421852075837
4083.45,1.0214154242865783
4084.35,1.0267513772911974
4085.25,1.0256211143937644
4086.15,1.0306211898459134
4087.05,1.0412571912665602
4087.95,1.0484782673648885
4088.85,1.0562037425705717
4089.75,1.0613826625824239
4090.65,1.062850846251456
4091.55,1.0570645727487562
4092.45,1.046338591735462
4093.36,1.027793301964545
4094.26,1.0108614486557799
4095.16,0.985687726910745
4096.06,0.9632074071155294
4096.96,0.9316519076885263
4097.86,0.8983612232869703
4098.76,0.8565867233058301
4099.66,0.8186236414575845
4100.56,0.7800270885358638
4101.46,0.7473411590070576
4102.36,0.728198467761844
4103.26,0.7287238991347655
4104.16,0.7463647815513016
4105.06,0.7773976937577061
4105.96,0.821145890840303
4106.86,0.8554597579290044
4107.76,0.8938032888751288
4108.66,0.9168351423042604
4109.56,0.9393098666586704
4110.46,0.9504366575805342
4111.36,0.96254215081266
4112.26,0.9745027524159625
4113.16,0.992277331346145
4114.06,1.0054592655418177
4114.96,1.0246836814012636
4115.86,1.0283037965654276
4116.76,1.0326682037066368
4117.66,1.030734892647669
4118.56,1.0301785940293902
4119.46,1.0273438770411825
4120.36,1.0237564267207306
4121.26,1.0258211056171775
4122.16,1.0236359742791057
4123.06,1.0253902476654788
4123.96,1.0297655140163524
4124.86,1.0359098696824018
4125.76,1.0329107498689967
4126.66,1.034704061488332
4127.56,1.0362350710728612
4128.46,1.0243374402368646
4129.36,1.0210201026942824
4130.26,1.0108119365683397
4131.17,1.0055570471905197
4132.06,0.9989587002246418
4132.97,0.99623894633388
4133.87,0.9952492636440501
4134.77,0.9999002525418677
4135.67,1.0110156002025859
4136.57,1.0277310132472386
4137.47,1.041849325128349
4138.37,1.0612904975953241
4139.27,1.0662210294448637
4140.17,1.066791149550157
4141.07,1.0601441689546052
4141.97,1.0486916381915912
4142.87,1.0322120882307426
4143.77,1.0134094914916847
4144.67,1.0086937615110438
4145.57,1.0061467791926078
4146.47,1.0126664975734354
4147.37,1.0217846351721271
4148.27,1.0305459428169288
4149.17,1.0345268305729518
4150.07,1.0343344672566344
4150.97,1.0312838643272575
4151.87,1.0284723584543114
4152.77,1.0216371777265083
4153.67,1.0167637340188047
4154.57,1.0120333099748438
4155.47,1.0065411773274993
4156.37,1.0087252566843747
4157.27,1.0081785261844625
4158.17,1.0160052839407976
4159.07,1.0276793042067784
4159.97,1.0400215464588618
4160.87,1.0455050825892485
4161.77,1.0520744399565596
4162.67,1.0596787017414462
4163.57,1.0614910692281874
4164.47,1.0644092329165542
4165.37,1.0588749553467471
4166.27,1.053028446558882
4167.17,1.0475568754307518
4168.07,1.0404332149528717
4168.98,1.036592146894584
4169.88,1.0225501293069708
4170.78,1.0100855924292895
4171.68,0.993655020211422
4172.58,0.9826069605642351
4173.48,0.9658007059085691
4174.38,0.9567537578950952
4175.28,0.9504021436116509
4176.18,0.9598496493667266
4177.08,0.9625379912654591
4177.98,0.9711016669050986
4178.88,0.9783674654038121
4179.78,0.9867803118035766
4180.68,0.987729816718577
4181.58,0.9939290239605452
4182.48,0.9980725032182046
4183.38,1.0054133949505462
4184.28,1.008797109203214
4185.18,1.0074125514807533
4186.08,1.0072298032159743
4186.98,1.0032573480000104
4187.88,0.9999682914544987
4188.78,1.0031720626668095
4189.68,1.0061447927307927
4190.58,1.010397832745855
4191.48,1.0209443926480648
4192.38,1.0244734160821627
4193.28,1.0342641027443915
4194.18,1.0274709780507685
4195.08,1.0263523178430904
4195.98,1.0142690132559853
4196.88,1.003740757984628
4197.78,0.9885918162096478
4198.68,0.9788086764548942
4199.58,0.9669499191374193
4200.48,0.9595973951826724
4201.38,0.9619700154586097
4202.28,0.9647304779244459
4203.18,0.9688685263481556
4204.08,0.9772834171692867
4204.98,0.990189846711013
4205.88,0.9991857056057568
4206.79,1.0066087266467239
4207.69,1.0205345577784677
4208.59,1.0302594251505761
4209.49,1.0373052375073284
4210.39,1.0390610239509979
4211.29,1.0404755096970215
4212.19,1.042358513673743
4213.09,1.0336373131807177
4213.99,1.0269733488965413
4214.89,1.0219603513634599
4215.79,1.0171874924870827
4216.69,1.0120506897637076
4217.59,1.0146929389663666
4218.49,1.0198040938439017
4219.39,1.0331743204853057
4220.29,1.0416530546440317
4221.19,1.0430229926055625
4222.09,1.0393122787905937
4222.99,1.0226208981832976
4223.89,0.9987015801176315
4224.79,0.9631945770753244
4225.69,0.9381859905912497
4226.59,0.9159092823017458
4227.49,0.9070309727518143
4228.39,0.9154472254877242
4229.29,0.9386329854301337
4230.19,0.9626634127031238
4231.09,0.994121503086056
4231.99,1.0076266653785053
4232.89,1.0159521398496008
4233.79,1.0197829895302488
4234.69,1.0166403343426573
4235.59,1.0070560531809152
4236.49,0.9977650545094598
4237.39,0.9960283294591633
4238.29,1.0010670723194282
4239.19,1.002184931045704
4240.09,1.0108259062231355
4240.99,1.015707727647271
4241.89,1.0308838862537806
4242.79,1.038836191730724
4243.69,1.0434495756918238
4244.59,1.045361529337253
4245.5,1.0461186811434182
4246.4,1.0371766054714362
4247.3,1.0287750141667713
4248.2,1.0200895552335394
4249.1,1.0100632751754777
4250.0,1.0034485665673503
4250.9,1.002379363419077
4251.8,1.0103529069706965
4252.7,1.0136951425401137
4253.6,1.0168958314406555
4254.5,1.0248051268120875
4255.4,1.0299451643182105
4256.3,1.0289282564956028
4257.2,1.032524591368126
4258.1,1.0303698358251845
4259.0,1.0247259794225045
4259.9,1.0230156668495292
4260.8,1.018030532491532
4261.7,1.0180966332600347
4262.6,1.026736866039694
4263.5,1.0457516925171428
4264.4,1.0545053528380108
4265.3,1.069658661327602
4266.2,1.0814751742326525
4267.1,1.0800470705308218
4268.0,1.0651822940612337
4268.9,1.0527384987972996
4269.8,1.0292347667564898
4270.7,1.0090000445397895
4271.6,0.9892215352836632
4272.5,0.9796096917325752
4273.4,0.9644639282761969
4274.3,0.9695026643775592
4275.2,0.9804226736769808
4276.1,0.9950987070691167
4277.0,1.0152023085448143
4277.9,1.0294898726456154
4278.8,1.040322703640739
4279.7,1.0517505031722083
4280.6,1.048980893176077
4281.5,1.0449538709739672
4282.4,1.038673820176616
4283.31,1.0367574571073246
4284.21,1.031245210557464
4285.11,1.023607565749032
4286.01,1.0092910325430475
4286.91,1.003143075188766
4287.81,0.98413006502276
4288.71,0.9749470455172771
4289.61,0.9640521783090314
4290.51,0.9581393001970117
4291.41,0.9545026870090475
4292.31,0.962937800910681
4293.21,0.9745324815575606
4294.11,0.9831042065884833
4295.01,0.9865578180233323
4295.91,0.9794465254724146
4296.81,0.9667708411991299
4297.71,0.9496144292602838
4298.61,0.9257936419988708
4299.51,0.8965248235323622
4300.41,0.8778385743354996
4301.31,0.8617858376174263
4302.21,0.8555691795704943
4303.11,0.8534999292384716
4304.01,0.8557199577824667
4304.91,0.8554710859427496
4305.81,0.8576904869779491
4306.71,0.8542937488062791
4307.61,0.8557035707787571
4308.51,0.8502311197824698
4309.41,0.8514286578446206
4310.31,0.8589115335168159
4311.21,0.8743398712515109
4312.11,0.8929818452612638
4313.01,0.9150412956650547
4313.91,0.9452310032978958
4314.81,0.970554312795396
4315.71,1.0052243819060962
4316.61,1.042188865345976
4317.51,1.0751729620129382
4318.41,1.092197971821561
4319.31,1.1006062051165189
4320.21,1.1058272571310481
4321.12,1.0951634018241958
4322.02,1.074518145618987
4322.92,1.049465575541248
4323.82,1.0192323553469091
4324.72,0.9993360734730913
4325.62,0.9755458180353067
4326.52,0.9710615643521704
4327.42,0.9745659848342108
4328.32,0.9836753916018968
4329.22,1.0089822238569064
4330.12,1.019134440739795
4331.02,1.0370648043214248
4331.92,1.0473826962385178
4332.82,1.0428754120699506
4333.72,1.0353007907691556
4334.62,1.0177245440518923
4335.52,0.996318573636125
4336.42,0.9616331840542919
4337.32,0.9173078408871546
4338.22,0.8724396019168899
4339.12,0.8276622517083072
4340.02,0.7871180268207026
4340.92,0.7661637354531361
4341.82,0.7592405441515628
4342.72,0.7775147352964663
4343.62,0.8034328484208928
4344.52,0.8445152354939426
4345.42,0.886387520634527
4346.32,0.9229384635287208
4347.22,0.9560490388110563
4348.12,0.9808613372576173
4349.02,0.9958556344643107
4349.92,1.0008677762942026
4350.82,0.995830156329941
4351.72,0.9903049749227478
