wave,flux
3700.85,0.00780482599036743
3701.75,0.007712445252930292
3702.65,0.007483887882492602
3703.55,0.007087547399089063
3704.45,0.006619868926180702
3705.35,0.006147340388259013
3706.25,0.005757563556266474
3707.15,0.005591911026872238
3708.05,0.005619874892669955
3708.96,0.005837895336076345
3709.86,0.006261555452194203
3710.76,0.006875829447701026
3711.66,0.007586161888850032
3712.56,0.008333611269213474
3713.46,0.00892653322465495
3714.36,0.009398678135587509
3715.26,0.009538157275838835
3716.16,0.009375819781972607
3717.06,0.00888914210915502
3717.96,0.008321240234762526
3718.86,0.00752690445005237
3719.76,0.00674175839836532
3720.66,0.006135690879741615
3721.56,0.005821868785484496
3722.46,0.0059286888547032774
3723.36,0.006368962994623259
3724.26,0.00700469874806104
3725.16,0.00773670431351866
3726.06,0.008273520061594375
3726.96,0.008608664687783698
3727.86,0.008751921135471684
3728.76,0.008827613434136884
3729.66,0.00880261593364546
3730.56,0.008684015543085559
3731.46,0.008391105120173029
3732.36,0.007868029563872392
3733.26,0.007221842048751683
3734.16,0.006532988025956166
3735.06,0.005969263513114453
3735.96,0.005760107131609466
3736.86,0.005877218130357745
3737.76,0.006383947081012919
3738.66,0.007231346389465662
3739.56,0.008164638318934379
3740.46,0.009085922624280223
3741.36,0.009720189866045333
3742.26,0.009914040057234714
3743.16,0.00970457938669976
3744.06,0.009217417260398543
3744.96,0.00859813640444232
3745.86,0.007997880518296292
3746.76,0.007518567183712744
3747.67,0.0072096830000179775
3748.57,0.0071436755457443745
3749.47,0.0073538195591961305
3750.37,0.00797363410253507
3751.27,0.00895038277192507
3752.17,0.010286194901578059
3753.07,0.01162242298923474
3753.97,0.012906956097179763
3754.87,0.013844728232812999
3755.77,0.014241090621651369
3756.67,0.014096821496844183
3757.57,0.013581428772958228
3758.47,0.012878633489699705
3759.37,0.012396712165615055
3760.27,0.012169383355216853
3761.17,0.01239304470513624
3762.07,0.012738913047377141
3762.97,0.013077483786810683
3763.87,0.013335913730665233
3764.77,0.013623402333210853
3765.67,0.013814133875614925
3766.57,0.014119178834896494
3767.47,0.014571111338493358
3768.37,0.015151294734445346
3769.27,0.016000592559193127
3770.17,0.016951889092793715
3771.07,0.017937951776895868
3771.97,0.018940321618032004
3772.87,0.01991305819772194
3773.77,0.02065959511960745
3774.67,0.02123908610692119
3775.57,0.02167860181237726
3776.47,0.022111620143213336
3777.37,0.022453860830490432
3778.27,0.023051563391798542
3779.17,0.023575863577094666
3780.07,0.02443474654519196
3780.97,0.025267344039018945
3781.87,0.02586207483327914
3782.77,0.026412248112397823
3783.67,0.026714041110336813
3784.57,0.026458680861291464
3785.47,0.02564122078984071
3786.38,0.024614201005974716
3787.28,0.023400541987577878
3788.18,0.02236946185663309
3789.08,0.021659330770865258
3789.98,0.02143934865772305
3790.88,0.02169669588998776
3791.78,0.022048788657767365
3792.68,0.022383576470254813
3793.58,0.022510840196430817
3794.48,0.022328738757822885
3795.38,0.022060631844599374
3796.28,0.021688718596612224
3797.18,0.021421205307007342
3798.08,0.021303747567178677
3798.98,0.021836096224886775
3799.88,0.022891126711999474
3800.78,0.02444419604175136
3801.68,0.02648093129990488
3802.58,0.028658190554710927
3803.48,0.030637548746614545
3804.38,0.032173535879261896
3805.28,0.03321171183564057
3806.18,0.03354370882747715
3807.08,0.0337575122260608
3807.98,0.03402496600239944
3808.88,0.03457029537316866
3809.78,0.03514555212859606
3810.68,0.03593282242213209
3811.58,0.036131115173125866
3812.48,0.03549414712692793
3813.38,0.03424365699955448
3814.28,0.03254359639206528
3815.18,0.03091346957071401
3816.08,0.029567775178458593
3816.98,0.02887908620247606
3817.88,0.028549232129213935
3818.78,0.028344805532971352
3819.68,0.02789253302231201
3820.58,0.02764219277298289
3821.48,0.027368185501101653
3822.38,0.02728369252467284
3823.28,0.02721922906644051
3824.18,0.02697246308693947
3825.09,0.0263781356314783
3825.99,0.025686369586163844
3826.89,0.025277609565784724
3827.79,0.02522424831027694
3828.69,0.025626624825458345
3829.59,0.026511502126303585
3830.49,0.027085752106859567
3831.39,0.027595420036275166
3832.29,0.027713477744436995
3833.19,0.027757975744643393
3834.09,0.027943466179042753
3834.99,0.028590430625221774
3835.89,0.029262822711606348
3836.79,0.030133072597966812
3837.69,0.030733162302827854
3838.59,0.031163425864664623
3839.49,0.03187420730987514
3840.39,0.03325937538815911
3841.29,0.03554594303134121
3842.19,0.03905276180949743
3843.09,0.04306355464563494
3843.99,0.04719471279345489
3844.89,0.050732471725525516
3845.79,0.05377733256349865
3846.69,0.05542175203263708
3847.59,0.05702284171912667
3848.49,0.05725013087431143
3849.39,0.05794845187570664
3850.29,0.05784469065803636
3851.19,0.05829482274621093
3852.09,0.05894472164340887
3852.99,0.05970278595726999
3853.89,0.05988366047409151
3854.79,0.05982033177703557
3855.69,0.05904430714448135
3856.59,0.057496150619950954
3857.49,0.05602534289269491
3858.39,0.05421828342357312
3859.29,0.05350512007974506
3860.19,0.054049161175734044
3861.09,0.056431767436814335
3861.99,0.060697795680118474
3862.9,0.06576427741443015
3863.8,0.07083211116407334
3864.7,0.0750231994332249
3865.6,0.07774877109425815
3866.5,0.0790410649873305
3867.4,0.07861098033277857
3868.3,0.0781836697022292
3869.2,0.07690870744521543
3870.1,0.07543219951393278
3871.0,0.074105718190897
3871.9,0.07465790598243488
3872.8,0.07647857268735016
3873.7,0.0798969812742685
3874.6,0.0849895527729592
3875.5,0.09053709509649492
3876.4,0.09413118230210843
3877.3,0.09528013959469482
3878.2,0.09528072413471432
3879.1,0.09377728269392498
3880.0,0.09331631088584832
3880.9,0.09432780903971527
3881.8,0.09636208898793423
3882.7,0.09863218603470299
3883.6,0.10147901053161762
3884.5,0.10439540081056914
3885.4,0.10559631842349844
3886.3,0.10649198360353768
3887.2,0.10754536667522757
3888.1,0.10966407403479937
3889.0,0.11456383426642629
3889.9,0.12235595445463421
3890.8,0.1328070859435603
3891.7,0.14387569134243522
3892.6,0.15498718806593906
3893.5,0.1630156744135009
3894.4,0.16871298641105298
3895.3,0.17242244021811626
3896.2,0.17486953789750595
3897.1,0.17748288201232693
3898.0,0.1798925535603318
3898.9,0.18259828794572633
3899.8,0.1852189036431887
3900.7,0.18771460609913332
3901.6,0.18937334103497544
3902.51,0.19067932764219994
3903.41,0.19144212249772985
3904.31,0.19078637189509678
3905.21,0.19157665942350582
3906.11,0.19544856699792962
3907.01,0.20264091403883924
3907.91,0.21341429367954476
3908.81,0.2266315845210074
3909.71,0.23971762859305545
3910.61,0.2535174461242917
3911.51,0.26488337597266537
3912.41,0.27535838529406603
3913.31,0.2812770970333646
3914.21,0.28592777437995115
3915.11,0.2880723737420944
3916.01,0.28640725707016856
3916.91,0.2847316718620676
3917.81,0.28052149377741364
3918.71,0.2740986920690782
3919.61,0.264366743031103
3920.51,0.2580152403559528
3921.41,0.2501074007013771
3922.31,0.24629102669466302
3923.21,0.244212960672146
3924.11,0.2450701348298572
3925.01,0.24348543993574584
3925.91,0.24090543667292405
3926.81,0.231559790655307
3927.71,0.2178264771080326
3928.61,0.19927595432728556
3929.51,0.17911805431827935
3930.41,0.15884861711191645
3931.31,0.14072001366158848
3932.21,0.1249651645398257
3933.11,0.11410481236027728
3934.01,0.10894280376776819
3934.91,0.11029047166581785
3935.81,0.11915955677036066
3936.71,0.13548033796408177
3937.61,0.1580250371795873
3938.51,0.1838410166392866
3939.42,0.21232043560725913
3940.32,0.2367752759905988
3941.22,0.2584020757037847
3942.12,0.2763351107342325
3943.02,0.2913678265663968
3943.92,0.30343853759210593
3944.82,0.3195090704318751
3945.72,0.3407171439823389
3946.62,0.36347578152125143
3947.52,0.3897780611805357
3948.42,0.4177973407363516
3949.32,0.43900411390683886
3950.22,0.46042799002217016
3951.12,0.4780012036802528
3952.02,0.49430033005670276
3952.92,0.5053336766416094
3953.82,0.5147046416005422
3954.72,0.5192195693949555
3955.62,0.5223970934716482
3956.52,0.5231557373703156
3957.42,0.5202943907752107
3958.32,0.5130667399395309
3959.22,0.5021734258964003
3960.12,0.48219344862964614
3961.02,0.45700857292541774
3961.92,0.42448082636623996
3962.82,0.3906181003987795
3963.72,0.35709106422188386
3964.62,0.3269941548552252
3965.52,0.29625377871714104
3966.42,0.26654835464003396
3967.32,0.23984843824517596
3968.22,0.21876649227282194
3969.12,0.20721092755494008
3970.02,0.20918165114907777
3970.92,0.224906512702627
3971.82,0.25446190051039136
3972.72,0.2932995272468422
3973.62,0.3426565922853556
3974.52,0.39156009431263544
3975.42,0.4422411150395696
3976.32,0.49476054784915463
3977.22,0.5458151633206241
3978.13,0.5938414825037065
3979.03,0.6414968386791349
3979.93,0.6781806980799419
3980.83,0.7089035536806112
3981.73,0.7324980640206915
3982.63,0.7462123863120079
3983.53,0.7548321276463668
3984.43,0.7644161908730179
3985.33,0.7761632831788267
3986.23,0.7915577268566688
3987.13,0.8104726555883801
3988.03,0.8249205897442887
3988.93,0.8427631444757284
3989.83,0.8553912478243745
3990.73,0.8704169130707998
3991.63,0.8802294045258099
3992.53,0.889479438698979
3993.43,0.8940943098947977
3994.33,0.8992877520053785
3995.23,0.8981557674854352
3996.13,0.8960247024640178
3997.03,0.8953794235486058
3997.93,0.8926172226703186
3998.83,0.9058937781963828
3999.73,0.9246890207652579
4000.63,0.947310067313386
4001.53,0.9688077987300278
4002.43,0.9839119023511964
4003.33,0.9784239234692571
4004.23,0.9675910454720936
4005.13,0.9482884992913653
4006.03,0.9332049156381756
4006.93,0.9198066511007852
4007.83,0.9253556617959157
4008.73,0.9426734013698244
4009.63,0.9684388263328012
4010.53,0.9908048260813466
4011.43,1.0120777535877208
4012.33,1.027313137471185
4013.23,1.0442075619104072
4014.13,1.051877547158486
4015.03,1.0598347483089638
4015.93,1.0589682425063833
4016.84,1.0671475531934802
4017.74,1.071805302460102
4018.64,1.0717697748577848
4019.54,1.0780848882927365
4020.44,1.0829696543889895
4021.34,1.0834255034850757
4022.24,1.0828048194716209
4023.14,1.0779260684032894
4024.04,1.075425091727329
4024.94,1.0757648664236765
4025.84,1.0766748133413633
4026.74,1.0843548882391723
4027.64,1.0795804921107652
4028.54,1.0775684732713675
4029.44,1.053879076626205
4030.34,1.0216372478020386
4031.24,0.9742747337946667
4032.14,0.9347901704595958
4033.04,0.9032120764021075
4033.94,0.8911311865657108
4034.84,0.9017833344335957
4035.74,0.9376685408587372
4036.64,0.9825734285712052
4037.54,1.0300767177296086
4038.44,1.0733316498310548
4039.34,1.1002969336408326
4040.24,1.1045072947186283
4041.14,1.1008395431942546
4042.04,1.0752669203331147
4042.94,1.0380167901746786
4043.84,0.9874659528129471
4044.74,0.9367440174725689
4045.64,0.8914806832637874
4046.54,0.8684299725068524
4047.44,0.8687484944166322
4048.34,0.9058653056320861
4049.24,0.9552645318188436
4050.14,1.0068026406100614
4051.04,1.042843228513714
4051.94,1.0622312891221926
4052.84,1.065718739449526
4053.74,1.057681820173764
4054.65,1.033607869817437
4055.55,1.0062087314951909
4056.45,0.9847093245433602
4057.35,0.9680163131928917
4058.25,0.9554898766282319
4059.15,0.9514560782228294
4060.05,0.9494948564079501
4060.95,0.9453664983707347
4061.85,0.9270048326731953
4062.75,0.908302237420336
4063.65,0.8867506464988149
4064.55,0.8695401344356694
4065.45,0.8725577463808674
4066.35,0.8847554548957494
4067.25,0.9077217274408054
4068.15,0.9344679527352678
4069.05,0.9566090872519717
4069.95,0.9694973430839898
4070.85,0.9707359551882169
4071.75,0.9644625633110894
4072.65,0.9548929864500569
4073.55,0.9514125685710094
4074.45,0.9491006243953451
4075.35,0.9420678397318163
4076.25,0.9367419421223933
4077.15,0.9288445661757117
4078.05,0.9225648246370969
4078.95,0.9365858781293492
4079.85,0.9588650274029746
4080.75,0.9927656837105223
4081.65,1.0235243649353403
4082.55,1.0448450717326334
4083.45,1.0640201713657453
4084.35,1.0648286672181757
4085.25,1.0732662089859553
4086.15,1.0823238435022038
4087.05,1.1037733276448534
4087.95,1.1260060383066552
4088.85,1.146457731499761
4089.75,1.1555875209011552
4090.65,1.1610981114137011
4091.55,1.1544320321588164
4092.45,1.137371872348285
4093.36,1.1217453820379726
4094.26,1.0946906070278097
4095.16,1.0721673849243882
4096.06,1.0404274122488724
4096.96,1.0074941075103043
4097.86,0.9759199520754539
4098.76,0.9453510158600693
4099.66,0.9190383134099968
4100.56,0.898734264758824
4101.46,0.8731750401084388
4102.36,0.8651337735862713
4103.26,0.8751973416484412
4104.16,0.89334908968958
4105.06,0.9243909284402787
4105.96,0.960600208475439
4106.86,0.9903971621750318
4107.76,1.0176462717271668
4108.66,1.0299918276683324
4109.56,1.0279718316730808
4110.46,1.0245640797964495
4111.36,1.0296656526724335
4112.26,1.031537660295067
4113.16,1.037097862933294
4114.06,1.04888333277862
4114.96,1.0632145039121328
4115.86,1.0730900425480316
4116.76,1.0754517511664563
4117.66,1.071439309757959
4118.56,1.058869444228341
4119.46,1.0498133551763769
4120.36,1.0394592715685773
4121.26,1.0308681144182856
4122.16,1.0294588172404726
4123.06,1.0401236364595514
4123.96,1.0387365931062038
4124.86,1.045314053821941
4125.76,1.0480564870046505
4126.66,1.0462653507855155
4127.56,1.0423880363017812
4128.46,1.0210432510521126
4129.36,1.0034677121305975
4130.26,0.9875625266059062
4131.17,0.9613552449374319
4132.06,0.9428461342615242
4132.97,0.9309001585406075
4133.87,0.9268269038885404
4134.77,0.9376202976648993
4135.67,0.9588238255109058
4136.57,0.9885170563145752
4137.47,1.0173485123276886
4138.37,1.038936591439992
4139.27,1.0503948359473587
4140.17,1.0492724409202592
4141.07,1.033291319656131
4141.97,1.004546057327242
4142.87,0.969590897623633
4143.77,0.9394450449230985
4144.67,0.9232093691680674
4145.57,0.9202760567534968
4146.47,0.9311753888161827
4147.37,0.9470728442657269
4148.27,0.9642944322075668
4149.17,0.9748722806287703
4150.07,0.972498360589635
4150.97,0.9709172468296271
4151.87,0.9624201264366163
4152.77,0.9539239779971775
4153.67,0.9544560753509325
4154.57,0.945525899880871
4155.47,0.9437853284017684
4156.37,0.9438888959741843
4157.27,0.9568892614130005
4158.17,0.9720914151582438
4159.07,0.9906374339313283
4159.97,1.018409787727069
4160.87,1.037155354677062
4161.77,1.0586336805410987
4162.67,1.0685313570232664
4163.57,1.07992936070166
4164.47,1.0760465158386265
4165.37,1.0682965697961644
4166.27,1.0538633021904582
4167.17,1.0381943416462676
4168.07,1.0239257393300036
4168.98,1.0129968636369229
4169.88,1.0013563012684723
4170.78,0.9912066356896753
4171.68,0.9730414843793501
4172.58,0.9541632691358762
4173.48,0.9383578901948815
4174.38,0.9221923046848357
4175.28,0.9184416722709898
4176.18,0.919005799938584
4177.08,0.9286484960097292
4177.98,0.9375005082505421
4178.88,0.9465308628063036
4179.78,0.9575041539900009
4180.68,0.9642444668646901
4181.58,0.9766334811517994
4182.48,0.9797566947190489
4183.38,0.9872044625441625
4184.28,0.99606469045458
4185.18,0.9991843533052283
4186.08,0.9976193591076323
4186.98,0.9956077505954676
4187.88,0.9953591019729083
4188.78,0.9939564737958102
4189.68,0.9976764434987181
4190.58,1.0109423970799691
4191.48,1.019786092436066
4192.38,1.0341116510319783
4193.28,1.0413586744567025
4194.18,1.0424968090035385
4195.08,1.0264609900870112
4195.98,1.0051921782751132
4196.88,0.9762093079540332
4197.78,0.9512848585946352
4198.68,0.9313944673384195
4199.58,0.911758488580015
4200.48,0.9107097569501695
4201.38,0.9085028897198839
4202.28,0.9230308827948204
4203.18,0.9437559195135736
4204.08,0.9649196065657745
4204.98,0.9958256730571629
4205.88,1.026462300542751
4206.79,1.0545246801980823
4207.69,1.079921855386507
4208.59,1.094942408203385
4209.49,1.097458683400374
4210.39,1.1024460848199762
4211.29,1.0970540542572067
4212.19,1.0867771764770713
4213.09,1.0786165860164965
4213.99,1.0623811259767537
4214.89,1.047908106337563
4215.79,1.036438612592064
4216.69,1.042151586316126
4217.59,1.056802623102086
4218.49,1.0756944664181596
4219.39,1.1025463888732292
4220.29,1.1241544408647854
4221.19,1.1259926115681935
4222.09,1.104788534168128
4222.99,1.0644472045638202
4223.89,1.0139207645477768
4224.79,0.9394912279733197
4225.69,0.8700833310358176
4226.59,0.8172215071402308
4227.49,0.7949076791033896
4228.39,0.8093116644336025
4229.29,0.845762464401029
4230.19,0.9024584922079337
4231.09,0.9571649038107041
4231.99,1.007148490431763
4232.89,1.0354426595086892
4233.79,1.043476808509143
4234.69,1.0390378878799857
4235.59,1.0345891589527707
4236.49,1.018123635727431
4237.39,1.0156874119535144
4238.29,1.0209148615108798
4239.19,1.028859677051528
4240.09,1.0483354655668136
4240.99,1.0721014778933224
4241.89,1.1041171591872634
4242.79,1.129400957588767
4243.69,1.1465515723884323
4244.59,1.169303722892846
4245.5,1.1758326470395069
4246.4,1.1616854951575588
4247.3,1.141296880554988
4248.2,1.1093178857420902
4249.1,1.072350218046959
4250.0,1.0384753248138876
4250.9,1.0091807423327306
4251.8,0.9950671289594111
4252.7,0.9921689275399951
4253.6,0.9914492589317233
4254.5,0.9976300868437664
4255.4,1.0074636266169172
4256.3,1.0163106485663391
4257.2,1.02495833246148
4258.1,1.0242396045355109
4259.0,1.019931047184053
4259.9,1.014044163457039
4260.8,1.0118106145819326
4261.7,1.0160098918835596
4262.6,1.0384627538216402
4263.5,1.0722620137253123
4264.4,1.1062600116198595
4265.3,1.1421041327412875
4266.2,1.1547999472812918
4267.1,1.1519412602084886
4268.0,1.135555406091413
4268.9,1.0903519838136353
4269.8,1.0342177348396333
4270.7,0.9780725196331931
4271.6,0.9223501096824525
4272.5,0.8773204354412432
4273.4,0.8507957743350918
4274.3,0.8549203574941285
4275.2,0.8769722071155084
4276.1,0.9121483208412603
4277.0,0.9599659668278543
4277.9,1.00004517315196
4278.8,1.033691472346167
4279.7,1.0547529801450066
4280.6,1.0681422351397756
4281.5,1.068151483453086
4282.4,1.0584064644018445
4283.31,1.0504473453901588
4284.21,1.0437809533790778
4285.11,1.032599309207248
4286.01,1.0204056115789129
4286.91,0.9925820235784486
4287.81,0.9744838462283613
4288.71,0.9547146762478204
4289.61,0.9274333343106176
4290.51,0.9141655755111239
4291.41,0.9099632391633042
4292.31,0.9162327553127465
4293.21,0.9275401057081868
4294.11,0.9431089022420429
4295.01,0.9440677017347975
4295.91,0.9382011478702407
4296.81,0.9207458777565761
4297.71,0.8920772022858422
4298.61,0.8539954197905552
4299.51,0.8077404872287672
4300.41,0.7730221471301765
4301.31,0.7438970097723664
4302.21,0.7295532390711345
4303.11,0.7170440192661203
4304.01,0.7168866609281802
4304.91,0.7116112998083324
4305.81,0.7021422540243262
4306.71,0.6929957195679649
4307.61,0.6789311109494119
4308.51,0.6701613819733238
4309.41,0.6708193874893713
4310.31,0.6872435576779917
4311.21,0.7142330082432079
4312.11,0.7599048592768891
4313.01,0.8210548726644504
4313.91,0.8898353084850673
4314.81,0.9665504235839931
4315.71,1.0365870935488322
4316.61,1.10985592300591
4317.51,1.1683115532707198
4318.41,1.2114425532203426
4319.31,1.2228750023391595
4320.21,1.2250021702411018
4321.12,1.1954497573048042
4322.02,1.1466241282543743
4322.92,1.0936361142984183
4323.82,1.0294763293679958
4324.72,0.9772687244766414
4325.62,0.9318873908166505
4326.52,0.918324531944376
4327.42,0.9363636097425956
4328.32,0.9763228959705038
4329.22,1.0330594664141142
4330.12,1.0838636919661386
4331.02,1.1385842277151876
4331.92,1.1708857190053858
4332.82,1.183572932758507
4333.72,1.1964527430832634
4334.62,1.197216487176052
4335.52,1.1791805425529587
4336.42,1.1470196450205423
4337.32,1.0962936514591295
4338.22,1.047369715916953
4339.12,0.9914938547526508
4340.02,0.9486834688703693
4340.92,0.9278377167687831
4341.82,0.9259543077879514
4342.72,0.9417717634703449
4343.62,0.97372302221609
4344.52,1.0108800166899254
4345.42,1.0548557735502722
4346.32,1.08366594973814
4347.22,1.112147803081391
4348.12,1.125867844490518
4349.02,1.1309385531859082
4349.92,1.1285607251402798
4350.82,1.1099633978238497
4351.72,1.0797729276541201
4352.62,1.0566779117840803
4353.52,1.0381087618900846
4354.42,1.0267315505722654
4355.32,1.0330120716801998
4356.22,1.0511280553415607
4357.12,1.0714740729986978
4358.02,1.0864123222369557
4358.92,1.0964241179307552
