wave,flux
3700.85,-2.1568735402818026e-06
3701.75,-2.1163242446230442e-06
3702.65,-2.0141816142359873e-06
3703.55,-1.8827045626215337e-06
3704.45,-1.7271038679580842e-06
3705.35,-1.5788710314309766e-06
3706.25,-1.4639978462939809e-06
3707.15,-1.3954765091094143e-06
3708.05,-1.381232939567502e-06
3708.96,-1.4247389518847958e-06
3709.86,-1.519096836399933e-06
3710.76,-1.6583209334505841e-06
3711.66,-1.8232753409315775e-06
3712.56,-1.996289959060922e-06
3713.46,-2.136965811796902e-06
3714.36,-2.2002484608716093e-06
3715.26,-2.19396554143575e-06
3716.16,-2.1220758608940493e-06
3717.06,-1.980947920887559e-06
3717.96,-1.8095287644213444e-06
3718.86,-1.602511253692806e-06
3719.76,-1.4146770057894138e-06
3720.66,-1.2614093473202628e-06
3721.56,-1.184369901903618e-06
3722.46,-1.1867906444321727e-06
3723.36,-1.271505654258009e-06
3724.26,-1.3929744134634277e-06
3725.16,-1.5190713461092959e-06
3726.06,-1.6067199077568217e-06
3726.96,-1.651659758659956e-06
3727.86,-1.6644831344904714e-06
3728.76,-1.6548695575869236e-06
3729.66,-1.6317083814592513e-06
3730.56,-1.5789707170390897e-06
3731.46,-1.501162398110742e-06
3732.36,-1.3850134520697129e-06
3733.26,-1.2468536383148468e-06
3734.16,-1.1086509422112238e-06
3735.06,-1.0053969187148524e-06
3735.96,-9.51117562740313e-07
3736.86,-9.603543102871e-07
3737.76,-1.035557960854149e-06
3738.66,-1.163684439462846e-06
3739.56,-1.3074144269775758e-06
3740.46,-1.4404951194698972e-06
3741.36,-1.5186790416284636e-06
3742.26,-1.526299534580092e-06
3743.16,-1.4725567585079802e-06
3744.06,-1.3744466022450591e-06
3744.96,-1.2598159207810632e-06
3745.86,-1.1482704399835477e-06
3746.76,-1.0669715367269628e-06
3747.67,-1.013885981893861e-06
3748.57,-9.906246541783853e-07
3749.47,-1.023356096738365e-06
3750.37,-1.0975775692460247e-06
3751.27,-1.2271505482614448e-06
3752.17,-1.3907231550766447e-06
3753.07,-1.5728786857676e-06
3753.97,-1.7258674552901188e-06
3754.87,-1.8296797522669118e-06
3755.77,-1.8521943020662508e-06
3756.67,-1.8086084505213904e-06
3757.57,-1.707211192777467e-06
3758.47,-1.5969358343010962e-06
3759.37,-1.5050992079571747e-06
3760.27,-1.4641948486731202e-06
3761.17,-1.4661666952023996e-06
3762.07,-1.4863294724787376e-06
3762.97,-1.5017039191134741e-06
3763.87,-1.5171973002329046e-06
3764.77,-1.5285036674648904e-06
3765.67,-1.5316933091114455e-06
3766.57,-1.541598933303358e-06
3767.47,-1.5870818468988265e-06
3768.37,-1.6393848167830427e-06
3769.27,-1.7159729836412337e-06
3770.17,-1.811241134159666e-06
3771.07,-1.9088608575965855e-06
3771.97,-1.995875491920236e-06
3772.87,-2.058769013106958e-06
3773.77,-2.1055768522705636e-06
3774.67,-2.1366879335414425e-06
3775.57,-2.1358344742623315e-06
3776.47,-2.146517250950198e-06
3777.37,-2.1492008118666818e-06
3778.27,-2.175881719573718e-06
3779.17,-2.1985716132513505e-06
3780.07,-2.2447332349450325e-06
3780.97,-2.2851221334073344e-06
3781.87,-2.3204150011698326e-06
3782.77,-2.3307893853149083e-06
3783.67,-2.3166178597359866e-06
3784.57,-2.2656724562794665e-06
3785.47,-2.1640759804009255e-06
3786.38,-2.035952506274342e-06
3787.28,-1.8995765402450473e-06
3788.18,-1.7786413906374654e-06
3789.08,-1.6963638898925006e-06
3789.98,-1.6564646051230798e-06
3790.88,-1.6435922467257838e-06
3791.78,-1.6546622426049353e-06
3792.68,-1.6665427676546348e-06
3793.58,-1.6473167620818726e-06
3794.48,-1.6194045924966254e-06
3795.38,-1.5754180686375154e-06
3796.28,-1.5251211816943916e-06
3797.18,-1.4892768019754962e-06
3798.08,-1.4745037938346763e-06
3798.98,-1.486341839882705e-06
3799.88,-1.5220178265636637e-06
3800.78,-1.604422778671069e-06
3801.68,-1.716877122246652e-06
3802.58,-1.8354064508233795e-06
3803.48,-1.9396746632547146e-06
3804.38,-2.0039020357470694e-06
3805.28,-2.030409327205384e-06
3806.18,-2.0188451633969934e-06
3807.08,-1.9952654931146237e-06
3807.98,-1.977921823882686e-06
3808.88,-1.983609214796648e-06
3809.78,-1.991756089520922e-06
3810.68,-2.004149320911677e-06
3811.58,-1.978415925688269e-06
3812.48,-1.9139328897221568e-06
3813.38,-1.821596223938182e-06
3814.28,-1.6938941019017213e-06
3815.18,-1.571332983399862e-06
3816.08,-1.4828577259149903e-06
3816.98,-1.4147592894280631e-06
3817.88,-1.3746904400389038e-06
3818.78,-1.3352046915922227e-06
3819.68,-1.3036512370506288e-06
3820.58,-1.2629013478570105e-06
3821.48,-1.2330439804718608e-06
3822.38,-1.2042618416006948e-06
3823.28,-1.1872212201881787e-06
3824.18,-1.1580557132124045e-06
3825.09,-1.1222575316506675e-06
3825.99,-1.0787039702170255e-06
3826.89,-1.0449635358548669e-06
3827.79,-1.027193840400217e-06
3828.69,-1.0348455457899946e-06
3829.59,-1.053056845978845e-06
3830.49,-1.0692107644799955e-06
3831.39,-1.0739691934970554e-06
3832.29,-1.0657329228177017e-06
3833.19,-1.0557035630536507e-06
3834.09,-1.0514839199066116e-06
3834.99,-1.0600478499241786e-06
3835.89,-1.0768941473248927e-06
3836.79,-1.091635879931483e-06
3837.69,-1.0992508140376422e-06
3838.59,-1.0922255713856175e-06
3839.49,-1.0963063688968213e-06
3840.39,-1.1153756066532654e-06
3841.29,-1.1758353445889244e-06
3842.19,-1.2680503966959964e-06
3843.09,-1.3808724692524895e-06
3843.99,-1.488230824729546e-06
3844.89,-1.5781859958377356e-06
3845.79,-1.6325355240544313e-06
3846.69,-1.671558098894577e-06
3847.59,-1.6770982052025404e-06
3848.49,-1.6561893033326465e-06
3849.39,-1.6421886533301573e-06
3850.29,-1.6242424499533891e-06
3851.19,-1.6041142444201404e-06
3852.09,-1.5846509634903884e-06
3852.99,-1.5875020306526387e-06
3853.89,-1.5700858558482813e-06
3854.79,-1.5357381166334923e-06
3855.69,-1.4808630485860884e-06
3856.59,-1.4283839783558564e-06
3857.49,-1.3613285886540396e-06
3858.39,-1.300360459784772e-06
3859.29,-1.2659949558956468e-06
3860.19,-1.251989565630901e-06
3861.09,-1.2923067058665267e-06
3861.99,-1.3711489212665805e-06
3862.9,-1.472016936528607e-06
3863.8,-1.564525399320909e-06
3864.7,-1.6322198936804712e-06
3865.6,-1.662137547368007e-06
3866.5,-1.6609511451411743e-06
3867.4,-1.6275342480277785e-06
3868.3,-1.5949479232090285e-06
3869.2,-1.5354329611518033e-06
3870.1,-1.4839475590795721e-06
3871.0,-1.4358465931767802e-06
3871.9,-1.4193147226962513e-06
3872.8,-1.4413574189506469e-06
3873.7,-1.4967857171286245e-06
3874.6,-1.580855651724012e-06
3875.5,-1.6556185829557703e-06
3876.4,-1.6847509386943284e-06
3877.3,-1.6977678793813858e-06
3878.2,-1.6566413466205082e-06
3879.1,-1.6131406764521862e-06
3880.0,-1.5769418388786963e-06
3880.9,-1.5628790447661132e-06
3881.8,-1.5632312553238051e-06
3882.7,-1.5816338992769513e-06
3883.6,-1.615128823543906e-06
3884.5,-1.6364548936527607e-06
3885.4,-1.645298641140455e-06
3886.3,-1.6390199721076891e-06
3887.2,-1.6240300845488112e-06
3888.1,-1.6507635914623393e-06
3889.0,-1.7102058731738268e-06
3889.9,-1.8023229617862698e-06
3890.8,-1.9357361754227533e-06
3891.7,-2.075423385173435e-06
3892.6,-2.186113162995696e-06
3893.5,-2.273499260465218e-06
3894.4,-2.3158791685326825e-06
3895.3,-2.324290669769471e-06
3896.2,-2.31586584403813e-06
3897.1,-2.3012896517436705e-06
3898.0,-2.303925294196896e-06
3898.9,-2.2803850597115012e-06
3899.8,-2.2787371050709662e-06
3900.7,-2.265425085034997e-06
3901.6,-2.2552087538892066e-06
3902.51,-2.2287830518404813e-06
3903.41,-2.1893765150529605e-06
3904.31,-2.1559029085699743e-06
3905.21,-2.1380812000754574e-06
3906.11,-2.1486426254892733e-06
3907.01,-2.186923339304409e-06
3907.91,-2.282132076101065e-06
3908.81,-2.395713616033233e-06
3909.71,-2.5081886236586586e-06
3910.61,-2.617801729492577e-06
3911.51,-2.6984914075742307e-06
3912.41,-2.7559335127655913e-06
3913.31,-2.784951555588695e-06
3914.21,-2.7951135446832936e-06
3915.11,-2.7702126276152025e-06
3916.01,-2.7158548173096304e-06
3916.91,-2.6506213209854516e-06
3917.81,-2.5617767344240694e-06
3918.71,-2.450995476645685e-06
3919.61,-2.3351154013491556e-06
3920.51,-2.2144196298107315e-06
3921.41,-2.1306089928325355e-06
3922.31,-2.049362461065215e-06
3923.21,-2.0189557945495702e-06
3924.11,-1.9913459452465412e-06
3925.01,-1.9616606576280954e-06
3925.91,-1.9108836888548755e-06
3926.81,-1.8113165437864016e-06
3927.71,-1.6859264735650851e-06
3928.61,-1.5273888259947949e-06
3929.51,-1.3500972528818932e-06
3930.41,-1.1879070479803332e-06
3931.31,-1.0366541672578892e-06
3932.21,-9.095641226291296e-07
3933.11,-8.207956488048583e-07
3934.01,-7.746443793011142e-07
3934.91,-7.752325531244761e-07
3935.81,-8.315807723403279e-07
3936.71,-9.319838751047872e-07
3937.61,-1.067988139194261e-06
3938.51,-1.2289084747663982e-06
3939.42,-1.3980532928783422e-06
3940.32,-1.544681141253139e-06
3941.22,-1.658147388523697e-06
3942.12,-1.7435882027422068e-06
3943.02,-1.8009394828586424e-06
3943.92,-1.8556358956481546e-06
3944.82,-1.9363465089521295e-06
3945.72,-2.026694747613878e-06
3946.62,-2.1558730742763643e-06
3947.52,-2.2914625295257397e-06
3948.42,-2.4340430523873175e-06
3949.32,-2.5372280931737275e-06
3950.22,-2.6438162314816057e-06
3951.12,-2.7168255460794226e-06
3952.02,-2.779357753760935e-06
3952.92,-2.820793414736972e-06
3953.82,-2.8343812795607865e-06
3954.72,-2.844160948662627e-06
3955.62,-2.813941033299341e-06
3956.52,-2.800792066989698e-06
3957.42,-2.7477373531744857e-06
3958.32,-2.6835763227522435e-06
3959.22,-2.588691324162127e-06
3960.12,-2.4679995132580703e-06
3961.02,-2.290808343858266e-06
3961.92,-2.121009581536924e-06
3962.82,-1.9282453183614326e-06
3963.72,-1.7464129660028214e-06
3964.62,-1.5895638574912144e-06
3965.52,-1.4310972106138757e-06
3966.42,-1.2872770263074952e-06
3967.32,-1.1509739407864995e-06
3968.22,-1.0404912358424246e-06
3969.12,-9.80096334164327e-07
3970.02,-9.872968062119083e-07
3970.92,-1.0558313288834611e-06
3971.82,-1.1876865418377821e-06
3972.72,-1.3598801385153622e-06
3973.62,-1.5747383436485484e-06
3974.52,-1.7828722676264448e-06
3975.42,-2.0134641420292692e-06
3976.32,-2.244331638278203e-06
3977.22,-2.461568366622253e-06
3978.13,-2.666982383323886e-06
3979.03,-2.849669319675503e-06
3979.93,-3.0040607792904703e-06
3980.83,-3.118931717041108e-06
3981.73,-3.219590885223997e-06
3982.63,-3.2510139742021562e-06
3983.53,-3.2839598018295227e-06
3984.43,-3.3141563590718565e-06
3985.33,-3.3242488278620653e-06
3986.23,-3.380056554309421e-06
3987.13,-3.4400392029597012e-06
3988.03,-3.4935627141402224e-06
3988.93,-3.54697197783032e-06
3989.83,-3.5971819017643747e-06
3990.73,-3.6287102898606956e-06
3991.63,-3.668889348242565e-06
3992.53,-3.7038059519070292e-06
3993.43,-3.6990584545797984e-06
3994.33,-3.7159785970516388e-06
3995.23,-3.7022074720251047e-06
3996.13,-3.667174691687937e-06
3997.03,-3.6523986138807333e-06
3997.93,-3.6546626351238413e-06
3998.83,-3.6964746346892436e-06
3999.73,-3.7606384080103978e-06
4000.63,-3.864427782532064e-06
4001.53,-3.943409849130376e-06
4002.43,-3.971160547964945e-06
4003.33,-3.9742245613159675e-06
4004.23,-3.9051065729059956e-06
4005.13,-3.827413834525485e-06
4006.03,-3.750312112482202e-06
4006.93,-3.69619010118691e-06
4007.83,-3.696507124381409e-06
4008.73,-3.7738906165014306e-06
4009.63,-3.863783274411774e-06
4010.53,-3.957708357241028e-06
4011.43,-4.034553656982869e-06
4012.33,-4.113307411241408e-06
4013.23,-4.178237831398952e-06
4014.13,-4.1918357953757936e-06
4015.03,-4.240963926852101e-06
4015.93,-4.265808479188994e-06
4016.84,-4.2835333683963924e-06
4017.74,-4.289649151241159e-06
4018.64,-4.32138788164798e-06
4019.54,-4.32673763040003e-06
4020.44,-4.338106685464015e-06
4021.34,-4.339061038633198e-06
4022.24,-4.313115719655729e-06
4023.14,-4.298378479822182e-06
4024.04,-4.293669111257719e-06
4024.94,-4.294181970972417e-06
4025.84,-4.280598263311761e-06
4026.74,-4.296816611590389e-06
4027.64,-4.33120916400712e-06
4028.54,-4.281286926842879e-06
4029.44,-4.2094703684323885e-06
4030.34,-4.045765764531059e-06
4031.24,-3.8551413918033265e-06
4032.14,-3.69377837920451e-06
4033.04,-3.537755184639918e-06
4033.94,-3.4952450381697044e-06
4034.84,-3.5450019206051543e-06
4035.74,-3.6729434833461293e-06
4036.64,-3.9027883034112825e-06
4037.54,-4.109231110680929e-06
4038.44,-4.277315996679771e-06
4039.34,-4.394729717132658e-06
4040.24,-4.455237265477868e-06
4041.14,-4.4472792857645225e-06
4042.04,-4.331489376397837e-06
4042.94,-4.176280224804662e-06
4043.84,-3.96450304850392e-06
4044.74,-3.7525986975801724e-06
4045.64,-3.571374645453725e-06
4046.54,-3.4708811123182876e-06
4047.44,-3.474777068019478e-06
4048.34,-3.6223580573587464e-06
4049.24,-3.83427644380248e-06
4050.14,-4.049320543256968e-06
4051.04,-4.229136754926482e-06
4051.94,-4.351893142587693e-06
4052.84,-4.355702643505611e-06
4053.74,-4.31784765621675e-06
4054.65,-4.243221949915244e-06
4055.55,-4.116747938773103e-06
4056.45,-4.019352383550526e-06
4057.35,-3.963974478740482e-06
4058.25,-3.916377585857795e-06
4059.15,-3.895398378719856e-06
4060.05,-3.872393459009389e-06
4060.95,-3.849392335493059e-06
4061.85,-3.7886699682152376e-06
4062.75,-3.718661689649032e-06
4063.65,-3.643923153507634e-06
4064.55,-3.5571554576596575e-06
4065.45,-3.5675676435450157e-06
4066.35,-3.622207489092883e-06
4067.25,-3.745932506475366e-06
4068.15,-3.8491290336061705e-06
4069.05,-3.979995575544223e-06
4069.95,-4.041567309384929e-06
4070.85,-4.046327032458214e-06
4071.75,-4.016938337103424e-06
4072.65,-3.996896225928887e-06
4073.55,-3.9817736390170545e-06
4074.45,-3.981495492592448e-06
4075.35,-3.964231566961042e-06
4076.25,-3.940880454959152e-06
4077.15,-3.9402273497030585e-06
4078.05,-3.919893186971812e-06
4078.95,-3.9764025102656445e-06
4079.85,-4.075455929080769e-06
4080.75,-4.2528439329517295e-06
4081.65,-4.3952556079451275e-06
4082.55,-4.515045433458702e-06
4083.45,-4.59734200888744e-06
4084.35,-4.637819708345326e-06
4085.25,-4.658429458515399e-06
4086.15,-4.693922393559256e-06
4087.05,-4.793174227812653e-06
4087.95,-4.906606363065485e-06
4088.85,-5.00745385933989e-06
4089.75,-5.067164608427346e-06
4090.65,-5.084363146417507e-06
4091.55,-5.06406542343723e-06
4092.45,-4.9882608786424575e-06
4093.36,-4.906825881369251e-06
4094.26,-4.810685284982969e-06
4095.16,-4.654081548318401e-06
4096.06,-4.552876782486681e-06
4096.96,-4.3902489541613685e-06
4097.86,-4.272379976138296e-06
4098.76,-4.140420869427261e-06
4099.66,-4.04543888972818e-06
4100.56,-3.934619000471474e-06
4101.46,-3.880953781728301e-06
4102.36,-3.845624563081487e-06
4103.26,-3.882650840221499e-06
4104.16,-3.959870622372367e-06
4105.06,-4.10727899591469e-06
4105.96,-4.289419142542966e-06
4106.86,-4.42465604650236e-06
4107.76,-4.526328278934429e-06
4108.66,-4.5662658905282796e-06
4109.56,-4.587205426882435e-06
4110.46,-4.571761461325283e-06
4111.36,-4.5771157432810665e-06
4112.26,-4.59940995520232e-06
4113.16,-4.616522939378339e-06
4114.06,-4.673670015844946e-06
4114.96,-4.757889536187744e-06
4115.86,-4.778647058291421e-06
4116.76,-4.822974771158937e-06
4117.66,-4.797568723124594e-06
4118.56,-4.7660076688291225e-06
4119.46,-4.688514204043952e-06
4120.36,-4.6537510466884556e-06
4121.26,-4.607551740054017e-06
4122.16,-4.61339833875574e-06
4123.06,-4.63196403204923e-06
4123.96,-4.671614225675365e-06
4124.86,-4.691129479724491e-06
4125.76,-4.708037261465236e-06
4126.66,-4.701663709857749e-06
4127.56,-4.6776744198120545e-06
4128.46,-4.628539988430381e-06
4129.36,-4.545825546661761e-06
4130.26,-4.446655380864967e-06
4131.17,-4.337562674761406e-06
4132.06,-4.24810038315375e-06
4132.97,-4.169712146662162e-06
4133.87,-4.174313951019201e-06
4134.77,-4.1969913986311295e-06
4135.67,-4.314204091388429e-06
4136.57,-4.467533432250152e-06
4137.47,-4.6175977765168985e-06
4138.37,-4.709250138284197e-06
4139.27,-4.761915923313179e-06
4140.17,-4.7563659547133015e-06
4141.07,-4.677318211643955e-06
4141.97,-4.54019740611917e-06
4142.87,-4.37466315560802e-06
4143.77,-4.2481048166910795e-06
4144.67,-4.174734694231493e-06
4145.57,-4.145513666287058e-06
4146.47,-4.206596365839274e-06
4147.37,-4.276373732330078e-06
4148.27,-4.360245213977883e-06
4149.17,-4.4129824388754475e-06
4150.07,-4.4408856390893215e-06
4150.97,-4.403503103058966e-06
4151.87,-4.364619827753117e-06
4152.77,-4.333007636768058e-06
4153.67,-4.2820216018371275e-06
4154.57,-4.281344609550268e-06
4155.47,-4.277191066550221e-06
4156.37,-4.296685407796798e-06
4157.27,-4.3523546998509845e-06
4158.17,-4.426560194197892e-06
4159.07,-4.521247028134163e-06
4159.97,-4.643665541192119e-06
4160.87,-4.747557968463708e-06
4161.77,-4.8833690649711835e-06
4162.67,-4.906350238671607e-06
4163.57,-4.976165176840723e-06
4164.47,-4.965148599295393e-06
4165.37,-4.925896424036016e-06
4166.27,-4.853330721693042e-06
4167.17,-4.784292841830536e-06
4168.07,-4.728371292543194e-06
4168.98,-4.656419906116198e-06
4169.88,-4.620862407539588e-06
4170.78,-4.581130007976744e-06
4171.68,-4.499135627541799e-06
4172.58,-4.429190820217823e-06
4173.48,-4.32553131209436e-06
4174.38,-4.275194655121455e-06
4175.28,-4.247869267870724e-06
4176.18,-4.246827214981718e-06
4177.08,-4.281191349793082e-06
4177.98,-4.33185516795706e-06
4178.88,-4.377854208384743e-06
4179.78,-4.408989498890212e-06
4180.68,-4.469745382090494e-06
4181.58,-4.5034015915653304e-06
4182.48,-4.559752455690255e-06
4183.38,-4.583588130397113e-06
4184.28,-4.620188088413497e-06
4185.18,-4.6538802980687155e-06
4186.08,-4.67524691837557e-06
4186.98,-4.688294530842012e-06
4187.88,-4.665143068128183e-06
4188.78,-4.663328531515798e-06
4189.68,-4.679647015446189e-06
4190.58,-4.736484316455979e-06
4191.48,-4.797603603271746e-06
4192.38,-4.864879995106472e-06
4193.28,-4.900068403362551e-06
4194.18,-4.896086589242863e-06
4195.08,-4.815919883730306e-06
4195.98,-4.720654423423725e-06
4196.88,-4.590078892463663e-06
4197.78,-4.453715243700853e-06
4198.68,-4.350839305009576e-06
4199.58,-4.275573280517851e-06
4200.48,-4.261561348333813e-06
4201.38,-4.288789728484823e-06
4202.28,-4.336050812829145e-06
4203.18,-4.434839277601516e-06
4204.08,-4.558991073246423e-06
4204.98,-4.719365285438102e-06
4205.88,-4.876552201981121e-06
4206.79,-5.049622004617308e-06
4207.69,-5.153444474781543e-06
4208.59,-5.257432763862115e-06
4209.49,-5.275422988643905e-06
4210.39,-5.304811365348091e-06
4211.29,-5.2645378634161295e-06
4212.19,-5.196196161564576e-06
4213.09,-5.117766754267156e-06
4213.99,-5.0748589897350345e-06
4214.89,-5.0052378012911584e-06
4215.79,-4.9616879664772404e-06
4216.69,-4.958568399493676e-06
4217.59,-5.062266399336815e-06
4218.49,-5.208608795230591e-06
4219.39,-5.316972712330104e-06
4220.29,-5.4197734851253656e-06
4221.19,-5.48111370553903e-06
4222.09,-5.368253961276593e-06
4222.99,-5.168467871236865e-06
4223.89,-4.879625052400333e-06
4224.79,-4.527716870578243e-06
4225.69,-4.170477755024693e-06
4226.59,-3.932707970757197e-06
4227.49,-3.8063272345225374e-06
4228.39,-3.852863893206651e-06
4229.29,-4.059631138150717e-06
4230.19,-4.368655276357676e-06
4231.09,-4.673450001003028e-06
4231.99,-4.9106644880052366e-06
4232.89,-5.0592442698478835e-06
4233.79,-5.12821531451164e-06
4234.69,-5.101884257213677e-06
4235.59,-5.070660547508395e-06
4236.49,-5.0355024831179274e-06
4237.39,-5.009023783428335e-06
4238.29,-5.010682065447453e-06
4239.19,-5.098416507839905e-06
4240.09,-5.217927364876017e-06
4240.99,-5.362472970948036e-06
4241.89,-5.521389565854565e-06
4242.79,-5.668365822895701e-06
4243.69,-5.809231764189924e-06
4244.59,-5.89803505612028e-06
4245.5,-5.933234407361401e-06
4246.4,-5.9096951786843065e-06
4247.3,-5.805281502946288e-06
4248.2,-5.635974768701441e-06
4249.1,-5.417808908599931e-06
4250.0,-5.231204728379042e-06
4250.9,-5.103764210852479e-06
4251.8,-5.01989199150498e-06
4252.7,-4.989049151410386e-06
4253.6,-4.996092079709589e-06
4254.5,-5.020403115689703e-06
4255.4,-5.079297868701687e-06
4256.3,-5.151622631985206e-06
4257.2,-5.189954815744102e-06
4258.1,-5.253578751901608e-06
4259.0,-5.224218245747447e-06
4259.9,-5.193320335441464e-06
4260.8,-5.154929851282167e-06
4261.7,-5.220212920885145e-06
4262.6,-5.315903412100089e-06
4263.5,-5.543002630035076e-06
4264.4,-5.747583414018355e-06
4265.3,-5.961959409525263e-06
4266.2,-6.0565701717737265e-06
4267.1,-6.035110593561337e-06
4268.0,-5.918760797821857e-06
4268.9,-5.670813693263429e-06
4269.8,-5.41595530386657e-06
4270.7,-5.0841054780023115e-06
4271.6,-4.760071372591543e-06
4272.5,-4.5290397793184435e-06
4273.4,-4.410806729821041e-06
4274.3,-4.4388401537918064e-06
4275.2,-4.540636690165567e-06
