wave,flux
3700.85,-3.7767231253597343e-07
3701.75,-3.73899401754184e-07
3702.65,-3.616937494019626e-07
3703.55,-3.426554246698057e-07
3704.45,-3.2426789032363853e-07
3705.35,-3.086020697123749e-07
3706.25,-2.953274712706058e-07
3707.15,-2.91061014663851e-07
3708.05,-2.918278719756232e-07
3708.96,-2.9709688390741555e-07
3709.86,-3.053319224145482e-07
3710.76,-3.182064115687709e-07
3711.66,-3.349052869997276e-07
3712.56,-3.4983140629300317e-07
3713.46,-3.667502026272335e-07
3714.36,-3.804378895082664e-07
3715.26,-3.8909977709785236e-07
3716.16,-3.8965523626541707e-07
3717.06,-3.834543651780786e-07
3717.96,-3.672067008334947e-07
3718.86,-3.4664788792685644e-07
3719.76,-3.1978849525947274e-07
3720.66,-2.980246436028727e-07
3721.56,-2.820005347342656e-07
3722.46,-2.783244089139089e-07
3723.36,-2.8758390252975813e-07
3724.26,-3.049572711671487e-07
3725.16,-3.2377818170331927e-07
3726.06,-3.416462548159645e-07
3726.96,-3.5110171649927287e-07
3727.86,-3.561392547346812e-07
3728.76,-3.5576174499804693e-07
3729.66,-3.542665566702779e-07
3730.56,-3.4571091738736355e-07
3731.46,-3.3306029955610854e-07
3732.36,-3.141939766838466e-07
3733.26,-2.9282367180167304e-07
3734.16,-2.702480582447046e-07
3735.06,-2.533083499751275e-07
3735.96,-2.46894917907923e-07
3736.86,-2.4998438524372303e-07
3737.76,-2.658079029629231e-07
3738.66,-2.887459878931435e-07
3739.56,-3.1472268334623514e-07
3740.46,-3.3700814885343813e-07
3741.36,-3.5235950263790507e-07
3742.26,-3.582301998572412e-07
3743.16,-3.5104508619352974e-07
3744.06,-3.388880064131549e-07
3744.96,-3.220137844929098e-07
3745.86,-3.0538982753009637e-07
3746.76,-2.890511015012344e-07
3747.67,-2.7443410695530114e-07
3748.57,-2.631078401297922e-07
3749.47,-2.5701810438742155e-07
3750.37,-2.6259772887109736e-07
3751.27,-2.775919045781995e-07
3752.17,-3.019986245580903e-07
3753.07,-3.3325823106662216e-07
3753.97,-3.592790091655916e-07
3754.87,-3.801633048314054e-07
3755.77,-3.9401598258827954e-07
3756.67,-3.913805136372478e-07
3757.57,-3.82541016617952e-07
3758.47,-3.6692311509000183e-07
3759.37,-3.5568130016944743e-07
3760.27,-3.515676810020781e-07
3761.17,-3.5285519211655647e-07
3762.07,-3.5808660394396153e-07
3762.97,-3.647897810250125e-07
3763.87,-3.700461572612989e-07
3764.77,-3.724046688305483e-07
3765.67,-3.708262176183838e-07
3766.57,-3.678816815911147e-07
3767.47,-3.6295447191697063e-07
3768.37,-3.575604919844008e-07
3769.27,-3.5378335025797904e-07
3770.17,-3.5436532042814147e-07
3771.07,-3.589526226643595e-07
3771.97,-3.6743598752757824e-07
3772.87,-3.7949437684165827e-07
3773.77,-3.933777343554789e-07
3774.67,-4.08104260814646e-07
3775.57,-4.183775513510271e-07
3776.47,-4.283557415290179e-07
3777.37,-4.370994184804623e-07
3778.27,-4.489824409138672e-07
3779.17,-4.57236757007198e-07
3780.07,-4.689917941073869e-07
3780.97,-4.769137385283335e-07
3781.87,-4.853698604468402e-07
3782.77,-4.902616129938785e-07
3783.67,-4.903808047735573e-07
3784.57,-4.838882826707888e-07
3785.47,-4.724248804977698e-07
3786.38,-4.574120799691998e-07
3787.28,-4.393277114216515e-07
3788.18,-4.241092756498872e-07
3789.08,-4.128091620639157e-07
3789.98,-4.0374963680909186e-07
3790.88,-4.007394569853627e-07
3791.78,-3.9855149355293876e-07
3792.68,-3.924219112377427e-07
3793.58,-3.8445200010943426e-07
3794.48,-3.7278945414899857e-07
3795.38,-3.5914273045824803e-07
3796.28,-3.4551844700079967e-07
3797.18,-3.3206200821613385e-07
3798.08,-3.255375120493851e-07
3798.98,-3.2409423252590554e-07
3799.88,-3.352397096928582e-07
3800.78,-3.5631749738450476e-07
3801.68,-3.8020190903471847e-07
3802.58,-4.0911535627623856e-07
3803.48,-4.335184062764157e-07
3804.38,-4.51635656071067e-07
3805.28,-4.618853512591287e-07
3806.18,-4.667018876605404e-07
3807.08,-4.6733545116550306e-07
3807.98,-4.6953522722730495e-07
3808.88,-4.7365695286728056e-07
3809.78,-4.804640699224054e-07
3810.68,-4.84625544400969e-07
3811.58,-4.824875758430206e-07
3812.48,-4.744727114320708e-07
3813.38,-4.598187310418427e-07
3814.28,-4.4182561642522585e-07
3815.18,-4.272472408428915e-07
3816.08,-4.167096464388557e-07
3816.98,-4.117546245509649e-07
3817.88,-4.113945239232199e-07
3818.78,-4.0995010035894983e-07
3819.68,-4.0738017780956735e-07
3820.58,-4.0208991297929526e-07
3821.48,-3.973677761342758e-07
3822.38,-3.904580073826577e-07
3823.28,-3.8693127457839745e-07
3824.18,-3.800299719811041e-07
3825.09,-3.6933291761331446e-07
3825.99,-3.576631587884504e-07
3826.89,-3.482679336131768e-07
3827.79,-3.397761126143654e-07
3828.69,-3.3710859365396313e-07
3829.59,-3.336391529978066e-07
3830.49,-3.2900477979234825e-07
3831.39,-3.208478108850703e-07
3832.29,-3.10942174386187e-07
3833.19,-2.9726511991080245e-07
3834.09,-2.862414102961294e-07
3834.99,-2.7963478871416733e-07
3835.89,-2.7585707887608244e-07
3836.79,-2.775559768519552e-07
3837.69,-2.825500240813885e-07
3838.59,-2.904867657487095e-07
3839.49,-3.024314911150095e-07
3840.39,-3.1743806528562844e-07
3841.29,-3.379204878566102e-07
3842.19,-3.6487964106973367e-07
3843.09,-3.906489675609621e-07
3843.99,-4.1205999503479445e-07
3844.89,-4.341389251951895e-07
3845.79,-4.486108703198023e-07
3846.69,-4.6050243768759114e-07
3847.59,-4.6862203982966476e-07
3848.49,-4.7388791103645387e-07
3849.39,-4.7376406400503646e-07
3850.29,-4.7511782881126057e-07
3851.19,-4.774480420493276e-07
3852.09,-4.792372474274121e-07
3852.99,-4.805811385032797e-07
3853.89,-4.800123042147582e-07
3854.79,-4.795590103240278e-07
3855.69,-4.703863721756627e-07
3856.59,-4.5868110692161406e-07
3857.49,-4.4967727004386994e-07
3858.39,-4.3882339321219984e-07
3859.29,-4.326870306460242e-07
3860.19,-4.3359047638181195e-07
3861.09,-4.387768038424044e-07
3861.99,-4.5369305428269205e-07
3862.9,-4.7021239332395625e-07
3863.8,-4.851802737727573e-07
3864.7,-4.973086438703285e-07
3865.6,-5.050592751981995e-07
3866.5,-5.040056489942306e-07
3867.4,-5.002833480050977e-07
3868.3,-4.966114563428351e-07
3869.2,-4.89819746299023e-07
3870.1,-4.817138418145778e-07
3871.0,-4.708900323161983e-07
3871.9,-4.5951985531074635e-07
3872.8,-4.539522144371978e-07
3873.7,-4.5557164042399633e-07
3874.6,-4.5912220956807685e-07
3875.5,-4.6603823287777966e-07
3876.4,-4.7228571525825973e-07
3877.3,-4.6961978308517276e-07
3878.2,-4.643038847913841e-07
3879.1,-4.622473615572895e-07
3880.0,-4.550889114845265e-07
3880.9,-4.526713539933434e-07
3881.8,-4.51909892673227e-07
3882.7,-4.483046415858969e-07
3883.6,-4.4347112480698596e-07
3884.5,-4.343533260232821e-07
3885.4,-4.24256099399394e-07
3886.3,-4.0850607000692675e-07
3887.2,-3.93126553073161e-07
3888.1,-3.8042876099065053e-07
3889.0,-3.7766701298473433e-07
3889.9,-3.810861455794789e-07
3890.8,-3.958161432225291e-07
3891.7,-4.182209272531584e-07
3892.6,-4.3956809376285685e-07
3893.5,-4.618713338031282e-07
3894.4,-4.784352306364906e-07
3895.3,-4.898583299099702e-07
3896.2,-4.983329256096027e-07
3897.1,-5.067236964818306e-07
3898.0,-5.144918622451854e-07
3898.9,-5.215522357487645e-07
3899.8,-5.246638553040994e-07
3900.7,-5.285512922314117e-07
3901.6,-5.321976914005398e-07
3902.51,-5.339634125630121e-07
3903.41,-5.302816593791769e-07
3904.31,-5.262355178997213e-07
3905.21,-5.216773419437358e-07
3906.11,-5.232829393775299e-07
3907.01,-5.276791824375299e-07
3907.91,-5.406253735711305e-07
3908.81,-5.560597813590442e-07
3909.71,-5.750429187672437e-07
3910.61,-5.911015355225306e-07
3911.51,-6.021800196418251e-07
3912.41,-6.10012479778983e-07
3913.31,-6.110579328458388e-07
3914.21,-6.083812287585013e-07
3915.11,-6.081336132991814e-07
3916.01,-5.985525468580359e-07
3916.91,-5.903706178349277e-07
3917.81,-5.793620952487533e-07
3918.71,-5.694759953767394e-07
3919.61,-5.569016970632614e-07
3920.51,-5.440192844786371e-07
3921.41,-5.316180937959362e-07
3922.31,-5.264370254484891e-07
3923.21,-5.207932639251906e-07
3924.11,-5.171292066086348e-07
3925.01,-5.093989581109046e-07
3925.91,-4.924732075456976e-07
3926.81,-4.696324010154285e-07
3927.71,-4.380333323261072e-07
3928.61,-3.99326857691927e-07
3929.51,-3.6059181159385854e-07
3930.41,-3.1599095320013496e-07
3931.31,-2.7494072243635847e-07
3932.21,-2.3888437406580696e-07
3933.11,-2.0966479352656736e-07
3934.01,-1.9386072289284972e-07
3934.91,-1.9156193098896493e-07
3935.81,-2.045287254897899e-07
3936.71,-2.3064250075407997e-07
3937.61,-2.67350893281798e-07
3938.51,-3.097638681603762e-07
3939.42,-3.5429630491685067e-07
3940.32,-3.936955428886336e-07
3941.22,-4.2641169596288596e-07
3942.12,-4.5187149711444406e-07
3943.02,-4.7191747628945054e-07
3943.92,-4.88379075529746e-07
3944.82,-5.024554441469106e-07
3945.72,-5.200295279471072e-07
3946.62,-5.403185896815794e-07
3947.52,-5.556791347474481e-07
3948.42,-5.730692229988622e-07
3949.32,-5.860660907268324e-07
3950.22,-5.994932370222045e-07
3951.12,-6.062175881107844e-07
3952.02,-6.12957474224919e-07
3952.92,-6.165937552335075e-07
3953.82,-6.194350642031505e-07
3954.72,-6.192228099315862e-07
3955.62,-6.207758130113898e-07
3956.52,-6.169812013591791e-07
3957.42,-6.12212863140278e-07
3958.32,-6.032805447040031e-07
3959.22,-5.950898557810992e-07
3960.12,-5.749332140080962e-07
3961.02,-5.50763002192645e-07
3961.92,-5.188438744401641e-07
3962.82,-4.829860180698105e-07
3963.72,-4.459556811315807e-07
3964.62,-4.0657183547843836e-07
3965.52,-3.6502999908951246e-07
3966.42,-3.2370464983085636e-07
3967.32,-2.85254370269459e-07
3968.22,-2.5389712104043746e-07
3969.12,-2.336891385650311e-07
3970.02,-2.3000575393858446e-07
3970.92,-2.423593668753526e-07
3971.82,-2.712425743566118e-07
3972.72,-3.0948519634937874e-07
3973.62,-3.557925221154919e-07
3974.52,-4.0377161547551175e-07
3975.42,-4.488125978480954e-07
3976.32,-4.93824590344866e-07
3977.22,-5.333285563805113e-07
3978.13,-5.710226940413939e-07
3979.03,-6.052007306286573e-07
3979.93,-6.33662009112862e-07
3980.83,-6.533551865455238e-07
3981.73,-6.691813828233049e-07
3982.63,-6.764422608392373e-07
3983.53,-6.823270004852325e-07
3984.43,-6.872722117096217e-07
3985.33,-6.957429854861078e-07
3986.23,-7.025558391098861e-07
3987.13,-7.104810015643125e-07
3988.03,-7.260396340843329e-07
3988.93,-7.341748039987729e-07
3989.83,-7.428206860277883e-07
3990.73,-7.513930105685346e-07
3991.63,-7.578493271154749e-07
3992.53,-7.643910140150749e-07
3993.43,-7.646651720839278e-07
3994.33,-7.669180524846053e-07
3995.23,-7.622407046009665e-07
3996.13,-7.584956836406676e-07
3997.03,-7.506499335209578e-07
3997.93,-7.547633470857777e-07
3998.83,-7.541215530687364e-07
3999.73,-7.684761136624004e-07
4000.63,-7.81890671704358e-07
4001.53,-7.932673679276294e-07
4002.43,-7.983349804539605e-07
4003.33,-8.008860911977847e-07
4004.23,-7.914080490077891e-07
4005.13,-7.804714107661606e-07
4006.03,-7.716613099081737e-07
4006.93,-7.651533622507673e-07
4007.83,-7.696422835477489e-07
4008.73,-7.793305836468002e-07
4009.63,-7.94141155314164e-07
4010.53,-8.066751073366863e-07
4011.43,-8.168034442190371e-07
4012.33,-8.271970926769522e-07
4013.23,-8.363824891762604e-07
4014.13,-8.397083865666315e-07
4015.03,-8.420237189389196e-07
4015.93,-8.447319102062445e-07
4016.84,-8.471658060336487e-07
4017.74,-8.475014803805681e-07
4018.64,-8.55629354498191e-07
4019.54,-8.551940190739112e-07
4020.44,-8.619578716521986e-07
4021.34,-8.621137715771554e-07
4022.24,-8.646182545793203e-07
4023.14,-8.634281540253412e-07
4024.04,-8.622340786196262e-07
4024.94,-8.629763954344771e-07
4025.84,-8.660557354987761e-07
4026.74,-8.727118471362893e-07
4027.64,-8.746746638511357e-07
4028.54,-8.754811604901112e-07
4029.44,-8.633387510060862e-07
4030.34,-8.445587136681384e-07
4031.24,-8.256074302058757e-07
4032.14,-8.053185018887441e-07
4033.04,-7.885796577924504e-07
4033.94,-7.883594320151268e-07
4034.84,-7.975736456742532e-07
4035.74,-8.189743711816952e-07
4036.64,-8.471907444357617e-07
4037.54,-8.73201817100643e-07
4038.44,-8.93871785021478e-07
4039.34,-9.042206221808412e-07
4040.24,-9.087749119286047e-07
4041.14,-9.020886817271309e-07
4042.04,-8.925435046523866e-07
4042.94,-8.748923288489118e-07
4043.84,-8.488278204728821e-07
4044.74,-8.280480924200623e-07
4045.64,-8.068368275944717e-07
4046.54,-7.966535016961333e-07
4047.44,-8.028334806626413e-07
4048.34,-8.238651336476584e-07
4049.24,-8.499760336331438e-07
4050.14,-8.75108209516031e-07
4051.04,-8.972213308186479e-07
4051.94,-9.024635432072679e-07
4052.84,-8.991682519145937e-07
4053.74,-8.939472486750929e-07
4054.65,-8.770067851124182e-07
4055.55,-8.695400032506617e-07
4056.45,-8.604890675050005e-07
4057.35,-8.506955361992016e-07
4058.25,-8.512898567312879e-07
4059.15,-8.509578323229131e-07
4060.05,-8.549542495268776e-07
4060.95,-8.594240954341349e-07
4061.85,-8.520176701065502e-07
4062.75,-8.41668214813409e-07
4063.65,-8.30825669459475e-07
4064.55,-8.246236498447785e-07
4065.45,-8.223783753250905e-07
4066.35,-8.308909390937669e-07
4067.25,-8.412720706690478e-07
4068.15,-8.595760190339453e-07
4069.05,-8.727309676090519e-07
4069.95,-8.81214078960872e-07
4070.85,-8.808216609908409e-07
4071.75,-8.815274082524719e-07
4072.65,-8.763847864024644e-07
4073.55,-8.739594375571305e-07
4074.45,-8.681875576962656e-07
4075.35,-8.616630143004055e-07
4076.25,-8.505344375814844e-07
4077.15,-8.387171571766445e-07
4078.05,-8.321544819712928e-07
4078.95,-8.347291764169692e-07
4079.85,-8.487803481624395e-07
4080.75,-8.712475901791061e-07
4081.65,-8.93291923901392e-07
4082.55,-9.078383044749018e-07
4083.45,-9.168021189351763e-07
4084.35,-9.245343004989784e-07
4085.25,-9.280140377061049e-07
4086.15,-9.368730655256463e-07
4087.05,-9.49499317648166e-07
4087.95,-9.652639134017121e-07
4088.85,-9.724826326808014e-07
4089.75,-9.874268455476095e-07
4090.65,-9.906013158049198e-07
4091.55,-9.843851010610098e-07
4092.45,-9.799044720516125e-07
4093.36,-9.646000948461954e-07
4094.26,-9.535939713202208e-07
4095.16,-9.300020064588898e-07
4096.06,-9.10386956899175e-07
4096.96,-8.814156935607995e-07
4097.86,-8.564451663980948e-07
4098.76,-8.271133616125427e-07
4099.66,-7.925869391833644e-07
4100.56,-7.647076321664721e-07
4101.46,-7.389686110929268e-07
4102.36,-7.257930026806497e-07
4103.26,-7.258578486939874e-07
4104.16,-7.454614586171878e-07
4105.06,-7.761989314313956e-07
4105.96,-8.141285683717003e-07
4106.86,-8.484116450555857e-07
4107.76,-8.800808674195109e-07
4108.66,-8.964129065994488e-07
4109.56,-9.127573915922327e-07
4110.46,-9.204883583564884e-07
4111.36,-9.330266763910965e-07
4112.26,-9.396917234241935e-07
4113.16,-9.518395558311445e-07
4114.06,-9.667122029525737e-07
4114.96,-9.825114996503024e-07
4115.86,-9.87095123204176e-07
4116.76,-9.973791377806588e-07
4117.66,-9.971312024039562e-07
4118.56,-9.934139529700182e-07
4119.46,-9.876981476445184e-07
4120.36,-9.773130131143848e-07
4121.26,-9.737492349273526e-07
4122.16,-9.770608471276467e-07
4123.06,-9.805202947044332e-07
4123.96,-9.841844790122919e-07
4124.86,-9.879695305366825e-07
4125.76,-9.955480450357102e-07
4126.66,-9.9284944732566e-07
4127.56,-9.902276898073287e-07
4128.46,-9.829194679856407e-07
4129.36,-9.750236298975117e-07
4130.26,-9.665379694614173e-07
4131.17,-9.541720278995684e-07
4132.06,-9.499827400259346e-07
4132.97,-9.40415187710753e-07
4133.87,-9.454945576187096e-07
4134.77,-9.548768074727496e-07
4135.67,-9.710703650464658e-07
4136.57,-9.919214184413842e-07
4137.47,-1.01156064820074e-06
4138.37,-1.0313347742997894e-06
4139.27,-1.0413404177562336e-06
4140.17,-1.0470173282581668e-06
4141.07,-1.0378426601254799e-06
4141.97,-1.0205223488269873e-06
4142.87,-1.0008705959480719e-06
4143.77,-9.802113605847817e-07
4144.67,-9.738004739269992e-07
4145.57,-9.77306264156602e-07
4146.47,-9.815759204353313e-07
4147.37,-9.978241846388194e-07
4148.27,-1.0086307396334963e-06
4149.17,-1.0174490286208141e-06
4150.07,-1.0203249285107132e-06
4150.97,-1.0145720591151098e-06
4151.87,-1.0078653335801325e-06
4152.77,-1.0048376624099114e-06
4153.67,-1.0005668774836952e-06
4154.57,-9.996671936073839e-07
4155.47,-9.977328856551575e-07
4156.37,-1.00281222253275e-06
4157.27,-1.0070467770149787e-06
4158.17,-1.0139226424320236e-06
4159.07,-1.031858767094138e-06
4159.97,-1.0463411532164338e-06
4160.87,-1.0670038928710682e-06
4161.77,-1.07776115045463e-06
4162.67,-1.0866696370083157e-06
4163.57,-1.0905635768841165e-06
4164.47,-1.0932129240743827e-06
4165.37,-1.0936270142716703e-06
4166.27,-1.085605242468206e-06
4167.17,-1.076573081223448e-06
4168.07,-1.0673364027656757e-06
4168.98,-1.0626540451264242e-06
4169.88,-1.053222500753274e-06
4170.78,-1.0384366508515706e-06
4171.68,-1.0233703209835837e-06
4172.58,-1.0009898460797427e-06
4173.48,-9.864082277221816e-07
4174.38,-9.791411639850282e-07
4175.28,-9.79428989552939e-07
4176.18,-9.86330020355417e-07
4177.08,-9.968927690235548e-07
4177.98,-1.0049568042845954e-06
4178.88,-1.0165730870881713e-06
4179.78,-1.0267236753617037e-06
4180.68,-1.03537233470486e-06
4181.58,-1.043797300638625e-06
4182.48,-1.047313967653501e-06
4183.38,-1.0571219370841816e-06
4184.28,-1.0590354049667874e-06
4185.18,-1.0630113646565458e-06
4186.08,-1.0625036738416143e-06
4186.98,-1.0635645758491025e-06
4187.88,-1.0647810475048546e-06
4188.78,-1.061860036334395e-06
4189.68,-1.0707760361107433e-06
4190.58,-1.084266106895087e-06
4191.48,-1.0940374377026098e-06
4192.38,-1.0990820024791133e-06
4193.28,-1.1082108338437599e-06
4194.18,-1.1137818788594802e-06
4195.08,-1.110295452936446e-06
4195.98,-1.0915368637424767e-06
4196.88,-1.0722283084847483e-06
4197.78,-1.0552151819801467e-06
4198.68,-1.0427623058563975e-06
4199.58,-1.0276405928590998e-06
4200.48,-1.0232841643143311e-06
4201.38,-1.0216514827718392e-06
4202.28,-1.0332719879525047e-06
4203.18,-1.046245646276407e-06
4204.08,-1.0539468867440706e-06
4204.98,-1.0734278356227334e-06
4205.88,-1.0936542929110411e-06
4206.79,-1.1141062444218127e-06
4207.69,-1.1364983375523236e-06
4208.59,-1.1458215576231696e-06
4209.49,-1.1604180419737667e-06
4210.39,-1.1586094390558608e-06
4211.29,-1.167514500386415e-06
4212.19,-1.1645572216866902e-06
4213.09,-1.1558649422999324e-06
4213.99,-1.152177059835965e-06
4214.89,-1.1460406739544329e-06
4215.79,-1.1284869543280268e-06
4216.69,-1.1303391900461494e-06
4217.59,-1.1450730003375898e-06
4218.49,-1.1591343627445212e-06
4219.39,-1.1715522100460021e-06
4220.29,-1.184194719070097e-06
4221.19,-1.1936969089275336e-06
4222.09,-1.1828714677673154e-06
4222.99,-1.1608217128181368e-06
4223.89,-1.119283849078956e-06
4224.79,-1.0762698433275008e-06
4225.69,-1.029037814241167e-06
4226.59,-9.958371062028633e-07
4227.49,-9.82601537606652e-07
4228.39,-9.964076372111625e-07
4229.29,-1.0274067804904866e-06
4230.19,-1.0700594974895616e-06
4231.09,-1.1084884936600832e-06
4231.99,-1.1452083043486433e-06
4232.89,-1.161351068987867e-06
4233.79,-1.1624390983413029e-06
4234.69,-1.1582150135490793e-06
4235.59,-1.1514007587713845e-06
4236.49,-1.1451296131499191e-06
4237.39,-1.13877423088123e-06
4238.29,-1.1349551456177364e-06
4239.19,-1.1481988378837889e-06
4240.09,-1.1582492083068787e-06
4240.99,-1.1718546884289313e-06
4241.89,-1.1963326525518428e-06
4242.79,-1.2116232998956811e-06
4243.69,-1.2291925935091527e-06
4244.59,-1.238101368641141e-06
4245.5,-1.2366908228994252e-06
4246.4,-1.2308593317149266e-06
4247.3,-1.21933031874063e-06
4248.2,-1.1966626744741646e-06
4249.1,-1.1811121588715752e-06
4250.0,-1.1686237307874834e-06
4250.9,-1.160121821626555e-06
4251.8,-1.1580582051711753e-06
4252.7,-1.1670995726380625e-06
4253.6,-1.1696499525038107e-06
4254.5,-1.1812067040243511e-06
4255.4,-1.1906494640715996e-06
4256.3,-1.1926911002273478e-06
4257.2,-1.196168704228738e-06
4258.1,-1.201531832456517e-06
4259.0,-1.1917949946736752e-06
4259.9,-1.1839823169965256e-06
4260.8,-1.1789927442625931e-06
4261.7,-1.1850070805674514e-06
4262.6,-1.2030999536070835e-06
4263.5,-1.2268831568802893e-06
4264.4,-1.2587569786775039e-06
4265.3,-1.279670736600903e-06
4266.2,-1.2973553495983866e-06
4267.1,-1.2978202102042274e-06
4268.0,-1.279749937137376e-06
4268.9,-1.2549350648401127e-06
4269.8,-1.2191112450191941e-06
4270.7,-1.1795042930266126e-06
4271.6,-1.148463048389196e-06
4272.5,-1.1213137245279882e-06
4273.4,-1.099259129968628e-06
4274.3,-1.1091030831222798e-06
4275.2,-1.1296850686892915e-06
4276.1,-1.1575418369588852e-06
4277.0,-1.1880683959187304e-06
4277.9,-1.2205019068188464e-06
