wave,flux
3700.85,-5.957486569324843e-05
3701.75,-5.9228127362406296e-05
3702.65,-5.802228424500496e-05
3703.55,-5.620347989971106e-05
3704.45,-5.423188443222732e-05
3705.35,-5.306476285019384e-05
3706.25,-5.2413059249463084e-05
3707.15,-5.272367670249912e-05
3708.05,-5.342686301267635e-05
3708.96,-5.430401347261766e-05
3709.86,-5.515353297639757e-05
3710.76,-5.6181155216865656e-05
3711.66,-5.6995182908537836e-05
3712.56,-5.841953754074912e-05
3713.46,-6.062837425771073e-05
3714.36,-6.267209622695022e-05
3715.26,-6.549632082159845e-05
3716.16,-6.687350666102144e-05
3717.06,-6.767058125443026e-05
3717.96,-6.694922744050814e-05
3718.86,-6.443963769714995e-05
3719.76,-6.13824184910088e-05
3720.66,-5.773973450642247e-05
3721.56,-5.5290007135348066e-05
3722.46,-5.4666634758109405e-05
3723.36,-5.570299535878287e-05
3724.26,-5.8567482456739615e-05
3725.16,-6.234421299295368e-05
3726.06,-6.599885980475951e-05
3726.96,-6.858472348625937e-05
3727.86,-7.069189776563715e-05
3728.76,-7.130993131661343e-05
3729.66,-7.140219249788426e-05
3730.56,-7.010428583202545e-05
3731.46,-6.77420143151289e-05
3732.36,-6.416523726538648e-05
3733.26,-5.994162603644757e-05
3734.16,-5.6626380189541805e-05
3735.06,-5.408087748745728e-05
3735.96,-5.361853003818142e-05
3736.86,-5.5631358851969085e-05
3737.76,-5.971794202363523e-05
3738.66,-6.462102540796422e-05
3739.56,-7.027681636548068e-05
3740.46,-7.47771972876868e-05
3741.36,-7.837960176827578e-05
3742.26,-7.980275420513314e-05
3743.16,-7.978341167717284e-05
3744.06,-7.84636911709545e-05
3744.96,-7.623779542035742e-05
3745.86,-7.298292301235837e-05
3746.76,-6.939515782766208e-05
3747.67,-6.56071961478765e-05
3748.57,-6.210439641116854e-05
3749.47,-5.9638930021417714e-05
3750.37,-5.923590845889537e-05
3751.27,-6.105580663851453e-05
3752.17,-6.551755952222112e-05
3753.07,-7.112184367273626e-05
3753.97,-7.741710504751079e-05
3754.87,-8.28933039075959e-05
3755.77,-8.692015453804837e-05
3756.67,-8.940480115470838e-05
3757.57,-8.990154029946362e-05
3758.47,-8.961382638985199e-05
3759.37,-8.901409983263184e-05
3760.27,-8.961559873289992e-05
3761.17,-9.05715975666226e-05
3762.07,-9.20944714489817e-05
3762.97,-9.3213464788415e-05
3763.87,-9.391142488566069e-05
3764.77,-9.461307723504354e-05
3765.67,-9.341311295439396e-05
3766.57,-9.093854361221904e-05
3767.47,-8.780594122168981e-05
3768.37,-8.456252418427863e-05
3769.27,-8.13426134078677e-05
3770.17,-7.913049383571811e-05
3771.07,-7.828850227268095e-05
3771.97,-7.97223207523951e-05
3772.87,-8.27697671789302e-05
3773.77,-8.713823992674708e-05
3774.67,-9.197008456671301e-05
3775.57,-9.742167770861542e-05
3776.47,-0.00010268387762602084
3777.37,-0.0001067547541614774
3778.27,-0.00011112483573015389
3779.17,-0.00011589628720880327
3780.07,-0.00012045401409124986
3780.97,-0.0001232763774504932
3781.87,-0.00012686713419604286
3782.77,-0.00012890561030845973
3783.67,-0.00012991321492788886
3784.57,-0.00012963988557237872
3785.47,-0.00012811625767565773
3786.38,-0.00012655171357178044
3787.28,-0.0001242555739031074
3788.18,-0.00012136291093828053
3789.08,-0.00011921053518308592
3789.98,-0.00011792538212334147
3790.88,-0.00011578385075216278
3791.78,-0.00011382748375263468
3792.68,-0.00011132891608116137
3793.58,-0.0001075922025804691
3794.48,-0.00010218690230045695
3795.38,-9.726091245637642e-05
3796.28,-9.178513282481528e-05
3797.18,-8.739063633767177e-05
3798.08,-8.505195759308422e-05
3798.98,-8.476865801863922e-05
3799.88,-8.774938725152897e-05
3800.78,-9.419694315368486e-05
3801.68,-0.00010258932221138908
3802.58,-0.00011128871802381748
3803.48,-0.00011904891754369866
3804.38,-0.00012622827442019112
3805.28,-0.00013124119826754869
3806.18,-0.00013583797227916978
3807.08,-0.00013950807009889811
3807.98,-0.00014252544493283616
3808.88,-0.00014693976894230703
3809.78,-0.00014976179653732106
3810.68,-0.00015318870230454068
3811.58,-0.00015458014043279902
3812.48,-0.00015499518237673945
3813.38,-0.00015471469178405124
3814.28,-0.00015286762171129792
3815.18,-0.00015125476396971144
3816.08,-0.00015143449681544681
3816.98,-0.0001520558005186751
3817.88,-0.00015302733574585714
3818.78,-0.0001542874822980472
3819.68,-0.00015424716306262245
3820.58,-0.00015354210914757499
3821.48,-0.0001523210067430745
3822.38,-0.00015104866416637498
3823.28,-0.00014980298761238596
3824.18,-0.000147311992412016
3825.09,-0.00014482042771059875
3825.99,-0.00014146893973890915
3826.89,-0.00013778377536650577
3827.79,-0.0001352432795095988
3828.69,-0.00013217671937870446
3829.59,-0.000128836646677164
3830.49,-0.0001242117484595648
3831.39,-0.00011928191064933698
3832.29,-0.00011325318899010424
3833.19,-0.00010710724769488597
3834.09,-0.00010111476131595355
3834.99,-9.63607405296266e-05
3835.89,-9.457424543821266e-05
3836.79,-9.505960248565186e-05
3837.69,-9.832868561416304e-05
3838.59,-0.00010337584521933214
3839.49,-0.00011062730517222378
3840.39,-0.00011959171669249055
3841.29,-0.0001292003967432913
3842.19,-0.00013891965609879272
3843.09,-0.00014895149076343735
3843.99,-0.00015860305368193154
3844.89,-0.0001664979628230144
3845.79,-0.0001730853182409226
3846.69,-0.00017889721783801511
3847.59,-0.00018406026324931614
3848.49,-0.00018836464281044967
3849.39,-0.0001914344170158507
3850.29,-0.00019447217473223975
3851.19,-0.00019822154183817025
3852.09,-0.0002025320539344809
3852.99,-0.00020406499279388405
3853.89,-0.00020776452427462682
3854.79,-0.00020949285683856316
3855.69,-0.0002096205840231642
3856.59,-0.0002093102848552964
3857.49,-0.00020854525545452434
3858.39,-0.00020796784746721873
3859.29,-0.00020821089327321756
3860.19,-0.00021021143556517222
3861.09,-0.00021299076545031148
3861.99,-0.00021651566900628342
3862.9,-0.0002219045156978639
3863.8,-0.00022552691721495027
3864.7,-0.00022996056948109965
3865.6,-0.00023143241685136352
3866.5,-0.0002330367590814725
3867.4,-0.00023363485599279694
3868.3,-0.0002347805668166628
3869.2,-0.00023361028951352801
3870.1,-0.0002327240218541148
3871.0,-0.0002309625796587383
3871.9,-0.0002281952927354907
3872.8,-0.0002262645107295598
3873.7,-0.0002247308842154169
3874.6,-0.00022463181572350538
3875.5,-0.00022466530441710977
3876.4,-0.00022358197010826012
3877.3,-0.00022334701057386756
3878.2,-0.00022000044837837635
3879.1,-0.00021610565103034028
3880.0,-0.00021398070329529923
3880.9,-0.0002119267162684597
3881.8,-0.00020900423893361196
3882.7,-0.00020581109699427158
3883.6,-0.00020132481133073126
3884.5,-0.00019481499112084484
3885.4,-0.0001860567391021824
3886.3,-0.0001778312112754331
3887.2,-0.00016664352270209223
3888.1,-0.0001592819490132451
3889.0,-0.00015384387355562673
3889.9,-0.00015401158428081688
3890.8,-0.00015748940699765622
3891.7,-0.0001669443403698286
3892.6,-0.00017745738305850148
3893.5,-0.00018963658080701113
3894.4,-0.00020114842813710263
3895.3,-0.00021154132080318823
3896.2,-0.000220936247254589
3897.1,-0.0002295024941156381
3898.0,-0.00023568424090883647
3898.9,-0.00024256026790617495
3899.8,-0.00024875874573799595
3900.7,-0.00025610700671070387
3901.6,-0.00026088980955415206
3902.51,-0.00026626927193846347
3903.41,-0.00027101652889625135
3904.31,-0.0002729318292389859
3905.21,-0.00027628405502624296
3906.11,-0.0002787198721006473
3907.01,-0.0002845981505650727
3907.91,-0.0002917411744706696
3908.81,-0.0002979688994237218
3909.71,-0.000306894301968219
3910.61,-0.00031473869769343006
3911.51,-0.0003206340876280234
3912.41,-0.00032379576528024037
3913.31,-0.0003267570274888807
3914.21,-0.0003282427706789396
3915.11,-0.0003282201313477007
3916.01,-0.00032983215373928325
3916.91,-0.0003280422420653456
3917.81,-0.00032749545810433216
3918.71,-0.0003267659812296054
3919.61,-0.0003277645767113137
3920.51,-0.00032645020915185994
3921.41,-0.00032674328172615813
3922.31,-0.00032777659661162827
3923.21,-0.0003292200063190218
3924.11,-0.00033038299996545527
3925.01,-0.0003294553237295093
3925.91,-0.00032388170902360094
3926.81,-0.0003180750309376576
3927.71,-0.00030679569598583305
3928.61,-0.0002936399251182539
3929.51,-0.0002755202214123963
3930.41,-0.00025412980692566406
3931.31,-0.00023234911203924208
3932.21,-0.00021060929591213646
3933.11,-0.00019259849083106325
3934.01,-0.00018053057677241182
3934.91,-0.00018040472551676223
3935.81,-0.0001894412354980066
3936.71,-0.0002076282674460726
3937.61,-0.00023285332976814846
3938.51,-0.0002601605192045711
3939.42,-0.00028640616156083395
3940.32,-0.00030867915293216066
3941.22,-0.00032643217704202355
3942.12,-0.00033999091828927343
3943.02,-0.00035011746556113803
3943.92,-0.00035712170592111763
3944.82,-0.00036497445608472235
3945.72,-0.00037062946605124483
3946.62,-0.0003772550974302115
3947.52,-0.000384112824257681
3948.42,-0.0003872281248175372
3949.32,-0.000393075453138744
3950.22,-0.00039692974355920625
3951.12,-0.000399403654145379
3952.02,-0.00040117264302684655
3952.92,-0.0004037557495445282
3953.82,-0.0004060116804446404
3954.72,-0.00040629990827982916
3955.62,-0.00040430518898102553
3956.52,-0.0004042933488699307
3957.42,-0.0003974944443074998
3958.32,-0.0003945763230305908
3959.22,-0.00038997978386727387
3960.12,-0.0003822763946353008
3961.02,-0.0003728254888777284
3961.92,-0.00035713291750869453
3962.82,-0.0003398125660269661
3963.72,-0.0003194597084487382
3964.62,-0.00029743807773373483
3965.52,-0.0002724630912695499
3966.42,-0.0002450499312297086
3967.32,-0.0002184856001312194
3968.22,-0.000195115105174031
3969.12,-0.00018017739966679205
3970.02,-0.00017331759471533956
3970.92,-0.0001787824165497376
3971.82,-0.00019421839093583152
3972.72,-0.00021835635037285826
3973.62,-0.0002485063968986833
3974.52,-0.00027969289674532584
3975.42,-0.00030890490170814287
3976.32,-0.0003427049930706683
3977.22,-0.0003693471430000907
3978.13,-0.00039256505675584736
3979.03,-0.00041645493170590613
3979.93,-0.00043596871291108933
3980.83,-0.00045213810554626047
3981.73,-0.00046570366845165013
3982.63,-0.00047626336819430956
3983.53,-0.00048612442756054073
3984.43,-0.0004933032086761061
3985.33,-0.0005056596232464676
3986.23,-0.0005146192820584533
3987.13,-0.000525461234777525
3988.03,-0.0005387014321848508
3988.93,-0.0005475362362079587
3989.83,-0.0005581166884301867
3990.73,-0.0005668048558281717
3991.63,-0.0005743468743452839
3992.53,-0.0005851046948383398
3993.43,-0.0005911530762261774
3994.33,-0.0005956392367313717
3995.23,-0.0005965549672997979
3996.13,-0.000596993588655447
3997.03,-0.0006008345458809915
3997.93,-0.0006007905874558369
3998.83,-0.0006081241314983595
3999.73,-0.0006161306521793919
4000.63,-0.000627601996607857
4001.53,-0.0006385899771521156
4002.43,-0.0006457794764983737
4003.33,-0.0006509444841964978
4004.23,-0.0006523720427969653
4005.13,-0.0006527347618142233
4006.03,-0.000653895506115564
4006.93,-0.0006534688318447324
4007.83,-0.0006618520838458019
4008.73,-0.0006729436508967152
4009.63,-0.0006837035581525269
4010.53,-0.0006967818421121513
4011.43,-0.0007044593850666445
4012.33,-0.0007127364075367938
4013.23,-0.0007203683376301879
4014.13,-0.0007239502813965206
4015.03,-0.0007317026979358024
4015.93,-0.0007397316511991135
4016.84,-0.000744094899328967
4017.74,-0.0007510961078437005
4018.64,-0.00075541398464712
4019.54,-0.0007635632252554326
4020.44,-0.0007710953593752897
4021.34,-0.0007786979317193916
4022.24,-0.0007813669334684612
4023.14,-0.0007882994378979736
4024.04,-0.0007880816280286203
4024.94,-0.0007952356298584057
4025.84,-0.0008048418470075146
4026.74,-0.0008069716214958849
4027.64,-0.0008142305563738459
4028.54,-0.0008197107345298833
4029.44,-0.0008172130709605868
4030.34,-0.0008120364804863548
4031.24,-0.0008057085579640375
4032.14,-0.000801766673979396
4033.04,-0.0008001063169577462
4033.94,-0.0008075255505208861
4034.84,-0.0008205741337869106
4035.74,-0.0008373414107536611
4036.64,-0.0008580562963965146
4037.54,-0.0008749174999596772
4038.44,-0.0008922871352073102
4039.34,-0.0009031489000338573
4040.24,-0.0009096214474831963
4041.14,-0.0009117780650689029
4042.04,-0.0009093692806058572
4042.94,-0.0009030416103915848
4043.84,-0.0008965128384133445
4044.74,-0.0008857096949284988
4045.64,-0.0008820031984239455
4046.54,-0.0008829274577827708
4047.44,-0.000891965500363883
4048.34,-0.0009092802715734335
4049.24,-0.0009318597464260955
4050.14,-0.0009509897351731909
4051.04,-0.0009614633485131285
4051.94,-0.000969062141802111
4052.84,-0.000975226611307769
4053.74,-0.0009746877844047131
4054.65,-0.0009748025982884665
4055.55,-0.0009721972561654918
4056.45,-0.0009744122762677593
4057.35,-0.000977805449310796
4058.25,-0.0009815739842446763
4059.15,-0.000991920751444615
4060.05,-0.0010006006052533125
4060.95,-0.0010069224787388272
4061.85,-0.0010118754958568048
4062.75,-0.0010094457550015178
4063.65,-0.0010093343940816616
4064.55,-0.0010095668771181402
4065.45,-0.0010104413313692356
4066.35,-0.0010240764560030134
4067.25,-0.001030191105502155
4068.15,-0.0010469377862329379
4069.05,-0.0010566985727251106
4069.95,-0.0010764834933516005
4070.85,-0.0010788203536831345
4071.75,-0.0010861297739353036
4072.65,-0.0010802859138914545
4073.55,-0.0010868974352550565
4074.45,-0.001081720764467191
4075.35,-0.0010771604796514188
4076.25,-0.0010734407129624546
4077.15,-0.0010688838637350495
4078.05,-0.0010640495165155574
4078.95,-0.0010678518593447762
4079.85,-0.0010813478084248163
4080.75,-0.0010941375200824216
4081.65,-0.0011167702033867827
4082.55,-0.0011309451092920153
4083.45,-0.0011448264084953355
4084.35,-0.0011510130643374934
4085.25,-0.001154757040758307
4086.15,-0.0011575968836161315
4087.05,-0.0011741545855860078
4087.95,-0.0011788014676527723
4088.85,-0.001192395862790371
4089.75,-0.001199824192378925
4090.65,-0.001196602982268269
4091.55,-0.0012003932671448005
4092.45,-0.0011857450364065937
4093.36,-0.0011765175184729132
4094.26,-0.0011584626607870538
4095.16,-0.0011343890587964744
4096.06,-0.0011041594133247203
4096.96,-0.0010762712154758559
4097.86,-0.001032473274498736
4098.76,-0.0009914423463944619
4099.66,-0.0009437142805186113
4100.56,-0.0009045318153872954
4101.46,-0.000868822357795087
4102.36,-0.0008509370023938768
4103.26,-0.000861480056241522
4104.16,-0.0008860111258342879
4105.06,-0.0009384070349249812
4105.96,-0.0009909432593941253
4106.86,-0.001056000095863529
4107.76,-0.0011091234226145044
4108.66,-0.0011571084328808943
4109.56,-0.0011989369056667409
4110.46,-0.0012389927027924136
4111.36,-0.001271195607091007
4112.26,-0.0013048676986970626
4113.16,-0.0013451354415160996
4114.06,-0.0013831256490723749
4114.96,-0.0014194963642290934
4115.86,-0.0014447349518050385
4116.76,-0.0014612694768029232
4117.66,-0.0014830757896003536
4118.56,-0.0014954530608303968
4119.46,-0.0015038071438759205
4120.36,-0.0015205490316284758
4121.26,-0.0015277239479868675
4122.16,-0.001547768821025303
4123.06,-0.0015654517203464355
4123.96,-0.0015888381143303275
4124.86,-0.0016078659426381782
4125.76,-0.0016232138952860587
4126.66,-0.0016435678589810177
4127.56,-0.0016567326716597306
4128.46,-0.0016615940960802702
4129.36,-0.0016664510292985807
4130.26,-0.001672915544382401
4131.17,-0.0016741749574956295
4132.06,-0.001682463778300443
4132.97,-0.0016886018486330047
4133.87,-0.0017118847579647883
4134.77,-0.0017332590120486342
4135.67,-0.0017720617774301642
4136.57,-0.0018064354811164352
4137.47,-0.0018355921714274291
4138.37,-0.0018821582460289545
4139.27,-0.001901380220929477
4140.17,-0.0019269217686822622
4141.07,-0.001930904783407202
4141.97,-0.001929175327776439
4142.87,-0.0019242879463148045
4143.77,-0.001914010114503313
4144.67,-0.0019221855679631924
4145.57,-0.0019366111967089221
4146.47,-0.0019636927256847323
4147.37,-0.001994616493402823
4148.27,-0.002008327568609164
4149.17,-0.0020387351451262763
4150.07,-0.0020577311617277784
4150.97,-0.002067923017753697
4151.87,-0.0020779765441067987
4152.77,-0.0020799237959142265
4153.67,-0.0021003921239566045
4154.57,-0.002098983442611047
4155.47,-0.002108577662034945
4156.37,-0.002129426701168709
4157.27,-0.002160374762472423
4158.17,-0.0021829492647807993
4159.07,-0.0022239912967225847
4159.97,-0.002251105446272348
4160.87,-0.0022837235998793524
4161.77,-0.002316310599773056
4162.67,-0.0023323900734433015
4163.57,-0.002362645250183301
4164.47,-0.002379739918431786
4165.37,-0.002399140083496283
4166.27,-0.00241719543903924
4167.17,-0.0024202681594875175
4168.07,-0.002425698610947875
4168.98,-0.002445338389703402
4169.88,-0.002431711213132163
4170.78,-0.0024308747784811693
4171.68,-0.0024175854038114984
4172.58,-0.0023947714111238663
4173.48,-0.0023971900718970404
4174.38,-0.0023978894159765785
4175.28,-0.0024107098587754653
4176.18,-0.002444471412123377
4177.08,-0.002464777108778432
4177.98,-0.0025141725734451423
4178.88,-0.002541642362102396
4179.78,-0.0025706354119620148
4180.68,-0.002609073141154502
4181.58,-0.0026477325972553353
4182.48,-0.00267885038229097
4183.38,-0.002709310102789721
4184.28,-0.002720521049813622
4185.18,-0.0027576633326081325
4186.08,-0.0027750914142617854
4186.98,-0.0027887421077430765
4187.88,-0.002816376975922819
4188.78,-0.0028329228385014934
4189.68,-0.002877322315356182
4190.58,-0.002902650026265541
4191.48,-0.0029331051899319322
4192.38,-0.00296525614774618
4193.28,-0.0030120810644869715
4194.18,-0.003025078045428177
4195.08,-0.003054347189996753
4195.98,-0.003058257412189197
4196.88,-0.0030350567563124688
4197.78,-0.0030207729844371743
4198.68,-0.003023714866529917
4199.58,-0.003042846190432211
4200.48,-0.003050377668704181
4201.38,-0.0030714760027773015
4202.28,-0.0030918522166073627
4203.18,-0.0031367486117643536
4204.08,-0.003190690769584946
4204.98,-0.0032453345093421838
4205.88,-0.0032855905396977293
4206.79,-0.0033374938177572495
4207.69,-0.0033834944419917513
4208.59,-0.0034436359556943657
4209.49,-0.00349151808796509
4210.39,-0.003520411921977231
4211.29,-0.0035725551351350874
4212.19,-0.003602518257006254
4213.09,-0.00359560393908944
4213.99,-0.0036288269755586047
4214.89,-0.003622270475065955
4215.79,-0.003623488178760404
4216.69,-0.00364389114974131
4217.59,-0.0036788158382715618
4218.49,-0.0037572996016894972
4219.39,-0.0037947156916605666
4220.29,-0.003859232516954845
4221.19,-0.003893430729535779
4222.09,-0.003898329192192322
4222.99,-0.003885795329679357
4223.89,-0.0038368734484983563
4224.79,-0.003794595233687514
4225.69,-0.003729968167173953
4226.59,-0.0036844747899158754
4227.49,-0.003707342222708294
4228.39,-0.003769029887201111
4229.29,-0.003845316651465824
4230.19,-0.0039670148611817705
4231.09,-0.0040882056622303774
4231.99,-0.004195935441765697
4232.89,-0.00422232618319851
4233.79,-0.0042652357874422
4234.69,-0.0042752889853537
4235.59,-0.004294568285777518
4236.49,-0.0043163658504222924
4237.39,-0.004320562142038688
4238.29,-0.004381889289927195
4239.19,-0.0044318495156646705
4240.09,-0.0045043649021314245
4240.99,-0.004562507905445299
4241.89,-0.004630824233377206
4242.79,-0.004693095034050053
4243.69,-0.00474478160133979
4244.59,-0.004798388330965816
4245.5,-0.004841521031155284
4246.4,-0.0048496400420306
4247.3,-0.004848998188245748
4248.2,-0.0048612763278657704
4249.1,-0.004854125996050536
4250.0,-0.004882300191570373
4250.9,-0.004915340132983089
4251.8,-0.004954786680661086
4252.7,-0.0050232022808908245
4253.6,-0.005104994078467059
4254.5,-0.005150552470846255
4255.4,-0.005229844295278616
4256.3,-0.005271209534462758
4257.2,-0.005330385495701544
4258.1,-0.005354605808408009
4259.0,-0.0053925838741131025
4259.9,-0.005406352186703952
4260.8,-0.005429291331403861
4261.7,-0.0054762067767127835
4262.6,-0.005558226552692671
4263.5,-0.005690039662904728
4264.4,-0.0058222223077757885
4265.3,-0.005885255901833305
4266.2,-0.005973486101549734
4267.1,-0.006023958177134945
4268.0,-0.0060245798974880175
4268.9,-0.006016435745166585
4269.8,-0.005954231933493636
4270.7,-0.005906421370643502
4271.6,-0.00587971407229522
4272.5,-0.005833613403494742
4273.4,-0.005872681539853534
4274.3,-0.005925604652574885
4275.2,-0.006022469435407259
4276.1,-0.006144068708125599
4277.0,-0.006286215577480432
4277.9,-0.006406091741416904
4278.8,-0.00655235758957345
4279.7,-0.0066007344771578215
4280.6,-0.006674007683839812
4281.5,-0.006725997579031341
4282.4,-0.006743329955853714
4283.31,-0.006747006648082292
