wave,flux
3700.85,-1.165590726668356e-06
3701.75,-1.1564556659805083e-06
3702.65,-1.119046308491401e-06
3703.55,-1.0733399751703428e-06
3704.45,-1.0225852060421362e-06
3705.35,-9.75424020332267e-07
3706.25,-9.467068516123404e-07
3707.15,-9.327788235486668e-07
3708.05,-9.389781172641728e-07
3708.96,-9.526124706138706e-07
3709.86,-9.82582219873926e-07
3710.76,-1.0192845600832494e-06
3711.66,-1.0640929407957005e-06
3712.56,-1.1085752724040152e-06
3713.46,-1.1643745826501022e-06
3714.36,-1.2097454426701982e-06
3715.26,-1.2372691397724866e-06
3716.16,-1.2416413127163674e-06
3717.06,-1.227073468744904e-06
3717.96,-1.1825601747168254e-06
3718.86,-1.1134368457167656e-06
3719.76,-1.0384208637494252e-06
3720.66,-9.702424848140124e-07
3721.56,-9.248405821871342e-07
3722.46,-9.160623661391216e-07
3723.36,-9.498647136506636e-07
3724.26,-1.0010066185804644e-06
3725.16,-1.0677766489812834e-06
3726.06,-1.1272336356138163e-06
3726.96,-1.1608592785808302e-06
3727.86,-1.1797197994304076e-06
3728.76,-1.1895469429697333e-06
3729.66,-1.1794173093909848e-06
3730.56,-1.1639342576275862e-06
3731.46,-1.1295432517411782e-06
3732.36,-1.0715709001966844e-06
3733.26,-1.0032051088005062e-06
3734.16,-9.3007187825795e-07
3735.06,-8.769049812602476e-07
3735.96,-8.501237226862217e-07
3736.86,-8.655494699015425e-07
3737.76,-9.113418424655777e-07
3738.66,-9.827406975382963e-07
3739.56,-1.0653269660944395e-06
3740.46,-1.1423894796165192e-06
3741.36,-1.1902608260906548e-06
3742.26,-1.2113850868374526e-06
3743.16,-1.2014901516908526e-06
3744.06,-1.164477518454214e-06
3744.96,-1.1162933875030032e-06
3745.86,-1.0647971937156736e-06
3746.76,-1.0085245377215509e-06
3747.67,-9.61745272866255e-07
3748.57,-9.287000985904287e-07
3749.47,-9.091561589231379e-07
3750.37,-9.279421705765269e-07
3751.27,-9.824761314663425e-07
3752.17,-1.0654714864359305e-06
3753.07,-1.161725081389222e-06
3753.97,-1.2564197771474255e-06
3754.87,-1.3258114823039252e-06
3755.77,-1.3675264957432743e-06
3756.67,-1.3684515811847838e-06
3757.57,-1.331822861186225e-06
3758.47,-1.292149023735376e-06
3759.37,-1.2569355823340894e-06
3760.27,-1.242856697168356e-06
3761.17,-1.2502015859630926e-06
3762.07,-1.2750794731382223e-06
3762.97,-1.3039523085576864e-06
3763.87,-1.3304336975576202e-06
3764.77,-1.3375201890451367e-06
3765.67,-1.3445263397092352e-06
3766.57,-1.3472095681113012e-06
3767.47,-1.329301613244822e-06
3768.37,-1.3191412060608498e-06
3769.27,-1.3088016409521043e-06
3770.17,-1.31261916813878e-06
3771.07,-1.3279971551442954e-06
3771.97,-1.3529901696413704e-06
3772.87,-1.395991166261949e-06
3773.77,-1.44641998977998e-06
3774.67,-1.4984993299841233e-06
3775.57,-1.5357070128486368e-06
3776.47,-1.5629820982352295e-06
3777.37,-1.5957136412618467e-06
3778.27,-1.6312840016398807e-06
3779.17,-1.667858520827856e-06
3780.07,-1.7014851283398036e-06
3780.97,-1.7426498945513636e-06
3781.87,-1.76787297336e-06
3782.77,-1.7776047034699107e-06
3783.67,-1.7838456204970913e-06
3784.57,-1.763292980400991e-06
3785.47,-1.7305266025428453e-06
3786.38,-1.6866839305256115e-06
3787.28,-1.6291788777225821e-06
3788.18,-1.5939180299551463e-06
3789.08,-1.5553287880137846e-06
3789.98,-1.5440284117439213e-06
3790.88,-1.5338578019850038e-06
3791.78,-1.5306284041976299e-06
3792.68,-1.5250668237813136e-06
3793.58,-1.504389644589758e-06
3794.48,-1.4645662445052885e-06
3795.38,-1.4164354622183803e-06
3796.28,-1.3685090595135337e-06
3797.18,-1.327429433751053e-06
3798.08,-1.3100264244178457e-06
3798.98,-1.3078483252158368e-06
3799.88,-1.3481862618227634e-06
3800.78,-1.4166061005015068e-06
3801.68,-1.5104801703155052e-06
3802.58,-1.6205197320942284e-06
3803.48,-1.7138694147257097e-06
3804.38,-1.7715116303649566e-06
3805.28,-1.817739515893313e-06
3806.18,-1.8318283285045128e-06
3807.08,-1.8326611066944004e-06
3807.98,-1.844175836088667e-06
3808.88,-1.848213742612412e-06
3809.78,-1.8668536315975941e-06
3810.68,-1.8831489248271965e-06
3811.58,-1.8785407263460447e-06
3812.48,-1.8434227247515936e-06
3813.38,-1.7946223812438065e-06
3814.28,-1.7348787306324139e-06
3815.18,-1.6849350011164623e-06
3816.08,-1.6478814872196867e-06
3816.98,-1.637060708145757e-06
3817.88,-1.632865122915518e-06
3818.78,-1.6262621117455975e-06
3819.68,-1.6119458036315177e-06
3820.58,-1.6042928578146471e-06
3821.48,-1.5830288258260604e-06
3822.38,-1.5682938933443334e-06
3823.28,-1.5582740475618386e-06
3824.18,-1.533438861274642e-06
3825.09,-1.4986821972740904e-06
3825.99,-1.454089409540034e-06
3826.89,-1.4251837195023827e-06
3827.79,-1.4028805922413771e-06
3828.69,-1.3921349004015984e-06
3829.59,-1.3814529411819148e-06
3830.49,-1.3682361366756603e-06
3831.39,-1.3406215149233568e-06
3832.29,-1.296350621498683e-06
3833.19,-1.2532196287752426e-06
3834.09,-1.2112118105165857e-06
3834.99,-1.1820539677253608e-06
3835.89,-1.1764263647635166e-06
3836.79,-1.186995897218599e-06
3837.69,-1.210193710604082e-06
3838.59,-1.2374368156570407e-06
3839.49,-1.2810567882663068e-06
3840.39,-1.3503225360819456e-06
3841.29,-1.4359231776457082e-06
3842.19,-1.5427181777924123e-06
3843.09,-1.652408258885843e-06
3843.99,-1.7597282042251309e-06
3844.89,-1.854763856445916e-06
3845.79,-1.916271068097797e-06
3846.69,-1.957939042763247e-06
3847.59,-1.9814717540774796e-06
3848.49,-2.0071587244670555e-06
3849.39,-2.0056350471445276e-06
3850.29,-2.017363576226673e-06
3851.19,-2.015099661707898e-06
3852.09,-2.020144966979262e-06
3852.99,-2.037421043210807e-06
3853.89,-2.0358892942788146e-06
3854.79,-2.0306322182982177e-06
3855.69,-1.9951867120189147e-06
3856.59,-1.961453207064104e-06
3857.49,-1.905251156510867e-06
3858.39,-1.8573914859976694e-06
3859.29,-1.8364293105969356e-06
3860.19,-1.8184939724769742e-06
3861.09,-1.8543932372027555e-06
3861.99,-1.9153499941730226e-06
3862.9,-1.9905529943514056e-06
3863.8,-2.0618537942344884e-06
3864.7,-2.121021106213719e-06
3865.6,-2.1636508437451944e-06
3866.5,-2.1748262371474817e-06
3867.4,-2.1791083358025026e-06
3868.3,-2.170555052722672e-06
3869.2,-2.14734484393524e-06
3870.1,-2.1175981037841232e-06
3871.0,-2.063145737944027e-06
3871.9,-2.014931198622854e-06
3872.8,-1.994528804136674e-06
3873.7,-1.980921226039749e-06
3874.6,-1.995341115194457e-06
3875.5,-2.0209244529428465e-06
3876.4,-2.0468038520499627e-06
3877.3,-2.048591514647323e-06
3878.2,-2.0393421978346415e-06
3879.1,-2.039002509641466e-06
3880.0,-2.029799122583392e-06
3880.9,-2.031172445373088e-06
3881.8,-2.03237672390543e-06
3882.7,-2.042011464006847e-06
3883.6,-2.0251570924526615e-06
3884.5,-1.991371325358385e-06
3885.4,-1.951473511104355e-06
3886.3,-1.8942419304418427e-06
3887.2,-1.823475359610824e-06
3888.1,-1.7699488811217658e-06
3889.0,-1.7573497053273226e-06
3889.9,-1.7684289309723877e-06
3890.8,-1.8322393942308946e-06
3891.7,-1.9057821250509961e-06
3892.6,-1.9997086030752793e-06
3893.5,-2.0919971886666797e-06
3894.4,-2.151756648248349e-06
3895.3,-2.2008595754440096e-06
3896.2,-2.2344562476476276e-06
3897.1,-2.2702806729566084e-06
3898.0,-2.2994732644733425e-06
3898.9,-2.3212883467292547e-06
3899.8,-2.3349715806256705e-06
3900.7,-2.3654317765832062e-06
3901.6,-2.3773934739306235e-06
3902.51,-2.3683413148922925e-06
3903.41,-2.3607009649838396e-06
3904.31,-2.3491596295731587e-06
3905.21,-2.3415532853350435e-06
3906.11,-2.34142667333693e-06
3907.01,-2.3551826786203584e-06
3907.91,-2.4108343812274414e-06
3908.81,-2.471938044021766e-06
3909.71,-2.5660652097501178e-06
3910.61,-2.6388352294033493e-06
3911.51,-2.684692687515727e-06
3912.41,-2.729731978611624e-06
3913.31,-2.74410954298876e-06
3914.21,-2.7448519782801844e-06
3915.11,-2.719177574721399e-06
3916.01,-2.6829878603911246e-06
3916.91,-2.657654224450213e-06
3917.81,-2.6067821937374145e-06
3918.71,-2.563084307645984e-06
3919.61,-2.524974964462044e-06
3920.51,-2.4757495418722503e-06
3921.41,-2.4345162816936686e-06
3922.31,-2.395606243263185e-06
3923.21,-2.370562774702246e-06
3924.11,-2.35615846560835e-06
3925.01,-2.3104256395537972e-06
3925.91,-2.242642204255186e-06
3926.81,-2.1456479597087754e-06
3927.71,-2.0016307251352097e-06
3928.61,-1.8306012820275824e-06
3929.51,-1.6333977584016211e-06
3930.41,-1.4262926824645232e-06
3931.31,-1.2342385357589139e-06
3932.21,-1.0659990329022355e-06
3933.11,-9.306365017833982e-07
3934.01,-8.524727675540109e-07
3934.91,-8.503644351750302e-07
3935.81,-9.114371405476594e-07
3936.71,-1.0364466385846297e-06
3937.61,-1.2156966267510704e-06
3938.51,-1.4302289023434095e-06
3939.42,-1.6452007926231419e-06
3940.32,-1.8396123098463058e-06
3941.22,-2.0070958495181714e-06
3942.12,-2.1416526670168662e-06
3943.02,-2.2583381863566448e-06
3943.92,-2.34562107855121e-06
3944.82,-2.428223387544678e-06
3945.72,-2.523550659295184e-06
3946.62,-2.6152198981314806e-06
3947.52,-2.6949203561969847e-06
3948.42,-2.7761029093883623e-06
3949.32,-2.851468948660308e-06
3950.22,-2.9040561826983337e-06
3951.12,-2.9459113016201508e-06
3952.02,-2.9816476027893827e-06
3952.92,-3.017169404735806e-06
3953.82,-3.040100674909363e-06
3954.72,-3.0569433057324605e-06
3955.62,-3.063905359070675e-06
3956.52,-3.048198293218294e-06
3957.42,-3.034665524686436e-06
3958.32,-3.0044790142872933e-06
3959.22,-2.946350236938673e-06
3960.12,-2.874982012454847e-06
3961.02,-2.777781106891024e-06
3961.92,-2.6239754300674766e-06
3962.82,-2.4562178590081666e-06
3963.72,-2.271395315809221e-06
3964.62,-2.070979544986576e-06
3965.52,-1.8568907852799337e-06
3966.42,-1.6410231618301508e-06
3967.32,-1.4283987297736967e-06
3968.22,-1.2648188461145836e-06
3969.12,-1.161180496046926e-06
3970.02,-1.1445838693727947e-06
3970.92,-1.223347379090583e-06
3971.82,-1.379911115324876e-06
3972.72,-1.594862703221241e-06
3973.62,-1.8556747324062259e-06
3974.52,-2.1226859135820976e-06
3975.42,-2.369311122117584e-06
3976.32,-2.6044672785742357e-06
3977.22,-2.8193893884927603e-06
3978.13,-3.013089342060086e-06
3979.03,-3.182684060925154e-06
3979.93,-3.325784499383755e-06
3980.83,-3.4195008726713175e-06
3981.73,-3.497881126468906e-06
3982.63,-3.536861056350503e-06
3983.53,-3.568743933780393e-06
3984.43,-3.613633303426747e-06
3985.33,-3.659924034057514e-06
3986.23,-3.7062442962059255e-06
3987.13,-3.756064030830848e-06
3988.03,-3.8270556026783445e-06
3988.93,-3.880765845539778e-06
3989.83,-3.916329243692367e-06
3990.73,-3.969891033807738e-06
3991.63,-3.999312041687971e-06
3992.53,-4.0493981103521004e-06
3993.43,-4.0569540041527055e-06
3994.33,-4.054557548836506e-06
3995.23,-4.063060529197954e-06
3996.13,-4.018097142986799e-06
3997.03,-3.999881932002868e-06
3997.93,-3.970704566573628e-06
3998.83,-3.997230840965324e-06
3999.73,-4.058710906215715e-06
4000.63,-4.123213895571942e-06
4001.53,-4.17884343673647e-06
4002.43,-4.24211304712729e-06
4003.33,-4.251628756307978e-06
4004.23,-4.230952499884807e-06
4005.13,-4.192118807701555e-06
4006.03,-4.146574768485712e-06
4006.93,-4.149313945045253e-06
4007.83,-4.185870027602835e-06
4008.73,-4.250076131184804e-06
4009.63,-4.320162211916596e-06
4010.53,-4.396685087058969e-06
4011.43,-4.451988158085985e-06
4012.33,-4.502296899012152e-06
4013.23,-4.527276501929074e-06
4014.13,-4.57654217516071e-06
4015.03,-4.586272792805888e-06
4015.93,-4.604217756018229e-06
4016.84,-4.615723248985254e-06
4017.74,-4.6304476059398e-06
4018.64,-4.652204408431532e-06
4019.54,-4.684950157252631e-06
4020.44,-4.692632483106991e-06
4021.34,-4.712065940188457e-06
4022.24,-4.712733771983519e-06
4023.14,-4.7556475390710724e-06
4024.04,-4.769022859861656e-06
4024.94,-4.785349527091292e-06
4025.84,-4.805981433151972e-06
4026.74,-4.858092384950864e-06
4027.64,-4.882741747479309e-06
4028.54,-4.881537988582949e-06
4029.44,-4.854500227518164e-06
4030.34,-4.778477557510344e-06
4031.24,-4.698139382959458e-06
4032.14,-4.601785824004994e-06
4033.04,-4.582303570756598e-06
4033.94,-4.578211600742221e-06
4034.84,-4.636478393814613e-06
4035.74,-4.762101313715103e-06
4036.64,-4.87967431471706e-06
4037.54,-5.044959476675491e-06
4038.44,-5.143595410904562e-06
4039.34,-5.223067889607218e-06
4040.24,-5.226245307016578e-06
4041.14,-5.231916968195149e-06
4042.04,-5.178861978639193e-06
4042.94,-5.093286582135179e-06
4043.84,-4.979401049262166e-06
4044.74,-4.8797679173991234e-06
4045.64,-4.756108739405674e-06
4046.54,-4.7309638832768075e-06
4047.44,-4.760896075456283e-06
4048.34,-4.902190697598713e-06
4049.24,-5.008609644785508e-06
4050.14,-5.161952177021293e-06
4051.04,-5.280263428276798e-06
4051.94,-5.358540326160351e-06
4052.84,-5.377113714866983e-06
4053.74,-5.370560610065532e-06
4054.65,-5.347059357974277e-06
4055.55,-5.311069608963095e-06
4056.45,-5.315333821455345e-06
4057.35,-5.297313751496817e-06
4058.25,-5.293125476709518e-06
4059.15,-5.326509144766504e-06
4060.05,-5.333083658742786e-06
4060.95,-5.349576994190028e-06
4061.85,-5.31694863799763e-06
4062.75,-5.268317631590306e-06
4063.65,-5.206565129391935e-06
4064.55,-5.16203278861178e-06
4065.45,-5.147118706404502e-06
4066.35,-5.204130649461193e-06
4067.25,-5.2743914548169815e-06
4068.15,-5.3796384893097924e-06
4069.05,-5.459820909680354e-06
4069.95,-5.5314684776267334e-06
4070.85,-5.567061980306705e-06
4071.75,-5.543725813774013e-06
4072.65,-5.540895254424461e-06
4073.55,-5.52917998821498e-06
4074.45,-5.521126814932004e-06
4075.35,-5.497441874746286e-06
4076.25,-5.431900739892299e-06
4077.15,-5.373532988696723e-06
4078.05,-5.339692983856434e-06
4078.95,-5.367549329855493e-06
4079.85,-5.435807218165586e-06
4080.75,-5.561025582989361e-06
4081.65,-5.695774361777924e-06
4082.55,-5.830059010281799e-06
4083.45,-5.909360502109456e-06
4084.35,-5.9665344865313365e-06
4085.25,-6.020745292030399e-06
4086.15,-6.0736103507554765e-06
4087.05,-6.1803497717447005e-06
4087.95,-6.301344034039571e-06
4088.85,-6.387123729689538e-06
4089.75,-6.52084641927486e-06
4090.65,-6.550828535636296e-06
4091.55,-6.5634625356113215e-06
4092.45,-6.5390073662603045e-06
4093.36,-6.488502829570813e-06
4094.26,-6.4281890993473226e-06
4095.16,-6.357872270572498e-06
4096.06,-6.244632990008388e-06
4096.96,-6.1357261395109095e-06
4097.86,-5.968215576804156e-06
4098.76,-5.806438426371515e-06
4099.66,-5.598141013389358e-06
4100.56,-5.400915220842366e-06
4101.46,-5.2249922545615015e-06
4102.36,-5.153875982393454e-06
4103.26,-5.1707138719417375e-06
4104.16,-5.29435459061971e-06
4105.06,-5.490168763882537e-06
4105.96,-5.746109364415434e-06
4106.86,-5.993389236933134e-06
4107.76,-6.184789370518555e-06
4108.66,-6.325115094852744e-06
4109.56,-6.41923929837309e-06
4110.46,-6.496624090744905e-06
4111.36,-6.562525857929688e-06
4112.26,-6.6502252202217785e-06
4113.16,-6.719144733561917e-06
4114.06,-6.827201537202914e-06
4114.96,-6.893016220023839e-06
4115.86,-6.976131270213262e-06
4116.76,-7.006579657255936e-06
4117.66,-7.033090864263202e-06
4118.56,-7.0069393429204304e-06
4119.46,-6.978306351112409e-06
4120.36,-6.932576011425527e-06
4121.26,-6.9495383403474214e-06
4122.16,-6.939803865383028e-06
4123.06,-7.001745045183268e-06
4123.96,-7.064794825752293e-06
4124.86,-7.133909219453783e-06
4125.76,-7.132410217474622e-06
4126.66,-7.1894409829559994e-06
4127.56,-7.172220898797132e-06
4128.46,-7.154042708599037e-06
4129.36,-7.12986679602363e-06
4130.26,-7.091867455872996e-06
4131.17,-7.014845252253818e-06
4132.06,-6.978139398596163e-06
4132.97,-6.942034281744523e-06
4133.87,-6.947464654686596e-06
4134.77,-7.006966737619769e-06
4135.67,-7.129016105871318e-06
4136.57,-7.26971704538523e-06
4137.47,-7.442022588539973e-06
4138.37,-7.570192751339e-06
4139.27,-7.682290778817612e-06
4140.17,-7.686257314180743e-06
4141.07,-7.651756108967363e-06
4141.97,-7.5422796281245824e-06
4142.87,-7.45315374056856e-06
4143.77,-7.340057744314909e-06
4144.67,-7.291707523619807e-06
4145.57,-7.3367407542178635e-06
4146.47,-7.409250053500783e-06
4147.37,-7.529395338094577e-06
4148.27,-7.64613180933288e-06
4149.17,-7.736903415228299e-06
4150.07,-7.77131418695843e-06
4150.97,-7.81847840492459e-06
4151.87,-7.79131937350803e-06
4152.77,-7.798982484884065e-06
4153.67,-7.785410714041264e-06
4154.57,-7.761452119153138e-06
4155.47,-7.777824707441154e-06
4156.37,-7.837087427148687e-06
4157.27,-7.899258751733612e-06
4158.17,-7.984647987875697e-06
4159.07,-8.078338101992624e-06
4159.97,-8.231681108123499e-06
4160.87,-8.304033813493611e-06
4161.77,-8.438485241685023e-06
4162.67,-8.506613908851173e-06
4163.57,-8.560149372723969e-06
4164.47,-8.564019753625816e-06
4165.37,-8.566498996528096e-06
4166.27,-8.579589652649723e-06
4167.17,-8.532391537204802e-06
4168.07,-8.503153768282114e-06
4168.98,-8.49913547987323e-06
4169.88,-8.400810433667078e-06
4170.78,-8.32390669345203e-06
4171.68,-8.255018008853868e-06
4172.58,-8.094828836969592e-06
4173.48,-8.010313228453975e-06
4174.38,-8.024760768316651e-06
4175.28,-7.989006742322533e-06
4176.18,-8.075900451375198e-06
4177.08,-8.189295004621054e-06
4177.98,-8.31223897639564e-06
4178.88,-8.419134860845747e-06
4179.78,-8.522937606626371e-06
4180.68,-8.649014135124979e-06
4181.58,-8.715457263086515e-06
4182.48,-8.771378261426177e-06
4183.38,-8.750592630679433e-06
4184.28,-8.794919824828353e-06
4185.18,-8.871056722487918e-06
4186.08,-8.813140016151065e-06
4186.98,-8.804855391222482e-06
4187.88,-8.801741457537252e-06
4188.78,-8.79996984240104e-06
4189.68,-8.871155445158e-06
4190.58,-8.96914091861468e-06
4191.48,-9.05300425258913e-06
4192.38,-9.179690487958043e-06
4193.28,-9.28247233269682e-06
4194.18,-9.30508480473154e-06
4195.08,-9.289458210288575e-06
4195.98,-9.27312476427895e-06
4196.88,-9.14788398864872e-06
4197.78,-9.060872972081041e-06
4198.68,-8.980215835127764e-06
4199.58,-8.862956059898054e-06
4200.48,-8.832656046137367e-06
4201.38,-8.853024978249583e-06
4202.28,-8.91436798465138e-06
4203.18,-8.976562324124673e-06
4204.08,-9.141102947864601e-06
4204.98,-9.244153241837348e-06
4205.88,-9.339532120921965e-06
4206.79,-9.575911447306193e-06
4207.69,-9.702200726367998e-06
4208.59,-9.86074021166771e-06
4209.49,-9.939262691844247e-06
4210.39,-1.003566059277694e-05
4211.29,-1.0111437076282058e-05
4212.19,-1.0085005345924391e-05
4213.09,-1.009777012418436e-05
4213.99,-1.0071955733026363e-05
4214.89,-9.967378998532305e-06
4215.79,-9.87759383115551e-06
4216.69,-9.900193543038817e-06
4217.59,-9.922303827206501e-06
4218.49,-1.0036592994545517e-05
4219.39,-1.0136815976059023e-05
4220.29,-1.0261799964793147e-05
4221.19,-1.0325302890592175e-05
4222.09,-1.0285194168132889e-05
4222.99,-1.0127602276329235e-05
4223.89,-9.909189010421407e-06
4224.79,-9.540449250801104e-06
4225.69,-9.205988207783304e-06
4226.59,-8.954028546146152e-06
4227.49,-8.858333671303052e-06
4228.39,-8.978976283159905e-06
4229.29,-9.290402247626323e-06
4230.19,-9.606240656417021e-06
4231.09,-9.985547136669332e-06
4231.99,-1.025647991582588e-05
4232.89,-1.0432290076563062e-05
4233.79,-1.0595347104025668e-05
4234.69,-1.0544396962868292e-05
4235.59,-1.0511047832384895e-05
4236.49,-1.0463292822539274e-05
4237.39,-1.0445042651407767e-05
4238.29,-1.0553317562137186e-05
4239.19,-1.0622607465597338e-05
4240.09,-1.077839183132457e-05
4240.99,-1.0878557345841284e-05
4241.89,-1.1008634349865158e-05
4242.79,-1.1225973309405225e-05
4243.69,-1.1335104156382633e-05
4244.59,-1.1343314862572592e-05
4245.5,-1.1417453459583387e-05
4246.4,-1.1359988929940136e-05
4247.3,-1.1290979419908449e-05
4248.2,-1.1114602875766755e-05
4249.1,-1.1085817998582301e-05
4250.0,-1.1001707294016745e-05
4250.9,-1.1034689332711651e-05
4251.8,-1.1052227092265957e-05
4252.7,-1.113410515857234e-05
4253.6,-1.1247170208866713e-05
4254.5,-1.1320662741692099e-05
4255.4,-1.1416662438041033e-05
4256.3,-1.1536679672526456e-05
4257.2,-1.1584294252383953e-05
4258.1,-1.1627017439079351e-05
4259.0,-1.158150668818248e-05
4259.9,-1.153939115815771e-05
4260.8,-1.1545884016773143e-05
4261.7,-1.1622891855445403e-05
4262.6,-1.1765984877978474e-05
4263.5,-1.2015028687999448e-05
4264.4,-1.2266409319432131e-05
4265.3,-1.2465597327212625e-05
4266.2,-1.261992803583569e-05
4267.1,-1.2601137873652025e-05
4268.0,-1.2569442074653698e-05
4268.9,-1.2322645812362695e-05
4269.8,-1.2115395761344506e-05
4270.7,-1.185207696593638e-05
4271.6,-1.162377140652384e-05
4272.5,-1.1440346606439205e-05
4273.4,-1.1289400570012637e-05
4274.3,-1.13805588907797e-05
4275.2,-1.1520829430839127e-05
4276.1,-1.1749889062648426e-05
