wave,flux
3700.85,-1.2555184695741861e-06
3701.75,-1.24559246077454e-06
3702.65,-1.214119773864353e-06
3703.55,-1.1704922934821444e-06
3704.45,-1.1128881462444981e-06
3705.35,-1.0708482276638815e-06
3706.25,-1.043314603516759e-06
3707.15,-1.0360143671550475e-06
3708.05,-1.0438414756151645e-06
3708.96,-1.0595699078611705e-06
3709.86,-1.0848014185163583e-06
3710.76,-1.1168873360298853e-06
3711.66,-1.151255918213514e-06
3712.56,-1.196853799754062e-06
3713.46,-1.244516799763836e-06
3714.36,-1.297507323471378e-06
3715.26,-1.3329808732816566e-06
3716.16,-1.3526783194242672e-06
3717.06,-1.3443472600087402e-06
3717.96,-1.3077548258473878e-06
3718.86,-1.2511520204947947e-06
3719.76,-1.1776738505998516e-06
3720.66,-1.1043494877570804e-06
3721.56,-1.0467899201003013e-06
3722.46,-1.0323747627556118e-06
3723.36,-1.058804656076706e-06
3724.26,-1.1136616366055479e-06
3725.16,-1.186642919554868e-06
3726.06,-1.2446167146095903e-06
3726.96,-1.2852422118168446e-06
3727.86,-1.3175731110685547e-06
3728.76,-1.3224003864222666e-06
3729.66,-1.315443342255295e-06
3730.56,-1.29505754037915e-06
3731.46,-1.25108050608099e-06
3732.36,-1.188462177259439e-06
3733.26,-1.114251374262509e-06
3734.16,-1.0357918209279505e-06
3735.06,-9.853223530480952e-07
3735.96,-9.63729128426839e-07
3736.86,-9.82126799481506e-07
3737.76,-1.044012205281596e-06
3738.66,-1.1256422621545654e-06
3739.56,-1.221041666662852e-06
3740.46,-1.295088541959341e-06
3741.36,-1.3574139598014658e-06
3742.26,-1.3759677508899552e-06
3743.16,-1.3707250202717438e-06
3744.06,-1.3361493086107761e-06
3744.96,-1.2858186425162273e-06
3745.86,-1.2346940808412614e-06
3746.76,-1.1680834533440429e-06
3747.67,-1.1110753831304717e-06
3748.57,-1.0613698834126603e-06
3749.47,-1.0342727510001352e-06
3750.37,-1.037061385783175e-06
3751.27,-1.081471258408758e-06
3752.17,-1.1640334682348308e-06
3753.07,-1.272148815721472e-06
3753.97,-1.374844559120817e-06
3754.87,-1.4640242997531447e-06
3755.77,-1.5111499426096845e-06
3756.67,-1.5232647903504845e-06
3757.57,-1.5026811551912331e-06
3758.47,-1.4720294449906075e-06
3759.37,-1.435014704872986e-06
3760.27,-1.4317509136284844e-06
3761.17,-1.4395404814091986e-06
3762.07,-1.465826746783499e-06
3762.97,-1.4872986387499525e-06
3763.87,-1.514972192618483e-06
3764.77,-1.5263073413662697e-06
3765.67,-1.5181323498492872e-06
3766.57,-1.5051897432755698e-06
3767.47,-1.4734457452725676e-06
3768.37,-1.4448102331298138e-06
3769.27,-1.4108304938394766e-06
3770.17,-1.3963096853731063e-06
3771.07,-1.3999018438255602e-06
3771.97,-1.4227923625463267e-06
3772.87,-1.4783442693210192e-06
3773.77,-1.5291997254060243e-06
3774.67,-1.5989293499224673e-06
3775.57,-1.6494755911568215e-06
3776.47,-1.6986984082948728e-06
3777.37,-1.7525697038294857e-06
3778.27,-1.8006723966249953e-06
3779.17,-1.8430802812525803e-06
3780.07,-1.8959833456998449e-06
3780.97,-1.9391287227261736e-06
3781.87,-1.969866429037069e-06
3782.77,-1.9909762469194764e-06
3783.67,-1.9974036357197945e-06
3784.57,-1.9823959331773e-06
3785.47,-1.949250709090719e-06
3786.38,-1.9019989815344117e-06
3787.28,-1.8493095659532647e-06
3788.18,-1.797774313912485e-06
3789.08,-1.7605281798190135e-06
3789.98,-1.7416110807392801e-06
3790.88,-1.7230886335224512e-06
3791.78,-1.7195574119282393e-06
3792.68,-1.6922937981396836e-06
3793.58,-1.6571342573932474e-06
3794.48,-1.6083456228469085e-06
3795.38,-1.5413049909261122e-06
3796.28,-1.4786503148444208e-06
3797.18,-1.4177275736539808e-06
3798.08,-1.3819388582267437e-06
3798.98,-1.3857057144045013e-06
3799.88,-1.4281107068834215e-06
3800.78,-1.513672639360766e-06
3801.68,-1.6298353093053047e-06
3802.58,-1.7465213468097415e-06
3803.48,-1.8522055500723614e-06
3804.38,-1.938456265174437e-06
3805.28,-1.9882522005377926e-06
3806.18,-2.0221648902443785e-06
3807.08,-2.0402594539110927e-06
3807.98,-2.0646309724000628e-06
3808.88,-2.093083254240075e-06
3809.78,-2.1169666115462324e-06
3810.68,-2.1333606006375816e-06
3811.58,-2.1331213225424357e-06
3812.48,-2.11513872453448e-06
3813.38,-2.064732360639065e-06
3814.28,-2.009510229321982e-06
3815.18,-1.966825512273367e-06
3816.08,-1.947882676819662e-06
3816.98,-1.9319651896761014e-06
3817.88,-1.945207093703397e-06
3818.78,-1.9478838281597676e-06
3819.68,-1.94279742880611e-06
3820.58,-1.9330660414660398e-06
3821.48,-1.9223412958500816e-06
3822.38,-1.8929562140827171e-06
3823.28,-1.8733842347496743e-06
3824.18,-1.8515364505514024e-06
3825.09,-1.8125121220512279e-06
3825.99,-1.7767895084080125e-06
3826.89,-1.7323210739148763e-06
3827.79,-1.694536982648271e-06
3828.69,-1.6734519654558554e-06
3829.59,-1.64917104559295e-06
3830.49,-1.62378642468637e-06
3831.39,-1.5739051101420176e-06
3832.29,-1.5128407150607352e-06
3833.19,-1.4412338580421857e-06
3834.09,-1.3812516248203659e-06
3834.99,-1.3334423336259052e-06
3835.89,-1.3084757397995991e-06
3836.79,-1.3166981230163724e-06
3837.69,-1.3444106927089672e-06
3838.59,-1.3927596147892402e-06
3839.49,-1.4653116789070651e-06
3840.39,-1.557070655577071e-06
3841.29,-1.666008498643605e-06
3842.19,-1.7867323172123196e-06
3843.09,-1.8887361393120875e-06
3843.99,-2.0120183009684084e-06
3844.89,-2.106983998529472e-06
3845.79,-2.177989931740246e-06
3846.69,-2.2473171099813726e-06
3847.59,-2.280182096541565e-06
3848.49,-2.3130685661357803e-06
3849.39,-2.325070739935164e-06
3850.29,-2.3501429006488996e-06
3851.19,-2.3647138812100606e-06
3852.09,-2.3869582297378286e-06
3852.99,-2.400666365384848e-06
3853.89,-2.3997687329765976e-06
3854.79,-2.417040281396759e-06
3855.69,-2.402584528108267e-06
3856.59,-2.3589052759686853e-06
3857.49,-2.317264690540862e-06
3858.39,-2.289686897783101e-06
3859.29,-2.26241067372411e-06
3860.19,-2.2559686409461754e-06
3861.09,-2.2954962553709817e-06
3861.99,-2.3569442515701535e-06
3862.9,-2.4293771526367965e-06
3863.8,-2.499699199660814e-06
3864.7,-2.540105979058206e-06
3865.6,-2.5752427080924048e-06
3866.5,-2.5853357153219734e-06
3867.4,-2.5881324857580672e-06
3868.3,-2.591505176337775e-06
3869.2,-2.5627865730662373e-06
3870.1,-2.530800749256193e-06
3871.0,-2.489930326392408e-06
3871.9,-2.442523214303024e-06
3872.8,-2.4024518117163198e-06
3873.7,-2.3995764017463285e-06
3874.6,-2.3966657396012064e-06
3875.5,-2.423436856195163e-06
3876.4,-2.4313278775367734e-06
3877.3,-2.4343928758551357e-06
3878.2,-2.414735198185887e-06
3879.1,-2.4007679657708035e-06
3880.0,-2.3869569187397714e-06
3880.9,-2.374251892106612e-06
3881.8,-2.3836695839912806e-06
3882.7,-2.364946516505626e-06
3883.6,-2.3424410068572406e-06
3884.5,-2.2788754006912776e-06
3885.4,-2.2014394649024846e-06
3886.3,-2.1198377476820824e-06
3887.2,-2.0223296515637286e-06
3888.1,-1.9478783809229342e-06
3889.0,-1.914223303036448e-06
3889.9,-1.9107214698816245e-06
3890.8,-1.9681055387317033e-06
3891.7,-2.0561924146181025e-06
3892.6,-2.1791099116416267e-06
3893.5,-2.2836067861350123e-06
3894.4,-2.377807247672073e-06
3895.3,-2.4533887681218207e-06
3896.2,-2.515713024956091e-06
3897.1,-2.5774834264159666e-06
3898.0,-2.6348619737566977e-06
3898.9,-2.6637423641251952e-06
3899.8,-2.6963555384820647e-06
3900.7,-2.7387181379353236e-06
3901.6,-2.756016074220328e-06
3902.51,-2.7739528102371105e-06
3903.41,-2.771911718070119e-06
3904.31,-2.7718865371605677e-06
3905.21,-2.7618400699425418e-06
3906.11,-2.778613556626314e-06
3907.01,-2.7980993512103164e-06
3907.91,-2.8589859473130016e-06
3908.81,-2.940555211260471e-06
3909.71,-3.016713256823255e-06
3910.61,-3.1023494088095996e-06
3911.51,-3.161181845172692e-06
3912.41,-3.1909546163728306e-06
3913.31,-3.2035018548326678e-06
3914.21,-3.1985699800363056e-06
3915.11,-3.1791879344811406e-06
3916.01,-3.1578219588922424e-06
3916.91,-3.1258038447890855e-06
3917.81,-3.076602561488409e-06
3918.71,-3.0559256820659225e-06
3919.61,-2.999395269868373e-06
3920.51,-2.9633546173265226e-06
3921.41,-2.9473999590368187e-06
3922.31,-2.9202384978803952e-06
3923.21,-2.9060933281068845e-06
3924.11,-2.886162325839919e-06
3925.01,-2.8461085117110454e-06
3925.91,-2.765709215093581e-06
3926.81,-2.6701237402771265e-06
3927.71,-2.5213112281563762e-06
3928.61,-2.3136297561449207e-06
3929.51,-2.1000958227125935e-06
3930.41,-1.862959037084411e-06
3931.31,-1.6377239927670675e-06
3932.21,-1.4279857247431586e-06
3933.11,-1.2548366195648217e-06
3934.01,-1.1547652057863793e-06
3934.91,-1.1394999243768784e-06
3935.81,-1.216350263504936e-06
3936.71,-1.3743149487792599e-06
3937.61,-1.587866548198222e-06
3938.51,-1.8427680541445753e-06
3939.42,-2.1012854855749226e-06
3940.32,-2.3250117116552583e-06
3941.22,-2.5304643802770087e-06
3942.12,-2.65712616532323e-06
3943.02,-2.786669971672708e-06
3943.92,-2.88034689147726e-06
3944.82,-2.9685942912331572e-06
3945.72,-3.0629346357327363e-06
3946.62,-3.1406311970093864e-06
3947.52,-3.220183454714038e-06
3948.42,-3.302580237358493e-06
3949.32,-3.3539935522088088e-06
3950.22,-3.412118500248023e-06
3951.12,-3.4445919648876216e-06
3952.02,-3.4799758519144037e-06
3952.92,-3.494020162105495e-06
3953.82,-3.5195822595131633e-06
3954.72,-3.5300210771774413e-06
3955.62,-3.535284818350036e-06
3956.52,-3.5252049380426503e-06
3957.42,-3.5084518366702213e-06
3958.32,-3.470192760492581e-06
3959.22,-3.4266165930737316e-06
3960.12,-3.362249151122623e-06
3961.02,-3.259617421857298e-06
3961.92,-3.094801273264333e-06
3962.82,-2.920866077793221e-06
3963.72,-2.706950782579292e-06
3964.62,-2.485278313827316e-06
3965.52,-2.2503903034666607e-06
3966.42,-1.9968759273511497e-06
3967.32,-1.7596564740852663e-06
3968.22,-1.5526687770823232e-06
3969.12,-1.4203362481101585e-06
3970.02,-1.3896922813723439e-06
3970.92,-1.4611066069015777e-06
3971.82,-1.6234595280506377e-06
3972.72,-1.8589019082303896e-06
3973.62,-2.134729361063334e-06
3974.52,-2.423860518697916e-06
3975.42,-2.7020786777307688e-06
3976.32,-2.9737992034064695e-06
3977.22,-3.1863970625834937e-06
3978.13,-3.407248043480236e-06
3979.03,-3.579339738961308e-06
3979.93,-3.7383728518967105e-06
3980.83,-3.855312223845594e-06
3981.73,-3.9479582836081685e-06
3982.63,-4.017905394586656e-06
3983.53,-4.052850228048149e-06
3984.43,-4.081979041656858e-06
3985.33,-4.162982074110265e-06
3986.23,-4.200336197363736e-06
3987.13,-4.248893542283815e-06
3988.03,-4.336292478664332e-06
3988.93,-4.395589667903846e-06
3989.83,-4.4422433646299695e-06
3990.73,-4.501923848990103e-06
3991.63,-4.5377029218790835e-06
3992.53,-4.58500825767567e-06
3993.43,-4.628908018432505e-06
3994.33,-4.620810168206504e-06
3995.23,-4.6197441693960925e-06
3996.13,-4.58558714597036e-06
3997.03,-4.577924779420867e-06
3997.93,-4.574283441624067e-06
3998.83,-4.60612862707553e-06
3999.73,-4.6581631196029505e-06
4000.63,-4.727855865265171e-06
4001.53,-4.791448536659264e-06
4002.43,-4.835837741460547e-06
4003.33,-4.871438338673341e-06
4004.23,-4.854323098213716e-06
4005.13,-4.811379522127257e-06
4006.03,-4.781595828528284e-06
4006.93,-4.77954302350007e-06
4007.83,-4.804688472081486e-06
4008.73,-4.857158140075295e-06
4009.63,-4.950055356044238e-06
4010.53,-5.035045993275362e-06
4011.43,-5.089837093871325e-06
4012.33,-5.148985259417637e-06
4013.23,-5.186922035452274e-06
4014.13,-5.204258860642026e-06
4015.03,-5.2291609435399184e-06
4015.93,-5.2285957905993906e-06
4016.84,-5.271396073150772e-06
4017.74,-5.321259202090988e-06
4018.64,-5.328026907628107e-06
4019.54,-5.358622885220857e-06
4020.44,-5.403823627086225e-06
4021.34,-5.411617077935558e-06
4022.24,-5.421231621165026e-06
4023.14,-5.4627165307611225e-06
4024.04,-5.469645561742908e-06
4024.94,-5.503688351252196e-06
4025.84,-5.526424461435969e-06
4026.74,-5.563045796540581e-06
4027.64,-5.592438250044895e-06
4028.54,-5.624116152075796e-06
4029.44,-5.572278543585564e-06
4030.34,-5.5053727132404916e-06
4031.24,-5.400722399369417e-06
4032.14,-5.322592410329588e-06
4033.04,-5.265426736746466e-06
4033.94,-5.297827571557214e-06
4034.84,-5.355555053261809e-06
4035.74,-5.469236140296465e-06
4036.64,-5.636465246926394e-06
4037.54,-5.762326655463189e-06
4038.44,-5.8962116004634246e-06
4039.34,-5.95612310592147e-06
4040.24,-5.9887742172638035e-06
4041.14,-5.9903079323064544e-06
4042.04,-5.918837184013141e-06
4042.94,-5.838115381525292e-06
4043.84,-5.72161273258176e-06
4044.74,-5.610215739179936e-06
4045.64,-5.541084070000447e-06
4046.54,-5.5045618814955286e-06
4047.44,-5.540152516392232e-06
4048.34,-5.647022752649964e-06
4049.24,-5.822938136879127e-06
4050.14,-5.9596045303698855e-06
4051.04,-6.038338015328606e-06
4051.94,-6.087505361580984e-06
4052.84,-6.0926141030781e-06
4053.74,-6.1005193650796695e-06
4054.65,-6.0236550714586664e-06
4055.55,-6.007636268257508e-06
4056.45,-5.990667958535509e-06
4057.35,-5.970837866636392e-06
4058.25,-5.9802662992590625e-06
4059.15,-5.993374199814887e-06
4060.05,-6.025895713506865e-06
4060.95,-6.062592560269512e-06
4061.85,-6.052554991086439e-06
4062.75,-6.012470833585476e-06
4063.65,-5.985377101623239e-06
4064.55,-5.914578441077095e-06
4065.45,-5.951400853036411e-06
4066.35,-5.987590592172831e-06
4067.25,-6.033828047903518e-06
4068.15,-6.135740428182205e-06
4069.05,-6.238099712549132e-06
4069.95,-6.278973011589508e-06
4070.85,-6.343212856057767e-06
4071.75,-6.319568741857547e-06
4072.65,-6.320695837391616e-06
4073.55,-6.3145378621117005e-06
4074.45,-6.265071271986038e-06
4075.35,-6.216406412203489e-06
4076.25,-6.1738195989624185e-06
4077.15,-6.101064579150936e-06
4078.05,-6.045901357039678e-06
4078.95,-6.075251845603325e-06
4079.85,-6.139169313912906e-06
4080.75,-6.2872191057697885e-06
4081.65,-6.422498767880189e-06
4082.55,-6.533055539320317e-06
4083.45,-6.6148034023580536e-06
4084.35,-6.64137773786884e-06
4085.25,-6.727238447718655e-06
4086.15,-6.733096499927451e-06
4087.05,-6.849222006955472e-06
4087.95,-6.971550342065981e-06
4088.85,-7.0400024888674855e-06
4089.75,-7.143830781565098e-06
4090.65,-7.184878744192545e-06
4091.55,-7.149580991362945e-06
4092.45,-7.134534707656681e-06
4093.36,-7.090639684233693e-06
4094.26,-6.989675544282168e-06
4095.16,-6.856105915848083e-06
4096.06,-6.703859817189735e-06
4096.96,-6.581333058060048e-06
4097.86,-6.368172802245194e-06
4098.76,-6.167555919720426e-06
4099.66,-5.906849867957012e-06
4100.56,-5.669798225516244e-06
4101.46,-5.4665235701634814e-06
4102.36,-5.357400223349624e-06
4103.26,-5.397414401752702e-06
4104.16,-5.5148303780314325e-06
4105.06,-5.755755370956994e-06
4105.96,-6.056798521773666e-06
4106.86,-6.3314666220693564e-06
4107.76,-6.566703798892564e-06
4108.66,-6.754258055253538e-06
4109.56,-6.913042612323688e-06
4110.46,-7.01963801606505e-06
4111.36,-7.110252734614857e-06
4112.26,-7.231477961533894e-06
4113.16,-7.34137929239346e-06
4114.06,-7.4837835254634995e-06
4114.96,-7.57690652646554e-06
4115.86,-7.673925334884692e-06
4116.76,-7.764026195435878e-06
4117.66,-7.75825935297491e-06
4118.56,-7.765486808479745e-06
4119.46,-7.705729838624383e-06
4120.36,-7.698281949128404e-06
4121.26,-7.72160505581364e-06
4122.16,-7.732328596162978e-06
4123.06,-7.766882738586204e-06
4123.96,-7.878402743006337e-06
4124.86,-7.893401372370155e-06
4125.76,-7.971469770584604e-06
4126.66,-7.989391447526728e-06
4127.56,-7.964014425557254e-06
4128.46,-7.976517191003464e-06
4129.36,-7.99109451992418e-06
4130.26,-7.91750327865218e-06
4131.17,-7.866741584008359e-06
4132.06,-7.821859031345283e-06
4132.97,-7.80003425492931e-06
4133.87,-7.84604839356222e-06
4134.77,-7.906649424367202e-06
4135.67,-8.051021309276471e-06
4136.57,-8.212019843354531e-06
4137.47,-8.358894983103983e-06
4138.37,-8.46689560224793e-06
4139.27,-8.66892621353311e-06
4140.17,-8.669563137403563e-06
4141.07,-8.597932184325291e-06
4141.97,-8.52789571618619e-06
4142.87,-8.443587478336532e-06
4143.77,-8.350540716385803e-06
4144.67,-8.302783502932463e-06
4145.57,-8.330900044314482e-06
4146.47,-8.44383089743404e-06
4147.37,-8.540185536144348e-06
4148.27,-8.642666755423596e-06
4149.17,-8.746654738886777e-06
4150.07,-8.773001127297439e-06
4150.97,-8.780367463410761e-06
4151.87,-8.772160608884145e-06
4152.77,-8.766972156966665e-06
4153.67,-8.76732729217927e-06
4154.57,-8.753265561191883e-06
4155.47,-8.733769013564932e-06
4156.37,-8.817347208743861e-06
4157.27,-8.860961803076105e-06
4158.17,-8.93246091201734e-06
4159.07,-9.050180948373884e-06
4159.97,-9.195091688619456e-06
4160.87,-9.341374018391947e-06
4161.77,-9.416324085583895e-06
4162.67,-9.531344989900807e-06
4163.57,-9.6002142313899e-06
4164.47,-9.61016702804514e-06
4165.37,-9.669870548256393e-06
4166.27,-9.59002322247656e-06
4167.17,-9.56824261497585e-06
4168.07,-9.555075361541625e-06
4168.98,-9.520694040767993e-06
4169.88,-9.480061046000817e-06
4170.78,-9.318283973575506e-06
4171.68,-9.260201664506613e-06
4172.58,-9.131924913305148e-06
4173.48,-9.037388247242615e-06
4174.38,-8.985535298526022e-06
4175.28,-9.02138228296485e-06
4176.18,-9.076411406760809e-06
4177.08,-9.214792552734524e-06
4177.98,-9.281886177470702e-06
4178.88,-9.435488887347586e-06
4179.78,-9.592068053049164e-06
4180.68,-9.618902854562919e-06
4181.58,-9.710915865134368e-06
4182.48,-9.805748329752603e-06
4183.38,-9.834325148009641e-06
4184.28,-9.849487455615476e-06
4185.18,-9.916585725995922e-06
4186.08,-9.934759516599114e-06
4186.98,-9.960169868129135e-06
4187.88,-9.975571803490897e-06
4188.78,-1.0015881325176638e-05
4189.68,-1.0029294404065202e-05
4190.58,-1.0151631731457927e-05
4191.48,-1.0260301878280721e-05
4192.38,-1.0389882692599438e-05
4193.28,-1.046165779523478e-05
4194.18,-1.0532237203741207e-05
4195.08,-1.0519194598052586e-05
4195.98,-1.0466733134376115e-05
4196.88,-1.0317415365187106e-05
4197.78,-1.023705675617764e-05
4198.68,-1.0108305390280913e-05
4199.58,-1.0061056752074461e-05
4200.48,-1.0056265148392039e-05
4201.38,-1.0064683240501711e-05
4202.28,-1.0116526332033198e-05
4203.18,-1.0254232799753769e-05
4204.08,-1.0341313257188489e-05
4204.98,-1.0459569402764455e-05
4205.88,-1.0664509079751964e-05
4206.79,-1.0796352868656295e-05
4207.69,-1.097020341604597e-05
4208.59,-1.11398423571981e-05
4209.49,-1.1227597941594194e-05
4210.39,-1.1299767610698921e-05
4211.29,-1.1350801965256711e-05
4212.19,-1.140520290735927e-05
4213.09,-1.1429346364260893e-05
4213.99,-1.1355639813243221e-05
4214.89,-1.1321792118099092e-05
4215.79,-1.1261924244888433e-05
4216.69,-1.1250402525484242e-05
4217.59,-1.1318520085136887e-05
4218.49,-1.1384377677046436e-05
4219.39,-1.156637333087863e-05
4220.29,-1.1681460963408612e-05
4221.19,-1.1795180758735667e-05
4222.09,-1.1693249748594662e-05
4222.99,-1.15922438135634e-05
4223.89,-1.1333530291816467e-05
4224.79,-1.101579195580715e-05
4225.69,-1.070555538957531e-05
4226.59,-1.043660626376019e-05
4227.49,-1.0346166801105359e-05
4228.39,-1.0475549380374486e-05
4229.29,-1.0769035316156358e-05
4230.19,-1.1127370645000796e-05
4231.09,-1.1503771768352711e-05
4231.99,-1.177547825162633e-05
4232.89,-1.1964178787426254e-05
4233.79,-1.2049160127760345e-05
4234.69,-1.2013766876299618e-05
4235.59,-1.1956785110679328e-05
4236.49,-1.1955897929148697e-05
4237.39,-1.1891123772891415e-05
4238.29,-1.192723336566324e-05
4239.19,-1.2077020108060544e-05
4240.09,-1.2196643930486745e-05
4240.99,-1.2343754852525542e-05
4241.89,-1.2482198036821686e-05
4242.79,-1.2671878316876628e-05
4243.69,-1.2780991709227907e-05
4244.59,-1.2899476961145346e-05
4245.5,-1.2869012918913459e-05
4246.4,-1.2869242415732702e-05
4247.3,-1.2799412541360938e-05
4248.2,-1.2662698905986899e-05
4249.1,-1.2607781909925551e-05
4250.0,-1.2500142582716515e-05
4250.9,-1.2560962482761136e-05
4251.8,-1.2614098345164658e-05
4252.7,-1.2718894368748324e-05
4253.6,-1.2832014991124502e-05
4254.5,-1.2992894539132459e-05
4255.4,-1.3013038896130556e-05
4256.3,-1.3118546278836728e-05
4257.2,-1.3151578437456973e-05
4258.1,-1.3220188041360315e-05
4259.0,-1.3214835721221646e-05
4259.9,-1.3106529183205327e-05
4260.8,-1.3157684814835183e-05
4261.7,-1.3228105267165267e-05
4262.6,-1.3355178557930711e-05
4263.5,-1.3622520492437507e-05
4264.4,-1.388816032433587e-05
4265.3,-1.4160150130889677e-05
4266.2,-1.4265794439449479e-05
4267.1,-1.4258108326992699e-05
4268.0,-1.42384828806364e-05
4268.9,-1.4100211056242367e-05
4269.8,-1.3817307007692348e-05
4270.7,-1.3481901620231947e-05
4271.6,-1.3234694365386082e-05
4272.5,-1.308317734970374e-05
4273.4,-1.3004452768944557e-05
4274.3,-1.3104624900492213e-05
