wave,flux
3700.85,-7.825098035387473e-05
3701.75,-7.772068206646969e-05
3702.65,-7.590138170984482e-05
3703.55,-7.383348820819988e-05
3704.45,-7.126971705669855e-05
3705.35,-6.912876860905763e-05
3706.25,-6.79860937907772e-05
3707.15,-6.826498771456958e-05
3708.05,-6.919286164715195e-05
3708.96,-7.025601341913753e-05
3709.86,-7.179650137292209e-05
3710.76,-7.320488344414232e-05
3711.66,-7.468843438707334e-05
3712.56,-7.708021858563577e-05
3713.46,-7.990739521283172e-05
3714.36,-8.285762386678302e-05
3715.26,-8.559336967999407e-05
3716.16,-8.751774988348565e-05
3717.06,-8.85610801935088e-05
3717.96,-8.724655686666367e-05
3718.86,-8.431567118054834e-05
3719.76,-8.017238183920678e-05
3720.66,-7.568329578403991e-05
3721.56,-7.224307181237706e-05
3722.46,-7.121734560365173e-05
3723.36,-7.25406458167576e-05
3724.26,-7.643248312914754e-05
3725.16,-8.11053332673982e-05
3726.06,-8.532220753699468e-05
3726.96,-8.85397488246995e-05
3727.86,-9.084697697350109e-05
3728.76,-9.205890068023755e-05
3729.66,-9.20151951138598e-05
3730.56,-9.096274962777693e-05
3731.46,-8.812402891718906e-05
3732.36,-8.399875813887426e-05
3733.26,-7.889259499079728e-05
3734.16,-7.395722197211426e-05
3735.06,-7.077760934436174e-05
3735.96,-7.000002413759148e-05
3736.86,-7.2099100550194e-05
3737.76,-7.664558076396701e-05
3738.66,-8.306894231801272e-05
3739.56,-8.970991002058533e-05
3740.46,-9.580524444145848e-05
3741.36,-9.986112347337569e-05
3742.26,-0.00010203908010143089
3743.16,-0.00010155203929059958
3744.06,-9.960018251354458e-05
3744.96,-9.731883416324964e-05
3745.86,-9.365218553833471e-05
3746.76,-8.933625665572516e-05
3747.67,-8.453365176188062e-05
3748.57,-8.063397462939745e-05
3749.47,-7.777394829209016e-05
3750.37,-7.740496195960032e-05
3751.27,-8.020245821607586e-05
3752.17,-8.538498505185494e-05
3753.07,-9.297413026440493e-05
3753.97,-0.00010134748058483308
3754.87,-0.00010712579302571948
3755.77,-0.00011200403241984278
3756.67,-0.0001145495024078077
3757.57,-0.00011424889030205416
3758.47,-0.00011362888255392492
3759.37,-0.00011224794099125552
3760.27,-0.0001120603526264745
3761.17,-0.00011313969681580569
3762.07,-0.00011534843224318778
3762.97,-0.00011791154287815785
3763.87,-0.00011912956114512856
3764.77,-0.00012011978806294367
3765.67,-0.00011953344699136335
3766.57,-0.0001182496650506389
3767.47,-0.00011494945694444637
3768.37,-0.00011068376293948393
3769.27,-0.00010788575134291833
3770.17,-0.00010546912028713353
3771.07,-0.00010485647508806657
3771.97,-0.00010616066534297241
3772.87,-0.00011026625344480593
3773.77,-0.00011532048089634634
3774.67,-0.00012135766586433052
3775.57,-0.00012641036575143928
3776.47,-0.00013227832340282
3777.37,-0.00013769344677482253
3778.27,-0.00014246248302521682
3779.17,-0.00014726773026502794
3780.07,-0.0001516793417907016
3780.97,-0.00015534086562794081
3781.87,-0.0001586093356522031
3782.77,-0.00016116979360009679
3783.67,-0.00016208389243246632
3784.57,-0.0001618616898096524
3785.47,-0.00016048884435537823
3786.38,-0.00015735818490443494
3787.28,-0.00015451613297162286
3788.18,-0.00015195185960166865
3789.08,-0.00014908736331090963
3789.98,-0.00014793531543394199
3790.88,-0.00014702204372680255
3791.78,-0.00014490842239369683
3792.68,-0.00014213746378475078
3793.58,-0.00013824857444046112
3794.48,-0.00013399621162631236
3795.38,-0.00012813634609585268
3796.28,-0.00012145018041790608
3797.18,-0.00011636055150853845
3798.08,-0.00011328361644013896
3798.98,-0.00011389379544098667
3799.88,-0.00011766380710627544
3800.78,-0.00012499034040530795
3801.68,-0.00013490387494529018
3802.58,-0.0001459935480865337
3803.48,-0.0001555624179771073
3804.38,-0.00016374278257837366
3805.28,-0.00017008482642066268
3806.18,-0.00017360073010413212
3807.08,-0.0001776414350249829
3807.98,-0.0001799654679926339
3808.88,-0.00018333576447618395
3809.78,-0.00018677418244887606
3810.68,-0.00018938766760010113
3811.58,-0.00019110531282043978
3812.48,-0.00019049338345751657
3813.38,-0.00018897019351787276
3814.28,-0.00018587901078314845
3815.18,-0.00018365557016726737
3816.08,-0.00018354897831722363
3816.98,-0.0001850426552498133
3817.88,-0.00018545727899864497
3818.78,-0.0001866984015951561
3819.68,-0.0001874660195745833
3820.58,-0.00018639737506856823
3821.48,-0.00018555630324494882
3822.38,-0.00018441271324921572
3823.28,-0.00018326975975258442
3824.18,-0.00018119422670107867
3825.09,-0.0001774345846034438
3825.99,-0.00017440576976027942
3826.89,-0.00017160946444402808
3827.79,-0.00016849823272499566
3828.69,-0.00016607155271633605
3829.59,-0.00016431340430162625
3830.49,-0.0001594998324266418
3831.39,-0.00015404777836617692
3832.29,-0.0001471576819084385
3833.19,-0.00013992250585054928
3834.09,-0.0001319662467905895
3834.99,-0.00012684642641741569
3835.89,-0.00012440125965817658
3836.79,-0.00012494698760322654
3837.69,-0.00012915663116524266
3838.59,-0.00013545475082940187
3839.49,-0.00014328351239265052
3840.39,-0.0001539211329270043
3841.29,-0.00016477470886611806
3842.19,-0.0001764485963009584
3843.09,-0.00018845965673371898
3843.99,-0.00019925208811506784
3844.89,-0.00020880486906456672
3845.79,-0.00021629526116372322
3846.69,-0.00022208378610661734
3847.59,-0.00022767570893337906
3848.49,-0.0002323550558844052
3849.39,-0.0002349933146583272
3850.29,-0.00023928155622505865
3851.19,-0.00024228779921650262
3852.09,-0.00024490196797502425
3852.99,-0.00024826042081510025
3853.89,-0.0002506167909348969
3854.79,-0.00025275309897814093
3855.69,-0.000252812392689905
3856.59,-0.0002510184081381658
3857.49,-0.00024982057612799697
3858.39,-0.0002487334605722036
3859.29,-0.0002475509431429604
3860.19,-0.00024889268112569904
3861.09,-0.0002516105282431815
3861.99,-0.0002574925946043199
3862.9,-0.0002633380275933458
3863.8,-0.0002703464339533426
3864.7,-0.00027643531306361903
3865.6,-0.0002778646027280764
3866.5,-0.000281318129587316
3867.4,-0.0002818028367113869
3868.3,-0.0002814110115168488
3869.2,-0.00027990075624536253
3870.1,-0.00028028667485907404
3871.0,-0.0002771065200868534
3871.9,-0.0002738296229665005
3872.8,-0.0002703057469566502
3873.7,-0.0002687649761749586
3874.6,-0.0002688015553620591
3875.5,-0.00027041210805419904
3876.4,-0.0002710223727394436
3877.3,-0.0002719139318685036
3878.2,-0.0002694506557545818
3879.1,-0.0002679618309515155
3880.0,-0.000266666759949467
3880.9,-0.00026558143047988674
3881.8,-0.00026497422941118207
3882.7,-0.0002634401612879261
3883.6,-0.0002587709270151184
3884.5,-0.00025145150884441927
3885.4,-0.0002434031708014886
3886.3,-0.00023172247988409114
3887.2,-0.00022044921574891597
3888.1,-0.00021040453313010717
3889.0,-0.0002041562726848119
3889.9,-0.00020398598858678053
3890.8,-0.00021052579345152595
3891.7,-0.0002206103661691132
3892.6,-0.00023382790071284183
3893.5,-0.0002464989203387054
3894.4,-0.00026036028232601896
3895.3,-0.000270825069601576
3896.2,-0.0002802500165996252
3897.1,-0.00028898432391617204
3898.0,-0.0002965752366784231
3898.9,-0.00030465306101986743
3899.8,-0.0003112896927112779
3900.7,-0.00031734064016816804
3901.6,-0.0003221805082836803
3902.51,-0.00032535575305069764
3903.41,-0.0003273228347882189
3904.31,-0.0003307725577348343
3905.21,-0.00033220464023178003
3906.11,-0.00033537293425462463
3907.01,-0.0003407591195822794
3907.91,-0.0003480072015113579
3908.81,-0.00035649044348365854
3909.71,-0.00036592864155339267
3910.61,-0.00037379265244778185
3911.51,-0.0003827589071682633
3912.41,-0.0003861556153163824
3913.31,-0.0003882935522406
3914.21,-0.00039084067309711607
3915.11,-0.00038945200831419735
3916.01,-0.0003872510265687379
3916.91,-0.00038652781608195
3917.81,-0.0003864117397242381
3918.71,-0.00038366399966150425
3919.61,-0.0003816755777538158
3920.51,-0.0003806298511528217
3921.41,-0.0003794710472847838
3922.31,-0.0003804207433908236
3923.21,-0.0003797751395319922
3924.11,-0.000379672984804775
3925.01,-0.00037728679591340084
3925.91,-0.00037346320518258353
3926.81,-0.0003621991787228618
3927.71,-0.00034586103461163955
3928.61,-0.000325535095296048
3929.51,-0.00030028613726506214
3930.41,-0.0002728214426667517
3931.31,-0.00024386694172008567
3932.21,-0.00021758622901751594
3933.11,-0.00019238865382471577
3934.01,-0.0001795263890311968
3934.91,-0.00017772200210972817
3935.81,-0.00018900682815731153
3936.71,-0.0002112972375193109
3937.61,-0.0002419960827930225
3938.51,-0.00027679541564446257
3939.42,-0.0003123188285318819
3940.32,-0.00034412668787436694
3941.22,-0.00036777722092308724
3942.12,-0.000387033664055774
3943.02,-0.0004020019109572863
3943.92,-0.0004127723795724585
3944.82,-0.00042338524432092306
3945.72,-0.00043218545741184784
3946.62,-0.0004425864765741481
3947.52,-0.00045200824651162123
3948.42,-0.00045935323375668926
3949.32,-0.00046597131451971315
3950.22,-0.00047109114787769065
3951.12,-0.0004778123554950313
3952.02,-0.0004825591900558909
3952.92,-0.00048544530664189654
3953.82,-0.0004885629650382625
3954.72,-0.0004903241636230863
3955.62,-0.0004919077008107682
3956.52,-0.0004913702372041753
3957.42,-0.00048815643944568194
3958.32,-0.00048555262163962323
3959.22,-0.0004799114669934068
3960.12,-0.0004722397766349848
3961.02,-0.0004601303003181896
3961.92,-0.0004451950699252124
3962.82,-0.00042206959732940546
3963.72,-0.00039861296636925346
3964.62,-0.00036926861792524826
3965.52,-0.00033724731805807233
3966.42,-0.00030117395372432224
3967.32,-0.0002658926229701902
3968.22,-0.00023747944194748148
3969.12,-0.00021782121906029298
3970.02,-0.000209739119709259
3970.92,-0.00021939483455255787
3971.82,-0.00024127441794099007
3972.72,-0.0002758108919833255
3973.62,-0.00031407908795199404
3974.52,-0.00035577381199862305
3975.42,-0.00039805886753551084
3976.32,-0.00043349052021844886
3977.22,-0.00046708036024585895
3978.13,-0.0004984917379442047
3979.03,-0.0005267388981497749
3979.93,-0.0005499729169375613
3980.83,-0.0005678423189145016
3981.73,-0.0005803050522276818
3982.63,-0.0005948324657207369
3983.53,-0.0006040005776973727
3984.43,-0.0006149918077736937
3985.33,-0.0006247873810460273
3986.23,-0.0006342574692479873
3987.13,-0.0006458651844284187
3988.03,-0.0006584263383110623
3988.93,-0.000668058246108314
3989.83,-0.0006790415825209523
3990.73,-0.0006896863594028689
3991.63,-0.0006993184258659699
3992.53,-0.0007093120241233597
3993.43,-0.0007162045863485488
3994.33,-0.0007220145171212363
3995.23,-0.0007238111854618666
3996.13,-0.0007235684452150956
3997.03,-0.0007248048518278797
3997.93,-0.0007239549243478293
3998.83,-0.0007322966860101601
3999.73,-0.0007405675433941644
4000.63,-0.0007539048827854607
4001.53,-0.0007683961936612929
4002.43,-0.0007788851107166727
4003.33,-0.0007825390624974617
4004.23,-0.0007849695068705609
4005.13,-0.0007817811214994098
4006.03,-0.0007825909106003817
4006.93,-0.0007868938337227105
4007.83,-0.0007932767971997483
4008.73,-0.0008043320216936409
4009.63,-0.000815665038418093
4010.53,-0.0008329291809552473
4011.43,-0.0008442957628588538
4012.33,-0.0008551589967470609
4013.23,-0.000863618739608753
4014.13,-0.0008694279018617466
4015.03,-0.0008743862759602875
4015.93,-0.0008781661228232613
4016.84,-0.0008874842964908163
4017.74,-0.0008925000304140365
4018.64,-0.0009068316732248366
4019.54,-0.0009141749333360203
4020.44,-0.0009223353725005683
4021.34,-0.0009300038308892495
4022.24,-0.0009333655151403578
4023.14,-0.000942710337019997
4024.04,-0.0009454724299114056
4024.94,-0.0009559457541196989
4025.84,-0.0009581776638735905
4026.74,-0.0009695250535581795
4027.64,-0.0009813752449949406
4028.54,-0.0009839508336432644
4029.44,-0.0009874834775563284
4030.34,-0.0009769547487423163
4031.24,-0.0009662331272107903
4032.14,-0.000957535200362836
4033.04,-0.000958289622009117
4033.94,-0.0009613022557018103
4034.84,-0.0009813747685362814
4035.74,-0.0010048170200082662
4036.64,-0.0010250120563510664
4037.54,-0.0010494916456134681
4038.44,-0.0010745693169583442
4039.34,-0.0010878195697494267
4040.24,-0.0010936395252523021
4041.14,-0.001096172943236895
4042.04,-0.001095315947950428
4042.94,-0.0010860627103134873
4043.84,-0.0010738443219834486
4044.74,-0.001065849765334099
4045.64,-0.001058015805572771
4046.54,-0.001058429966723039
4047.44,-0.0010649708612749237
4048.34,-0.001093142199222375
4049.24,-0.0011131069668943
4050.14,-0.0011356536227317363
4051.04,-0.0011623995572038574
4051.94,-0.0011706900368917488
4052.84,-0.0011761147434143642
4053.74,-0.0011743705878826966
4054.65,-0.0011738009539271905
4055.55,-0.001179469087423644
4056.45,-0.0011771331284838994
4057.35,-0.001181207712358468
4058.25,-0.0011930118069718122
4059.15,-0.001196452409040832
4060.05,-0.0012108360982576163
4060.95,-0.0012159525199061112
4061.85,-0.0012243163038459669
4062.75,-0.0012200412158935644
4063.65,-0.0012162775580998359
4064.55,-0.0012153054771677583
4065.45,-0.0012151001713712906
4066.35,-0.0012280126954513988
4067.25,-0.001245004488307391
4068.15,-0.0012675528685569231
4069.05,-0.0012881516533860373
4069.95,-0.0012983912255078356
4070.85,-0.0013066662979710941
4071.75,-0.0013123712602228837
4072.65,-0.0013168243766382667
4073.55,-0.001314281552091462
4074.45,-0.00131443254001019
4075.35,-0.0013109570356145581
4076.25,-0.0013065039221462555
4077.15,-0.001298628881572119
4078.05,-0.0012939446553410314
4078.95,-0.0012984790643774191
4079.85,-0.0013184020881337826
4080.75,-0.0013431069852323455
4081.65,-0.0013684064617956447
4082.55,-0.0013927526299132285
4083.45,-0.0014121886431310644
4084.35,-0.0014270228651179734
4085.25,-0.0014382514708985502
4086.15,-0.0014494991769941233
4087.05,-0.0014674813104068637
4087.95,-0.0014885045268637701
4088.85,-0.0015069195963092906
4089.75,-0.0015211028307795557
4090.65,-0.0015381418436910023
4091.55,-0.0015394732097259649
4092.45,-0.0015308294647066623
4093.36,-0.0015145063434844302
4094.26,-0.0014989399950109871
4095.16,-0.0014834543994278022
4096.06,-0.0014593717605661982
4096.96,-0.00142805408199501
4097.86,-0.0013840266411148912
4098.76,-0.0013285293082126066
4099.66,-0.0012767343026980715
4100.56,-0.0012235545591534832
4101.46,-0.0011790633600864138
4102.36,-0.0011606000489108755
4103.26,-0.0011632939738328092
4104.16,-0.001201244325202596
4105.06,-0.0012646997241556642
4105.96,-0.0013354575975542552
4106.86,-0.0014118749643378952
4107.76,-0.001481209805235683
4108.66,-0.0015397565659157047
4109.56,-0.0015857256235115853
4110.46,-0.0016214450221780313
4111.36,-0.0016574183477730282
4112.26,-0.0016968411111451713
4113.16,-0.0017298062010113926
4114.06,-0.0017661854783266229
4114.96,-0.0018053898026699673
4115.86,-0.0018368811305838402
4116.76,-0.0018627946101970269
4117.66,-0.001877747434009545
4118.56,-0.001885807697615332
4119.46,-0.0018951316601548609
4120.36,-0.0019017165831323867
4121.26,-0.0019100118180934043
4122.16,-0.0019362707599922026
4123.06,-0.0019547305162552
4123.96,-0.0019760680219094635
4124.86,-0.0020035955601878353
4125.76,-0.0020259674002431225
4126.66,-0.0020350545387656026
4127.56,-0.002055868511600214
4128.46,-0.0020677720212644323
4129.36,-0.0020763095628677374
4130.26,-0.002082711994508838
4131.17,-0.002083303304056213
4132.06,-0.002087364629976756
4132.97,-0.002092421517117035
4133.87,-0.0021072041955794893
4134.77,-0.0021291602535425023
4135.67,-0.002173476416105232
4136.57,-0.0022124151268429074
4137.47,-0.0022626484021253846
4138.37,-0.0023064629616379967
4139.27,-0.0023453568541790186
4140.17,-0.002366208651073185
4141.07,-0.002370117703084512
4141.97,-0.002360031080511851
4142.87,-0.0023444172041828673
4143.77,-0.002344652421918967
4144.67,-0.00234595610609435
4145.57,-0.002366744864202373
4146.47,-0.0023978535753195144
4147.37,-0.0024396429454606613
4148.27,-0.002474579717009824
4149.17,-0.0024989213277814156
4150.07,-0.002519551105233042
4150.97,-0.002552654334009187
4151.87,-0.0025521829549567557
4152.77,-0.0025625633240662703
4153.67,-0.0025779660118855664
4154.57,-0.0025893638246951294
4155.47,-0.0025961107071279205
4156.37,-0.0026236696828875828
4157.27,-0.0026504462665298853
4158.17,-0.0026816495573929286
4159.07,-0.0027308159701335145
4159.97,-0.002764191986602328
4160.87,-0.002815399023115732
4161.77,-0.0028458774772855537
4162.67,-0.002877467679634317
4163.57,-0.0029075271566864386
4164.47,-0.0029387013740537183
4165.37,-0.0029502683566675204
4166.27,-0.002970802864842834
4167.17,-0.002978020858878021
4168.07,-0.002991096745447176
4168.98,-0.0029905274896169956
4169.88,-0.0030033378120542112
4170.78,-0.002975879542253051
4171.68,-0.0029784686694575967
4172.58,-0.002942397238341635
4173.48,-0.0029363963605281425
4174.38,-0.0029414670138362556
4175.28,-0.002960764044653702
4176.18,-0.00298417125273494
4177.08,-0.003030410902455982
4177.98,-0.003086553222335191
4178.88,-0.003131088053234013
4179.78,-0.0031840527281032853
4180.68,-0.003210972760096271
4181.58,-0.0032466839851007416
4182.48,-0.0033017366610805596
4183.38,-0.0033220502748058382
4184.28,-0.003352075453797153
4185.18,-0.00338722098885669
4186.08,-0.0034175877573334214
4186.98,-0.0034262482396725464
4187.88,-0.003449733811051368
4188.78,-0.003462045036078939
4189.68,-0.0035148643959758423
4190.58,-0.003563847863282904
4191.48,-0.0036182705625128347
4192.38,-0.003655614263483672
4193.28,-0.003701544258133183
4194.18,-0.0037580672889337458
4195.08,-0.003759621656178157
4195.98,-0.0037612567037666627
4196.88,-0.003732210241263363
4197.78,-0.00373869151052891
4198.68,-0.003716490119260991
4199.58,-0.0037290950254612195
4200.48,-0.0037436753061391593
4201.38,-0.0037468054143965012
4202.28,-0.003797107809260028
4203.18,-0.0038473911964290266
4204.08,-0.00389419666130583
4204.98,-0.003967112818088753
4205.88,-0.004019954933863605
4206.79,-0.004087954768571345
4207.69,-0.004158727631572106
4208.59,-0.00423417195123135
4209.49,-0.0042779975106424775
4210.39,-0.004333042362171842
4211.29,-0.004366341007811346
4212.19,-0.00442147237755782
4213.09,-0.004424976486394753
4213.99,-0.0044495563352407504
4214.89,-0.00443263297763685
4215.79,-0.0044357792007265985
4216.69,-0.004459104394208453
4217.59,-0.004519444370072751
4218.49,-0.004560848043443286
4219.39,-0.004629245063642706
4220.29,-0.00469655607429117
4221.19,-0.004768178938871229
4222.09,-0.004774203018216962
4222.99,-0.004766814674092266
4223.89,-0.004710631886042869
4224.79,-0.00462869687123995
4225.69,-0.004543384932474899
4226.59,-0.004485801302101094
4227.49,-0.004495873907734324
4228.39,-0.004574360544444781
4229.29,-0.004686674453418533
4230.19,-0.0048436933037602214
4231.09,-0.0049767184643215116
4231.99,-0.005114259562467063
4232.89,-0.005183654929315395
4233.79,-0.005234001803465746
4234.69,-0.005241069884140467
4235.59,-0.005284405353012675
4236.49,-0.005291000183858256
4237.39,-0.005331025885630587
4238.29,-0.005350916388668516
4239.19,-0.005422591878568163
4240.09,-0.005501067725063372
4240.99,-0.005596823578810658
4241.89,-0.0056889846807412605
4242.79,-0.005752215659546106
4243.69,-0.005848547891708186
4244.59,-0.005907072782153036
4245.5,-0.005941858111912874
4246.4,-0.005953839374916278
4247.3,-0.005950057989182568
4248.2,-0.005947745168044495
4249.1,-0.005958413605261153
4250.0,-0.006001763656054216
4250.9,-0.0060441803465592706
4251.8,-0.006106871561434621
4252.7,-0.006196580943888701
4253.6,-0.006299564362859843
4254.5,-0.006370518308043798
4255.4,-0.0064659017090717774
4256.3,-0.006537603928496451
4257.2,-0.006570832263786565
4258.1,-0.006622940470720305
4259.0,-0.0066493345093053356
4259.9,-0.006691122396147573
4260.8,-0.006702095754525051
4261.7,-0.006776214752004465
4262.6,-0.006893276206352263
4263.5,-0.007022090710751465
4264.4,-0.007178512629395911
4265.3,-0.007312267799014699
4266.2,-0.007420564582702689
4267.1,-0.007465743948377404
4268.0,-0.007465050373677431
4268.9,-0.007450562233116918
4269.8,-0.007391834300688697
4270.7,-0.007320805829229668
4271.6,-0.007250129298960864
4272.5,-0.007227326029178514
4273.4,-0.007257662908530195
4274.3,-0.007298356397333774
4275.2,-0.007436053005588494
4276.1,-0.00757868761895243
4277.0,-0.0077805779562823175
4277.9,-0.007943743237468178
4278.8,-0.0080897964821255
4279.7,-0.008194009856144673
4280.6,-0.008265746612293349
4281.5,-0.008313697520464076
4282.4,-0.008352403714761902
4283.31,-0.00838305955237831
