wave,flux
3700.85,-4.7531035274914584e-07
3701.75,-4.6986745816948277e-07
3702.65,-4.568321791249701e-07
3703.55,-4.3610709743983516e-07
3704.45,-4.1277700918611016e-07
3705.35,-3.921615097435843e-07
3706.25,-3.793355751011319e-07
3707.15,-3.744595300611014e-07
3708.05,-3.755828272470479e-07
3708.96,-3.8201038390030754e-07
3709.86,-3.923180306310377e-07
3710.76,-4.050098175983621e-07
3711.66,-4.2233562872044004e-07
3712.56,-4.415631950623924e-07
3713.46,-4.6080898051387664e-07
3714.36,-4.762300398550619e-07
3715.26,-4.893484557224859e-07
3716.16,-4.921768274912121e-07
3717.06,-4.85486579987615e-07
3717.96,-4.695032088144759e-07
3718.86,-4.4435889787141893e-07
3719.76,-4.1532190892608735e-07
3720.66,-3.8588727211632454e-07
3721.56,-3.6544659490338643e-07
3722.46,-3.613304991967876e-07
3723.36,-3.704460901804048e-07
3724.26,-3.917559440349258e-07
3725.16,-4.1495075649562474e-07
3726.06,-4.365114375796327e-07
3726.96,-4.493158987332659e-07
3727.86,-4.563169990690479e-07
3728.76,-4.5756261263956877e-07
3729.66,-4.5243471382156455e-07
3730.56,-4.429957087300082e-07
3731.46,-4.288210217584555e-07
3732.36,-4.0369636426046876e-07
3733.26,-3.754390345506105e-07
3734.16,-3.472426461729841e-07
3735.06,-3.2817966980161926e-07
3735.96,-3.1865756591806887e-07
3736.86,-3.281257212309716e-07
3737.76,-3.4702681492201155e-07
3738.66,-3.7778621753460324e-07
3739.56,-4.0824790676983415e-07
3740.46,-4.3736910174517906e-07
3741.36,-4.5365869241139974e-07
3742.26,-4.5961949396823457e-07
3743.16,-4.5487023542268157e-07
3744.06,-4.398004959047307e-07
3744.96,-4.2034012700048006e-07
3745.86,-3.994426798438174e-07
3746.76,-3.784108753281308e-07
3747.67,-3.573286591347498e-07
3748.57,-3.419735613305664e-07
3749.47,-3.33642437179872e-07
3750.37,-3.361421168662848e-07
3751.27,-3.53843894317809e-07
3752.17,-3.8430735116826945e-07
3753.07,-4.1941853734416946e-07
3753.97,-4.5415364106249097e-07
3754.87,-4.819586411796216e-07
3755.77,-4.973302125112554e-07
3756.67,-4.989969241805693e-07
3757.57,-4.873784668837237e-07
3758.47,-4.7397647890702003e-07
3759.37,-4.602561891969482e-07
3760.27,-4.528867236569747e-07
3761.17,-4.5636851755742574e-07
3762.07,-4.629843173566222e-07
3762.97,-4.68988794683057e-07
3763.87,-4.773991071850278e-07
3764.77,-4.7582363061825355e-07
3765.67,-4.758393241592717e-07
3766.57,-4.6899477962122195e-07
3767.47,-4.6133084860405283e-07
3768.37,-4.542132028577295e-07
3769.27,-4.4480617462880286e-07
3770.17,-4.40632117927891e-07
3771.07,-4.438368278446003e-07
3771.97,-4.530508651511889e-07
3772.87,-4.6882015252700585e-07
3773.77,-4.868543296449257e-07
3774.67,-5.063634320346899e-07
3775.57,-5.211101635038301e-07
3776.47,-5.349028573918379e-07
3777.37,-5.474894800741254e-07
3778.27,-5.615464105016447e-07
3779.17,-5.760114279166257e-07
3780.07,-5.932866320362775e-07
3780.97,-6.010632565204353e-07
3781.87,-6.117599611447081e-07
3782.77,-6.182456736585393e-07
3783.67,-6.210110196011865e-07
3784.57,-6.137650846011677e-07
3785.47,-5.996492208625869e-07
3786.38,-5.807145221309502e-07
3787.28,-5.598079660020536e-07
3788.18,-5.406451803935894e-07
3789.08,-5.278240588168054e-07
3789.98,-5.170171042063898e-07
3790.88,-5.10555782964871e-07
3791.78,-5.048585120154448e-07
3792.68,-4.994376931334627e-07
3793.58,-4.867732844070861e-07
3794.48,-4.695522382246875e-07
3795.38,-4.511823434274929e-07
3796.28,-4.322536487277211e-07
3797.18,-4.1242544053728864e-07
3798.08,-4.035623013365603e-07
3798.98,-4.035529327490632e-07
3799.88,-4.1667328637774323e-07
3800.78,-4.40269294489652e-07
3801.68,-4.7535756519329683e-07
3802.58,-5.096903950599621e-07
3803.48,-5.413709722857114e-07
3804.38,-5.627380611366364e-07
3805.28,-5.791159876868742e-07
3806.18,-5.846204919523474e-07
3807.08,-5.90751308412652e-07
3807.98,-5.934120720173675e-07
3808.88,-5.987374140278408e-07
3809.78,-6.08538227531785e-07
3810.68,-6.139205390435755e-07
3811.58,-6.126868010192996e-07
3812.48,-6.032860494693268e-07
3813.38,-5.86868412506346e-07
3814.28,-5.676252161530523e-07
3815.18,-5.48813086635508e-07
3816.08,-5.437269095796928e-07
3816.98,-5.338383257419819e-07
3817.88,-5.362447900886442e-07
3818.78,-5.374418942147557e-07
3819.68,-5.298271447154678e-07
3820.58,-5.26452779673461e-07
3821.48,-5.212990589352734e-07
3822.38,-5.148656577819787e-07
3823.28,-5.086117795725514e-07
3824.18,-4.989476224467387e-07
3825.09,-4.846651257251568e-07
3825.99,-4.704036952472606e-07
3826.89,-4.5719956924760707e-07
3827.79,-4.477144823842851e-07
3828.69,-4.416609639465815e-07
3829.59,-4.352281424642406e-07
3830.49,-4.2906397573746153e-07
3831.39,-4.1618193162598093e-07
3832.29,-3.995860618139484e-07
3833.19,-3.8223861442541554e-07
3834.09,-3.6500016294197873e-07
3834.99,-3.535446687239134e-07
3835.89,-3.4829358971940705e-07
3836.79,-3.4836364327419913e-07
3837.69,-3.562959256260301e-07
3838.59,-3.680799168027706e-07
3839.49,-3.8528376250932087e-07
3840.39,-4.0662895486403396e-07
3841.29,-4.366131447546469e-07
3842.19,-4.6649200804952186e-07
3843.09,-4.996227827231273e-07
3843.99,-5.299153570725357e-07
3844.89,-5.49886980948713e-07
3845.79,-5.716404466241117e-07
3846.69,-5.845183011749743e-07
3847.59,-5.948672882701431e-07
3848.49,-5.991615453037099e-07
3849.39,-6.088984139116951e-07
3850.29,-6.102061756626984e-07
3851.19,-6.163699413346099e-07
3852.09,-6.15265866146067e-07
3852.99,-6.211396774710803e-07
3853.89,-6.208094448832278e-07
3854.79,-6.163255016776004e-07
3855.69,-6.089180045710534e-07
3856.59,-5.97786502169391e-07
3857.49,-5.875355554984555e-07
3858.39,-5.742703312650915e-07
3859.29,-5.708770150946725e-07
3860.19,-5.691400996241306e-07
3861.09,-5.757764676459965e-07
3861.99,-5.92149199466307e-07
3862.9,-6.110228551931721e-07
3863.8,-6.27983425389007e-07
3864.7,-6.40652812531018e-07
3865.6,-6.488374274363706e-07
3866.5,-6.49268472860329e-07
3867.4,-6.455482123622573e-07
3868.3,-6.387405452581575e-07
3869.2,-6.317922674200271e-07
3870.1,-6.200103836290964e-07
3871.0,-6.098878521309136e-07
3871.9,-5.978255920476218e-07
3872.8,-5.910688632431016e-07
3873.7,-5.877446884608999e-07
3874.6,-5.936956721782414e-07
3875.5,-5.967746740331501e-07
3876.4,-6.013474704451887e-07
3877.3,-6.020839738475507e-07
3878.2,-5.948127805932409e-07
3879.1,-5.855192105387132e-07
3880.0,-5.838626511799956e-07
3880.9,-5.775318916439733e-07
3881.8,-5.741087034397614e-07
3882.7,-5.680894633134324e-07
3883.6,-5.606703259858721e-07
3884.5,-5.468629860515391e-07
3885.4,-5.275400545676327e-07
3886.3,-5.054708787173296e-07
3887.2,-4.84735684200011e-07
3888.1,-4.670120128097963e-07
3889.0,-4.586931878504196e-07
3889.9,-4.6142624393113506e-07
3890.8,-4.774423802881176e-07
3891.7,-5.036050110117731e-07
3892.6,-5.314597396481475e-07
3893.5,-5.581686439310046e-07
3894.4,-5.784873888791804e-07
3895.3,-5.983186579708448e-07
3896.2,-6.09559850555863e-07
3897.1,-6.22116531334777e-07
3898.0,-6.323475582396249e-07
3898.9,-6.397387353540544e-07
3899.8,-6.492324000240848e-07
3900.7,-6.535434636637096e-07
3901.6,-6.588426198189292e-07
3902.51,-6.626102349326068e-07
3903.41,-6.588019074613639e-07
3904.31,-6.574632357231256e-07
3905.21,-6.530933354460467e-07
3906.11,-6.530531921853323e-07
3907.01,-6.597819625354951e-07
3907.91,-6.735831263883907e-07
3908.81,-6.937924085322811e-07
3909.71,-7.106920662193641e-07
3910.61,-7.3382706507872e-07
3911.51,-7.430789600369836e-07
3912.41,-7.51222513745753e-07
3913.31,-7.548765491835607e-07
3914.21,-7.556141106182807e-07
3915.11,-7.45186116161073e-07
3916.01,-7.376090276565512e-07
3916.91,-7.307070067140151e-07
3917.81,-7.161221708465038e-07
3918.71,-7.038319723051417e-07
3919.61,-6.929015664670383e-07
3920.51,-6.799123211152473e-07
3921.41,-6.704010997888876e-07
3922.31,-6.640886695602983e-07
3923.21,-6.608489928327517e-07
3924.11,-6.527781789806594e-07
3925.01,-6.428954830976914e-07
3925.91,-6.241967639670884e-07
3926.81,-5.963478298257933e-07
3927.71,-5.575992359535335e-07
3928.61,-5.103442107531528e-07
3929.51,-4.603810684592744e-07
3930.41,-4.0723616153223594e-07
3931.31,-3.553141933494037e-07
3932.21,-3.0960062972890814e-07
3933.11,-2.7206078749887267e-07
3934.01,-2.5193963721676724e-07
3934.91,-2.472953519459211e-07
3935.81,-2.641093095103922e-07
3936.71,-2.973776326905482e-07
3937.61,-3.4417167026899814e-07
3938.51,-3.972620434843442e-07
3939.42,-4.5025970627058505e-07
3940.32,-5.021939017064083e-07
3941.22,-5.401406373083068e-07
3942.12,-5.710994042225751e-07
3943.02,-5.944798707502071e-07
3943.92,-6.116396241504329e-07
3944.82,-6.286141061804961e-07
3945.72,-6.516981241966333e-07
3946.62,-6.68464301099077e-07
3947.52,-6.897099241392047e-07
3948.42,-7.052358727767606e-07
3949.32,-7.209884288862549e-07
3950.22,-7.303658172417023e-07
3951.12,-7.402563684426028e-07
3952.02,-7.468277450200699e-07
3952.92,-7.501700346049225e-07
3953.82,-7.5590620100609e-07
3954.72,-7.521309250872499e-07
3955.62,-7.545090370212593e-07
3956.52,-7.478106233864184e-07
3957.42,-7.417383830055406e-07
3958.32,-7.328150604737583e-07
3959.22,-7.198318771718673e-07
3960.12,-7.024168783274948e-07
3961.02,-6.731990717859819e-07
3961.92,-6.372630300123948e-07
3962.82,-5.941279092758871e-07
3963.72,-5.512332475600837e-07
3964.62,-5.03165960919648e-07
3965.52,-4.5408154756256577e-07
3966.42,-4.0405790126072065e-07
3967.32,-3.5492908776550474e-07
3968.22,-3.1360660848154923e-07
3969.12,-2.8917124722631673e-07
3970.02,-2.833707169862726e-07
3970.92,-2.983036112608832e-07
3971.82,-3.3043922867976257e-07
3972.72,-3.768221197920939e-07
3973.62,-4.3036163687619036e-07
3974.52,-4.879259991752218e-07
3975.42,-5.399806049560908e-07
3976.32,-5.913585108723009e-07
3977.22,-6.375103194864367e-07
3978.13,-6.826942173230129e-07
3979.03,-7.191095834254637e-07
3979.93,-7.54325072657365e-07
3980.83,-7.806614063680516e-07
3981.73,-7.956143975024794e-07
3982.63,-8.058577765700369e-07
3983.53,-8.110292650556036e-07
3984.43,-8.160250133035865e-07
3985.33,-8.271992009813392e-07
3986.23,-8.385997086721782e-07
3987.13,-8.489084919008559e-07
3988.03,-8.645569685523824e-07
3988.93,-8.690045944281682e-07
3989.83,-8.83047334917326e-07
3990.73,-8.885122953908078e-07
3991.63,-9.007148750719635e-07
3992.53,-9.028073498674244e-07
3993.43,-9.119548742290861e-07
3994.33,-9.124828844525271e-07
3995.23,-9.070267471913639e-07
3996.13,-9.046795466595914e-07
3997.03,-8.980802513446664e-07
3997.93,-8.93239129945465e-07
3998.83,-8.985044170963949e-07
3999.73,-9.120675093223369e-07
4000.63,-9.267213675224716e-07
4001.53,-9.382437681410748e-07
4002.43,-9.474004736003012e-07
4003.33,-9.506640073829724e-07
4004.23,-9.397948003620391e-07
4005.13,-9.273296373979373e-07
4006.03,-9.161012165136265e-07
4006.93,-9.111617606675192e-07
4007.83,-9.163613532720375e-07
4008.73,-9.247104727422405e-07
4009.63,-9.436227366760651e-07
4010.53,-9.597406205130293e-07
4011.43,-9.645806373398012e-07
4012.33,-9.824612111576425e-07
4013.23,-9.84238874309113e-07
4014.13,-9.884779551925722e-07
4015.03,-9.958643643370687e-07
4015.93,-9.95597791989907e-07
4016.84,-9.98252646107584e-07
4017.74,-9.967949159423883e-07
4018.64,-1.0047256650730008e-06
4019.54,-1.0127560239221558e-06
4020.44,-1.015573255498863e-06
4021.34,-1.0103219391176613e-06
4022.24,-1.0174804867780897e-06
4023.14,-1.0159000546853952e-06
4024.04,-1.0127309311897681e-06
4024.94,-1.0150648501726831e-06
4025.84,-1.0168230864275346e-06
4026.74,-1.0247485877285469e-06
4027.64,-1.0243679273047873e-06
4028.54,-1.0269341164683603e-06
4029.44,-1.0100745612228027e-06
4030.34,-9.94195597768372e-07
4031.24,-9.696097895697324e-07
4032.14,-9.484976931200949e-07
4033.04,-9.329667058213213e-07
4033.94,-9.304998347440284e-07
4034.84,-9.441674016993806e-07
4035.74,-9.680088097427708e-07
4036.64,-9.967135573476304e-07
4037.54,-1.0287963886488042e-06
4038.44,-1.0473478824768435e-06
4039.34,-1.0629953789215257e-06
4040.24,-1.0668844976344843e-06
4041.14,-1.0584581633771184e-06
4042.04,-1.0430512819464395e-06
4042.94,-1.024358512251325e-06
4043.84,-9.97427528219174e-07
4044.74,-9.736188185239036e-07
4045.64,-9.528318129384067e-07
4046.54,-9.435198666061278e-07
4047.44,-9.473844738196948e-07
4048.34,-9.742647203143414e-07
4049.24,-9.978520758406702e-07
4050.14,-1.0217700267673043e-06
4051.04,-1.0469671512084542e-06
4051.94,-1.053791468284305e-06
4052.84,-1.0444204495281596e-06
4053.74,-1.033328876265195e-06
4054.65,-1.024969538007933e-06
4055.55,-1.007237339230059e-06
4056.45,-9.96829609732034e-07
4057.35,-9.931239802269583e-07
4058.25,-9.948294127339424e-07
4059.15,-9.96115028880772e-07
4060.05,-9.982479283361266e-07
4060.95,-9.982460496637072e-07
4061.85,-9.908865375023508e-07
4062.75,-9.861230626787931e-07
4063.65,-9.74827515576358e-07
4064.55,-9.648063597685328e-07
4065.45,-9.685508975362987e-07
4066.35,-9.693450262165938e-07
4067.25,-9.8554400703822e-07
4068.15,-1.003030203967545e-06
4069.05,-1.0143713044006456e-06
4069.95,-1.0269252391201773e-06
4070.85,-1.0259074980861052e-06
4071.75,-1.0202233606848132e-06
4072.65,-1.0200301484705226e-06
4073.55,-1.0139216393092987e-06
4074.45,-1.0081621742977881e-06
4075.35,-9.946334089695432e-07
4076.25,-9.807609762958685e-07
4077.15,-9.665892355389196e-07
4078.05,-9.625283380013186e-07
4078.95,-9.62772629516843e-07
4079.85,-9.714024075689752e-07
4080.75,-9.993151152776534e-07
4081.65,-1.0188561931819885e-06
4082.55,-1.039049509784699e-06
4083.45,-1.0483534742412398e-06
4084.35,-1.0543635082692176e-06
4085.25,-1.0567272218716233e-06
4086.15,-1.0643797817759327e-06
4087.05,-1.0747257404168832e-06
4087.95,-1.0871310172935597e-06
4088.85,-1.1025422984961334e-06
4089.75,-1.1114827264106031e-06
4090.65,-1.1170601270301253e-06
4091.55,-1.109829967540801e-06
4092.45,-1.101203012749824e-06
4093.36,-1.0869906753496479e-06
4094.26,-1.071584360266117e-06
4095.16,-1.0455211259930551e-06
4096.06,-1.0191524397399657e-06
4096.96,-9.922691655145703e-07
4097.86,-9.597034490930983e-07
4098.76,-9.189807265056781e-07
4099.66,-8.833550319830264e-07
4100.56,-8.44151333804694e-07
4101.46,-8.154766214176757e-07
4102.36,-8.000387065519176e-07
4103.26,-8.026297440448134e-07
4104.16,-8.227889183880971e-07
4105.06,-8.576254068333461e-07
4105.96,-8.970157525198886e-07
4106.86,-9.413941663852511e-07
4107.76,-9.729325224201587e-07
4108.66,-9.98952983676849e-07
4109.56,-1.02007289413443e-06
4110.46,-1.0299374269730006e-06
4111.36,-1.0408545872575935e-06
4112.26,-1.0525921229676217e-06
4113.16,-1.070498646993383e-06
4114.06,-1.0871660718464762e-06
4114.96,-1.098909552952729e-06
4115.86,-1.1139582257854941e-06
4116.76,-1.1191287566022573e-06
4117.66,-1.1156466754632622e-06
4118.56,-1.1142890292517024e-06
4119.46,-1.109797921833335e-06
4120.36,-1.1024253196036648e-06
4121.26,-1.1009771206643444e-06
4122.16,-1.0974801044101297e-06
4123.06,-1.1036162302469837e-06
4123.96,-1.1082146762360352e-06
4124.86,-1.1141568698289386e-06
4125.76,-1.1213273496277045e-06
4126.66,-1.1200753047154725e-06
4127.56,-1.1149449161235626e-06
4128.46,-1.1044164354082766e-06
4129.36,-1.1033574795473943e-06
4130.26,-1.0944748775854362e-06
4131.17,-1.0859220902702742e-06
4132.06,-1.0698048363135058e-06
4132.97,-1.0699433975183678e-06
4133.87,-1.0701180112772522e-06
4134.77,-1.0812368832160205e-06
4135.67,-1.1008223886666404e-06
4136.57,-1.1201312374156742e-06
4137.47,-1.1441432099552943e-06
4138.37,-1.1588836095187545e-06
4139.27,-1.1752265119042118e-06
4140.17,-1.1796216045369409e-06
4141.07,-1.1695581295759191e-06
4141.97,-1.1557811592863433e-06
4142.87,-1.1275305763665018e-06
4143.77,-1.1086692147735952e-06
4144.67,-1.1013689343901765e-06
4145.57,-1.1027611178247017e-06
4146.47,-1.1149220782113567e-06
4147.37,-1.131798162563282e-06
4148.27,-1.1374781242175244e-06
4149.17,-1.1462046356757035e-06
4150.07,-1.146319737909539e-06
4150.97,-1.14582084646876e-06
4151.87,-1.1358897721749984e-06
4152.77,-1.1352304841722348e-06
4153.67,-1.1257600163123937e-06
4154.57,-1.1239794504659807e-06
4155.47,-1.1212823374734304e-06
4156.37,-1.1252423001348692e-06
4157.27,-1.129925545054007e-06
4158.17,-1.138177777859863e-06
4159.07,-1.1538211388486077e-06
4159.97,-1.1662982635641596e-06
4160.87,-1.1892395872463436e-06
4161.77,-1.1994406796332897e-06
4162.67,-1.2110026683905293e-06
4163.57,-1.2205966079346162e-06
4164.47,-1.220797390887881e-06
4165.37,-1.2230411938908504e-06
4166.27,-1.2170812989614596e-06
4167.17,-1.2067639522806332e-06
4168.07,-1.1941009190124143e-06
4168.98,-1.1843773026903967e-06
4169.88,-1.17404463437486e-06
4170.78,-1.1596547088865501e-06
4171.68,-1.1369548204497579e-06
4172.58,-1.1246083094070063e-06
4173.48,-1.1041910161686165e-06
4174.38,-1.095234235475519e-06
4175.28,-1.0920531944835052e-06
4176.18,-1.100010926823288e-06
4177.08,-1.1118202095898534e-06
4177.98,-1.123272882457264e-06
4178.88,-1.1322939753627073e-06
4179.78,-1.1415598068506336e-06
4180.68,-1.1517299491184989e-06
4181.58,-1.1596870222007557e-06
4182.48,-1.1658307242447044e-06
4183.38,-1.1678936509124822e-06
4184.28,-1.1795256008616523e-06
4185.18,-1.181069507623845e-06
4186.08,-1.1795056202005701e-06
4186.98,-1.1818417495390388e-06
4187.88,-1.183262084622014e-06
4188.78,-1.1823321765952868e-06
4189.68,-1.1902031445314554e-06
4190.58,-1.1989340965871203e-06
4191.48,-1.211630293839239e-06
4192.38,-1.2265837164464273e-06
4193.28,-1.2292073607499162e-06
4194.18,-1.2298034855716372e-06
4195.08,-1.2221103331730751e-06
4195.98,-1.2138341160917735e-06
4196.88,-1.1901411784443411e-06
4197.78,-1.1720292887574013e-06
4198.68,-1.1543717552189689e-06
4199.58,-1.147906528380872e-06
4200.48,-1.141013279255756e-06
4201.38,-1.1340277450367841e-06
4202.28,-1.1488498208164697e-06
4203.18,-1.1580640469496076e-06
4204.08,-1.172807492739169e-06
4204.98,-1.1904680128060491e-06
4205.88,-1.207381058314058e-06
4206.79,-1.226295904951199e-06
4207.69,-1.2476876386699804e-06
4208.59,-1.2581467617763889e-06
4209.49,-1.270064138656306e-06
4210.39,-1.27980499786058e-06
4211.29,-1.2785050805073987e-06
4212.19,-1.2780934931867302e-06
4213.09,-1.26875224871318e-06
4213.99,-1.266041442090945e-06
4214.89,-1.2553521947520334e-06
4215.79,-1.2498027253692946e-06
4216.69,-1.2447685207304368e-06
4217.59,-1.2503316819121242e-06
4218.49,-1.2681350999987191e-06
4219.39,-1.2812134621357578e-06
4220.29,-1.2977311274045027e-06
4221.19,-1.3057495863282157e-06
4222.09,-1.2976586989238114e-06
4222.99,-1.273118411542023e-06
4223.89,-1.2338600813179026e-06
4224.79,-1.1924479543589468e-06
4225.69,-1.1424588860293844e-06
4226.59,-1.1038032730661942e-06
4227.49,-1.0948166910028388e-06
4228.39,-1.1061608122451824e-06
4229.29,-1.136158781878392e-06
4230.19,-1.1771063111845262e-06
4231.09,-1.222473674462101e-06
4231.99,-1.2584927093388507e-06
4232.89,-1.2710183192672072e-06
4233.79,-1.2716934572298446e-06
4234.69,-1.2725840791271922e-06
4235.59,-1.257001160551074e-06
4236.49,-1.250332132157857e-06
4237.39,-1.246103316592569e-06
4238.29,-1.2439980374986621e-06
4239.19,-1.2553196718773304e-06
4240.09,-1.2665276506266407e-06
4240.99,-1.2813316088030537e-06
4241.89,-1.2945647873363927e-06
4242.79,-1.3149054527208597e-06
4243.69,-1.3309942023861295e-06
4244.59,-1.3415403851359923e-06
4245.5,-1.3394388988767586e-06
4246.4,-1.334157025604596e-06
4247.3,-1.3239821209039731e-06
4248.2,-1.3036037634783e-06
4249.1,-1.2814348115505275e-06
4250.0,-1.2725410917100361e-06
4250.9,-1.2691592702199816e-06
4251.8,-1.2726214513448592e-06
4252.7,-1.2717823351194065e-06
4253.6,-1.281540856252049e-06
4254.5,-1.2904657320655986e-06
4255.4,-1.2925282144312676e-06
4256.3,-1.3000476245666794e-06
4257.2,-1.303583111988224e-06
4258.1,-1.302708689406811e-06
4259.0,-1.2972453278684625e-06
4259.9,-1.285326340293123e-06
4260.8,-1.2839018997724194e-06
4261.7,-1.289733753714792e-06
4262.6,-1.306893540221453e-06
4263.5,-1.3309449764012166e-06
4264.4,-1.3606302382107328e-06
4265.3,-1.3781601828067355e-06
4266.2,-1.3904884566474672e-06
4267.1,-1.3954248813109676e-06
4268.0,-1.3779059210793885e-06
4268.9,-1.3499033963549517e-06
4269.8,-1.3145734139701836e-06
4270.7,-1.2824741776402233e-06
4271.6,-1.2399426621587862e-06
4272.5,-1.2155547126439368e-06
4273.4,-1.2058839182492287e-06
4274.3,-1.2068155329540548e-06
4275.2,-1.2284806003276322e-06
4276.1,-1.2555667178863734e-06
4277.0,-1.2827345486741728e-06
