wave,flux
3700.85,-3.94793560763927e-07
3701.75,-3.9185705699174713e-07
3702.65,-3.831997220163436e-07
3703.55,-3.698767687665177e-07
3704.45,-3.5385572116428083e-07
3705.35,-3.416621440784938e-07
3706.25,-3.3639307189504365e-07
3707.15,-3.362063797009054e-07
3708.05,-3.3724918476047786e-07
3708.96,-3.4200761915070084e-07
3709.86,-3.4677097159998314e-07
3710.76,-3.5108547531008595e-07
3711.66,-3.5586495480627566e-07
3712.56,-3.6514986361936816e-07
3713.46,-3.7676434222484746e-07
3714.36,-3.9083144072252307e-07
3715.26,-4.042086387601361e-07
3716.16,-4.1546337906423783e-07
3717.06,-4.182459387683167e-07
3717.96,-4.127160744532507e-07
3718.86,-3.981473524899568e-07
3719.76,-3.790971086986129e-07
3720.66,-3.5709933117488694e-07
3721.56,-3.3763370830194426e-07
3722.46,-3.292314369735917e-07
3723.36,-3.363715278141334e-07
3724.26,-3.514606393730973e-07
3725.16,-3.697346410972639e-07
3726.06,-3.904796401660682e-07
3726.96,-4.053194112263832e-07
3727.86,-4.1426880633843723e-07
3728.76,-4.173251932314266e-07
3729.66,-4.1526804262354646e-07
3730.56,-4.0676434259709253e-07
3731.46,-3.875712699107097e-07
3732.36,-3.663567483301387e-07
3733.26,-3.439311501363159e-07
3734.16,-3.1970428212416937e-07
3735.06,-3.0688813507248085e-07
3735.96,-3.041515929615343e-07
3736.86,-3.1464596544679077e-07
3737.76,-3.3563848845848096e-07
3738.66,-3.6407624579224405e-07
3739.56,-3.9323025866733307e-07
3740.46,-4.1697807313490563e-07
3741.36,-4.342694065296335e-07
3742.26,-4.415409489673729e-07
3743.16,-4.4084978889800724e-07
3744.06,-4.2962953518380204e-07
3744.96,-4.1407952425870126e-07
3745.86,-3.971306077633943e-07
3746.76,-3.727726468099687e-07
3747.67,-3.506152632548953e-07
3748.57,-3.289783151513547e-07
3749.47,-3.133518661444198e-07
3750.37,-3.0951105877693684e-07
3751.27,-3.2050885229278887e-07
3752.17,-3.40009346480444e-07
3753.07,-3.7157473325807876e-07
3753.97,-4.053301736733767e-07
3754.87,-4.332935938822969e-07
3755.77,-4.553095373759809e-07
3756.67,-4.634815221158661e-07
3757.57,-4.662921259412422e-07
3758.47,-4.619182749513394e-07
3759.37,-4.5626910619750874e-07
3760.27,-4.5599977330980985e-07
3761.17,-4.5971934325454954e-07
3762.07,-4.6521505608187616e-07
3762.97,-4.664509977632721e-07
3763.87,-4.6705243426842186e-07
3764.77,-4.651521281697317e-07
3765.67,-4.567812142068355e-07
3766.57,-4.4235525741911127e-07
3767.47,-4.243124660102009e-07
3768.37,-4.042139596764001e-07
3769.27,-3.846594453002685e-07
3770.17,-3.6932848237474197e-07
3771.07,-3.62999067583501e-07
3771.97,-3.685278214926172e-07
3772.87,-3.8426795348859113e-07
3773.77,-4.0568341304287634e-07
3774.67,-4.2883752642135743e-07
3775.57,-4.533807964496228e-07
3776.47,-4.783639854104055e-07
3777.37,-5.00406118673706e-07
3778.27,-5.232256416567457e-07
3779.17,-5.436395002161594e-07
3780.07,-5.62611394349878e-07
3780.97,-5.785650658723334e-07
3781.87,-5.887614110668316e-07
3782.77,-5.975859659142748e-07
3783.67,-6.014181375381409e-07
3784.57,-5.978309591617466e-07
3785.47,-5.902883404409263e-07
3786.38,-5.786458839305128e-07
3787.28,-5.61903385551026e-07
3788.18,-5.449439131331867e-07
3789.08,-5.324757845211967e-07
3789.98,-5.196580940649375e-07
3790.88,-5.077042969804808e-07
3791.78,-4.966635129392336e-07
3792.68,-4.799874315599574e-07
3793.58,-4.5812442224028157e-07
3794.48,-4.328323491180914e-07
3795.38,-4.070578182891544e-07
3796.28,-3.801984629354841e-07
3797.18,-3.5827727435429256e-07
3798.08,-3.449303065517198e-07
3798.98,-3.4490395477600253e-07
3799.88,-3.57414385763647e-07
3800.78,-3.8136351967660603e-07
3801.68,-4.144688114884546e-07
3802.58,-4.5186371073939595e-07
3803.48,-4.843357400688999e-07
3804.38,-5.120939493173471e-07
3805.28,-5.369167405398047e-07
3806.18,-5.524876121394807e-07
3807.08,-5.644308405503154e-07
3807.98,-5.806720450238216e-07
3808.88,-5.942313997198599e-07
3809.78,-6.108617142213282e-07
3810.68,-6.197076313485504e-07
3811.58,-6.246585633409395e-07
3812.48,-6.213600290971211e-07
3813.38,-6.125606316624272e-07
3814.28,-6.038882888836488e-07
3815.18,-5.964442570184862e-07
3816.08,-5.955976508231788e-07
3816.98,-5.998320334452912e-07
3817.88,-6.066175111622477e-07
3818.78,-6.08226702633721e-07
3819.68,-6.065687785225738e-07
3820.58,-6.044261704199587e-07
3821.48,-5.957280387348937e-07
3822.38,-5.887976058790146e-07
3823.28,-5.75870084807199e-07
3824.18,-5.662031896567958e-07
3825.09,-5.492718573713857e-07
3825.99,-5.329810097640938e-07
3826.89,-5.186459362607004e-07
3827.79,-5.014240658991355e-07
3828.69,-4.878097128190098e-07
3829.59,-4.7184377108178335e-07
3830.49,-4.5243577053062316e-07
3831.39,-4.311868544812632e-07
3832.29,-4.0573974778615273e-07
3833.19,-3.78739630030027e-07
3834.09,-3.537439833242979e-07
3834.99,-3.3352240735894327e-07
3835.89,-3.2519022806452003e-07
3836.79,-3.253505075598137e-07
3837.69,-3.381938087339096e-07
3838.59,-3.587555331461765e-07
3839.49,-3.8574697343808597e-07
3840.39,-4.150168592716331e-07
3841.29,-4.4771163321585674e-07
3842.19,-4.825566965527745e-07
3843.09,-5.147374582231517e-07
3843.99,-5.441381081009016e-07
3844.89,-5.70681885198204e-07
3845.79,-5.919415690441615e-07
3846.69,-6.112136547271392e-07
3847.59,-6.254753180473073e-07
3848.49,-6.430798630637346e-07
3849.39,-6.545714577590164e-07
3850.29,-6.662821037842292e-07
3851.19,-6.77765568383637e-07
3852.09,-6.853440385694245e-07
3852.99,-6.961688731795912e-07
3853.89,-6.996452907277246e-07
3854.79,-7.012341540193483e-07
3855.69,-7.020773619902044e-07
3856.59,-6.984288677753579e-07
3857.49,-6.964720433976569e-07
3858.39,-6.923106525905061e-07
3859.29,-6.892924793579831e-07
3860.19,-6.965896329882155e-07
3861.09,-6.985838869416859e-07
3861.99,-7.083114841227684e-07
3862.9,-7.161546303138877e-07
3863.8,-7.259657419171374e-07
3864.7,-7.332776869334622e-07
3865.6,-7.376804994317843e-07
3866.5,-7.386618594904861e-07
3867.4,-7.439348184662337e-07
3868.3,-7.419420631351972e-07
3869.2,-7.420689535727187e-07
3870.1,-7.329839379030283e-07
3871.0,-7.282891189281653e-07
3871.9,-7.144579495374302e-07
3872.8,-7.02833958642107e-07
3873.7,-6.931692755971875e-07
3874.6,-6.877574604181435e-07
3875.5,-6.828441438898281e-07
3876.4,-6.759346127973178e-07
3877.3,-6.700826257165524e-07
3878.2,-6.579931311278766e-07
3879.1,-6.450635664648495e-07
3880.0,-6.295532389911599e-07
3880.9,-6.213832395687177e-07
3881.8,-6.090998449364067e-07
3882.7,-5.945886991002362e-07
3883.6,-5.730197368720573e-07
3884.5,-5.470958069300374e-07
3885.4,-5.157252041789152e-07
3886.3,-4.817026307123481e-07
3887.2,-4.500943556195899e-07
3888.1,-4.1985540481158897e-07
3889.0,-4.0230113518036035e-07
3889.9,-3.995586829370031e-07
3890.8,-4.0928586730362814e-07
3891.7,-4.3364410730946765e-07
3892.6,-4.644541760423606e-07
3893.5,-4.980997669346721e-07
3894.4,-5.267428157219835e-07
3895.3,-5.560047147357806e-07
3896.2,-5.806936350994253e-07
3897.1,-5.982991250047365e-07
3898.0,-6.183326832793991e-07
3898.9,-6.354314760571392e-07
3899.8,-6.460912495025283e-07
3900.7,-6.62358786336376e-07
3901.6,-6.742125414634504e-07
3902.51,-6.854670005344037e-07
3903.41,-6.918641229806215e-07
3904.31,-6.971717751013542e-07
3905.21,-7.007572523056402e-07
3906.11,-7.107563847991479e-07
3907.01,-7.196696634386781e-07
3907.91,-7.33545092728307e-07
3908.81,-7.521858158132681e-07
3909.71,-7.711769736148299e-07
3910.61,-7.893059192598182e-07
3911.51,-8.028204404643386e-07
3912.41,-8.073728854619783e-07
3913.31,-8.11827428572323e-07
3914.21,-8.079748143913079e-07
3915.11,-8.051216795999348e-07
3916.01,-8.006708966206307e-07
3916.91,-7.985480830938663e-07
3917.81,-7.907328138676844e-07
3918.71,-7.896598665735762e-07
3919.61,-7.853889314485647e-07
3920.51,-7.835083255263864e-07
3921.41,-7.801296915833364e-07
3922.31,-7.83954107178629e-07
3923.21,-7.843639178819491e-07
3924.11,-7.838108488245189e-07
3925.01,-7.770437204143076e-07
3925.91,-7.594350423938292e-07
3926.81,-7.412564307089796e-07
3927.71,-7.102076611006182e-07
3928.61,-6.690480630931614e-07
3929.51,-6.188793255172392e-07
3930.41,-5.648465260814163e-07
3931.31,-5.065669893203643e-07
3932.21,-4.5152896301052424e-07
3933.11,-4.066005970726768e-07
3934.01,-3.7836756091703827e-07
3934.91,-3.755557341003159e-07
3935.81,-3.942665899453863e-07
3936.71,-4.3233789185329987e-07
3937.61,-4.861721833636431e-07
3938.51,-5.445766536864127e-07
3939.42,-6.008674443920742e-07
3940.32,-6.479528455700189e-07
3941.22,-6.841786500065565e-07
3942.12,-7.128942100915612e-07
3943.02,-7.290582767788414e-07
3943.92,-7.43668219423711e-07
3944.82,-7.525648426415948e-07
3945.72,-7.634475237308532e-07
3946.62,-7.701327215906827e-07
3947.52,-7.786938744424882e-07
3948.42,-7.831001545314194e-07
3949.32,-7.873493833355198e-07
3950.22,-7.883624285615931e-07
3951.12,-7.938891274792831e-07
3952.02,-7.897316356832478e-07
3952.92,-7.893147233890047e-07
3953.82,-7.898897775929322e-07
3954.72,-7.874274511176683e-07
3955.62,-7.778832638348592e-07
3956.52,-7.707555074707032e-07
3957.42,-7.604011756150573e-07
3958.32,-7.498605322396578e-07
3959.22,-7.381341705814023e-07
3960.12,-7.204972940954481e-07
3961.02,-6.953208927238388e-07
3961.92,-6.656445606618184e-07
3962.82,-6.300630690519497e-07
3963.72,-5.874447017343971e-07
3964.62,-5.447345646429557e-07
3965.52,-4.970334873081634e-07
3966.42,-4.4649132118529883e-07
3967.32,-3.9665399045509245e-07
3968.22,-3.528565772987714e-07
3969.12,-3.2436804411979517e-07
3970.02,-3.101541452255001e-07
3970.92,-3.175302194980305e-07
3971.82,-3.4330721623209267e-07
3972.72,-3.7948865623810113e-07
3973.62,-4.2765878028707236e-07
3974.52,-4.747521985592766e-07
3975.42,-5.248860597044435e-07
3976.32,-5.733175850925615e-07
3977.22,-6.151956109988203e-07
3978.13,-6.578949767913722e-07
3979.03,-6.945491620782583e-07
3979.93,-7.265084581300036e-07
3980.83,-7.518863043460559e-07
3981.73,-7.718003287957121e-07
3982.63,-7.869174449229062e-07
3983.53,-7.959716847205162e-07
3984.43,-8.066948437918457e-07
3985.33,-8.172095830120695e-07
3986.23,-8.281432325812428e-07
3987.13,-8.425253645396307e-07
3988.03,-8.577920188599103e-07
3988.93,-8.697093341812134e-07
3989.83,-8.825654241639269e-07
3990.73,-8.957893663692486e-07
3991.63,-9.069135271597537e-07
3992.53,-9.14725155258384e-07
3993.43,-9.266923197005814e-07
3994.33,-9.238850633678024e-07
3995.23,-9.279872231298802e-07
3996.13,-9.232133507072434e-07
3997.03,-9.192958397315589e-07
3997.93,-9.203403796094416e-07
3998.83,-9.236422818374352e-07
3999.73,-9.370247066332798e-07
4000.63,-9.497943342101561e-07
4001.53,-9.583526698828086e-07
4002.43,-9.661136372396485e-07
4003.33,-9.671465266250392e-07
4004.23,-9.60501336184902e-07
4005.13,-9.558809717643286e-07
4006.03,-9.472293201881171e-07
4006.93,-9.469619232478123e-07
4007.83,-9.524747694635525e-07
4008.73,-9.650118600051209e-07
4009.63,-9.70902047492021e-07
4010.53,-9.847089969728176e-07
4011.43,-9.961966851483983e-07
4012.33,-1.0022486279816024e-06
4013.23,-1.0080177124908766e-06
4014.13,-1.0071540275771467e-06
4015.03,-1.0127608013622062e-06
4015.93,-1.0146668407385968e-06
4016.84,-1.017058184513083e-06
4017.74,-1.0227473198109908e-06
4018.64,-1.0241345423387403e-06
4019.54,-1.0342741825050044e-06
4020.44,-1.0390469051224381e-06
4021.34,-1.0454866397259484e-06
4022.24,-1.044170368417186e-06
4023.14,-1.0453435701962072e-06
4024.04,-1.0420033110388087e-06
4024.94,-1.0384180796337665e-06
4025.84,-1.038277460297598e-06
4026.74,-1.0425445558958112e-06
4027.64,-1.0419886786335035e-06
4028.54,-1.0399984071428062e-06
4029.44,-1.0288023841259891e-06
4030.34,-1.009749768550487e-06
4031.24,-9.97005428763871e-07
4032.14,-9.808206174945067e-07
4033.04,-9.725810637039784e-07
4033.94,-9.766320181329395e-07
4034.84,-9.84355585404872e-07
4035.74,-1.0036417718546501e-06
4036.64,-1.0268775300081767e-06
4037.54,-1.048891461046675e-06
4038.44,-1.0588824727849322e-06
4039.34,-1.0768015103163848e-06
4040.24,-1.0798865951841752e-06
4041.14,-1.0720877559529508e-06
4042.04,-1.0642126566653745e-06
4042.94,-1.0519577422876107e-06
4043.84,-1.0354924547719905e-06
4044.74,-1.0166265263958767e-06
4045.64,-1.0103061850946305e-06
4046.54,-1.0020260171346485e-06
4047.44,-1.0071275720870362e-06
4048.34,-1.0198581627825916e-06
4049.24,-1.0411549947909813e-06
4050.14,-1.0527196447834326e-06
4051.04,-1.0616769033391593e-06
4051.94,-1.066734167543698e-06
4052.84,-1.0561809198313326e-06
4053.74,-1.048978776962959e-06
4054.65,-1.0340403993798082e-06
4055.55,-1.0258186681338163e-06
4056.45,-1.016412106456025e-06
4057.35,-1.0178807254924636e-06
4058.25,-1.014546072533273e-06
4059.15,-1.0205775518713142e-06
4060.05,-1.0244594915280634e-06
4060.95,-1.0276685179469879e-06
4061.85,-1.0277907536408805e-06
4062.75,-1.0201125985113343e-06
4063.65,-1.0166943945770665e-06
4064.55,-1.0080589430462679e-06
4065.45,-1.0054902291724182e-06
4066.35,-1.011180772039941e-06
4067.25,-1.0166949306461658e-06
4068.15,-1.0245226669755106e-06
4069.05,-1.0338604668348093e-06
4069.95,-1.0365406247128116e-06
4070.85,-1.0326687625025684e-06
4071.75,-1.029601211029431e-06
4072.65,-1.026089053000271e-06
4073.55,-1.0189372417127594e-06
4074.45,-1.0104545385822201e-06
4075.35,-1.0031468585983846e-06
4076.25,-9.848335947508638e-07
4077.15,-9.708847978538978e-07
4078.05,-9.58481495440385e-07
4078.95,-9.571391181108503e-07
4079.85,-9.653135516580671e-07
4080.75,-9.793721071640282e-07
4081.65,-9.882140911881193e-07
4082.55,-1.0000442437862279e-06
4083.45,-1.003415536014633e-06
4084.35,-1.0021679005642312e-06
4085.25,-9.970488973922395e-07
4086.15,-1.0004248693095722e-06
4087.05,-9.92687820713311e-07
4087.95,-9.934571387573392e-07
4088.85,-9.962006443699887e-07
4089.75,-1.0007329048222802e-06
4090.65,-9.920064794100987e-07
4091.55,-9.825601366751765e-07
4092.45,-9.636367003457471e-07
4093.36,-9.437265220888005e-07
4094.26,-9.256235618552992e-07
4095.16,-8.907567021423622e-07
4096.06,-8.637125962165292e-07
4096.96,-8.264691687170886e-07
4097.86,-7.866460165125326e-07
4098.76,-7.41919432530027e-07
4099.66,-7.02773041130009e-07
4100.56,-6.618740380040632e-07
4101.46,-6.323619058423724e-07
4102.36,-6.130814041047373e-07
4103.26,-6.145622010334545e-07
4104.16,-6.334801158645083e-07
4105.06,-6.652865858839397e-07
4105.96,-7.082748561393075e-07
4106.86,-7.50567280305517e-07
4107.76,-7.888483376179012e-07
4108.66,-8.278535537710576e-07
4109.56,-8.551518273918181e-07
4110.46,-8.765731656951417e-07
4111.36,-8.996008426635291e-07
4112.26,-9.202571136023607e-07
4113.16,-9.424559162344412e-07
4114.06,-9.715654970292087e-07
4114.96,-9.861299437771066e-07
4115.86,-1.0037368331618647e-06
4116.76,-1.019081154343556e-06
4117.66,-1.0263775494109884e-06
4118.56,-1.0254052757354924e-06
4119.46,-1.0274569162908755e-06
4120.36,-1.0216086774973175e-06
4121.26,-1.0297240382555242e-06
4122.16,-1.034621057885589e-06
4123.06,-1.041178155420925e-06
4123.96,-1.044838142312993e-06
4124.86,-1.0503575539434255e-06
4125.76,-1.0548932682186687e-06
4126.66,-1.0593707354285409e-06
4127.56,-1.0584797869622574e-06
4128.46,-1.0585164580251638e-06
4129.36,-1.0527665119171479e-06
4130.26,-1.0513981237525097e-06
4131.17,-1.0424412478652242e-06
4132.06,-1.047050154456175e-06
4132.97,-1.0470832104316492e-06
4133.87,-1.051982802676916e-06
4134.77,-1.064584234586661e-06
4135.67,-1.0796870915834105e-06
4136.57,-1.0980359814990048e-06
4137.47,-1.115950306360345e-06
4138.37,-1.1319512693576921e-06
4139.27,-1.1466382282717048e-06
4140.17,-1.1521343929023355e-06
4141.07,-1.1501639821072145e-06
4141.97,-1.1391543544533613e-06
4142.87,-1.1296070171582682e-06
4143.77,-1.1176081793512413e-06
4144.67,-1.108086908090466e-06
4145.57,-1.1084283050599794e-06
4146.47,-1.1115473834695096e-06
4147.37,-1.119283423690696e-06
4148.27,-1.1302922931485695e-06
4149.17,-1.12949825939108e-06
4150.07,-1.1341433029298383e-06
4150.97,-1.1294008172047144e-06
4151.87,-1.1242392471403804e-06
4152.77,-1.1228869562017836e-06
4153.67,-1.1152488319390994e-06
4154.57,-1.1100555654001223e-06
4155.47,-1.1123090618737821e-06
4156.37,-1.1103199135162267e-06
4157.27,-1.1124392982575425e-06
4158.17,-1.1174441355810453e-06
4159.07,-1.1305633460708626e-06
4159.97,-1.14157602956029e-06
4160.87,-1.152678336069602e-06
4161.77,-1.1623548695202618e-06
4162.67,-1.1739804521590503e-06
4163.57,-1.1818314773640666e-06
4164.47,-1.184653043000583e-06
4165.37,-1.1868567826833967e-06
4166.27,-1.186294665458795e-06
4167.17,-1.1792162907372061e-06
4168.07,-1.170458212364849e-06
4168.98,-1.1630834408183948e-06
4169.88,-1.148938298089474e-06
4170.78,-1.1433220727432745e-06
4171.68,-1.1266205974591457e-06
4172.58,-1.1109309853843184e-06
4173.48,-1.095349119257488e-06
4174.38,-1.0875588144402588e-06
4175.28,-1.085415696731988e-06
4176.18,-1.0878866914682776e-06
4177.08,-1.0958962049612536e-06
4177.98,-1.107426988523042e-06
4178.88,-1.1100649280672777e-06
4179.78,-1.1197336668330048e-06
4180.68,-1.126536967651459e-06
4181.58,-1.1389147139104337e-06
4182.48,-1.139617554439766e-06
4183.38,-1.1453294291362169e-06
4184.28,-1.1556415214504906e-06
4185.18,-1.15918763753017e-06
4186.08,-1.1664897369302232e-06
4186.98,-1.1660857812147554e-06
4187.88,-1.1634824660353326e-06
4188.78,-1.1727947697289282e-06
4189.68,-1.1775785246504554e-06
4190.58,-1.185357168774181e-06
4191.48,-1.1921538816908704e-06
4192.38,-1.2108608686391597e-06
4193.28,-1.2115614427919104e-06
4194.18,-1.2169025001571717e-06
4195.08,-1.2105344377715343e-06
4195.98,-1.1991459305365857e-06
4196.88,-1.1836528277764722e-06
4197.78,-1.169489763633954e-06
4198.68,-1.155369416960035e-06
4199.58,-1.147970369876843e-06
4200.48,-1.1455156120584137e-06
4201.38,-1.1470844889362614e-06
4202.28,-1.1578747960541318e-06
4203.18,-1.1631342041528648e-06
4204.08,-1.1708568767997502e-06
4204.98,-1.1827116618830532e-06
4205.88,-1.1887318474880887e-06
4206.79,-1.2104112887879731e-06
4207.69,-1.218135690251436e-06
4208.59,-1.2295734543587135e-06
4209.49,-1.2363865850954853e-06
4210.39,-1.2407414365215434e-06
4211.29,-1.2441583010508308e-06
4212.19,-1.2467071860002762e-06
4213.09,-1.240148932079295e-06
4213.99,-1.2339414549049607e-06
4214.89,-1.2266251156346013e-06
4215.79,-1.2228755204359144e-06
4216.69,-1.2250451297167938e-06
4217.59,-1.2271448492671648e-06
4218.49,-1.235993843059258e-06
4219.39,-1.253740883035448e-06
4220.29,-1.2625586450615592e-06
4221.19,-1.2660241366117212e-06
4222.09,-1.266329907732592e-06
4222.99,-1.250864990524562e-06
4223.89,-1.228581690230413e-06
4224.79,-1.1969490621209068e-06
4225.69,-1.1645870828246024e-06
4226.59,-1.1405201402718422e-06
4227.49,-1.1389189260475114e-06
4228.39,-1.1471736422221199e-06
4229.29,-1.1654622547312749e-06
4230.19,-1.1987175569137533e-06
4231.09,-1.2275769368491134e-06
4231.99,-1.2445094607095941e-06
4232.89,-1.2502988558116487e-06
4233.79,-1.2483423883601707e-06
4234.69,-1.2459330811144018e-06
4235.59,-1.2332051345497846e-06
4236.49,-1.2298762095705204e-06
4237.39,-1.2272884457318026e-06
4238.29,-1.2237950612825382e-06
4239.19,-1.2297475312491723e-06
4240.09,-1.2378890143420973e-06
4240.99,-1.2495041490104234e-06
4241.89,-1.2665600172872765e-06
4242.79,-1.2699387456209566e-06
4243.69,-1.280486909860091e-06
4244.59,-1.2837334003611e-06
4245.5,-1.2814838985905643e-06
4246.4,-1.2812566811458263e-06
4247.3,-1.2728512127286884e-06
4248.2,-1.259274346956884e-06
4249.1,-1.2438485007810872e-06
4250.0,-1.2394018440994928e-06
4250.9,-1.2441431211100176e-06
4251.8,-1.2487407495249564e-06
4252.7,-1.254793816400776e-06
4253.6,-1.2610867838947693e-06
4254.5,-1.2712837834435178e-06
4255.4,-1.2760760161636808e-06
4256.3,-1.284700609742056e-06
4257.2,-1.2840787688867348e-06
4258.1,-1.2775542359710874e-06
4259.0,-1.2737769559673844e-06
4259.9,-1.2653840693013552e-06
4260.8,-1.2598939578924508e-06
4261.7,-1.26670180496546e-06
4262.6,-1.276371910963278e-06
4263.5,-1.2931530066776278e-06
4264.4,-1.319767521443571e-06
4265.3,-1.3347701625125817e-06
4266.2,-1.3361152854753514e-06
4267.1,-1.3421836847239736e-06
4268.0,-1.3283503862974097e-06
4268.9,-1.311308145727004e-06
4269.8,-1.2914354788990126e-06
4270.7,-1.2642162973819124e-06
4271.6,-1.242386797999098e-06
4272.5,-1.2279102044678738e-06
4273.4,-1.2166773726974245e-06
4274.3,-1.2165012505392061e-06
4275.2,-1.2329611500468434e-06
4276.1,-1.2516425985793133e-06
