wave,flux
3700.85,-1.400502397913984e-06
3701.75,-1.3982693725468359e-06
3702.65,-1.3614354155716245e-06
3703.55,-1.3116081787258535e-06
3704.45,-1.2592982802260014e-06
3705.35,-1.2200952720473769e-06
3706.25,-1.1940234335763669e-06
3707.15,-1.1931341030737507e-06
3708.05,-1.206773105431311e-06
3708.96,-1.230080718139823e-06
3709.86,-1.2453870044368977e-06
3710.76,-1.2742244392514056e-06
3711.66,-1.3004887197466686e-06
3712.56,-1.3410259523452515e-06
3713.46,-1.3939537865709728e-06
3714.36,-1.441235589834924e-06
3715.26,-1.4951533960829957e-06
3716.16,-1.5241059929245749e-06
3717.06,-1.527181585331919e-06
3717.96,-1.495082707492453e-06
3718.86,-1.4288432732195924e-06
3719.76,-1.3585030244979298e-06
3720.66,-1.2799393449427026e-06
3721.56,-1.215240472222313e-06
3722.46,-1.2012234618966461e-06
3723.36,-1.2207399622351286e-06
3724.26,-1.2835990807023664e-06
3725.16,-1.3537860569027308e-06
3726.06,-1.4285131358054136e-06
3726.96,-1.4857430210476574e-06
3727.86,-1.5064201568402816e-06
3728.76,-1.534495123256521e-06
3729.66,-1.5207587911314214e-06
3730.56,-1.4896568364218233e-06
3731.46,-1.4482142426159308e-06
3732.36,-1.3793385062758168e-06
3733.26,-1.2874227058755748e-06
3734.16,-1.2019368609941752e-06
3735.06,-1.1465925891489572e-06
3735.96,-1.1291008603279081e-06
3736.86,-1.1545936694724192e-06
3737.76,-1.227649593988573e-06
3738.66,-1.3255915437346397e-06
3739.56,-1.4357608320444052e-06
3740.46,-1.5265466370288986e-06
3741.36,-1.5888268862251213e-06
3742.26,-1.6190336092583117e-06
3743.16,-1.6066019317507976e-06
3744.06,-1.5752120435129425e-06
3744.96,-1.523554576703804e-06
3745.86,-1.466166035157837e-06
3746.76,-1.3953362718175943e-06
3747.67,-1.3161656061199106e-06
3748.57,-1.2597131141143826e-06
3749.47,-1.2128497200222511e-06
3750.37,-1.2045114964828548e-06
3751.27,-1.2508115844905096e-06
3752.17,-1.338143996634489e-06
3753.07,-1.4520101239805588e-06
3753.97,-1.5722259025216377e-06
3754.87,-1.6730899029038698e-06
3755.77,-1.7435806080440145e-06
3756.67,-1.7711115115732245e-06
3757.57,-1.7583087723886666e-06
3758.47,-1.7265758692165477e-06
3759.37,-1.7050288948608493e-06
3760.27,-1.6944585811952598e-06
3761.17,-1.7156279917807297e-06
3762.07,-1.7357426738485064e-06
3762.97,-1.7679750107274531e-06
3763.87,-1.790005929747477e-06
3764.77,-1.7969045450424304e-06
3765.67,-1.7914052719240107e-06
3766.57,-1.7536617656055988e-06
3767.47,-1.7185717480007354e-06
3768.37,-1.6609943365820343e-06
3769.27,-1.6128006385043707e-06
3770.17,-1.5835618571802198e-06
3771.07,-1.579889057932331e-06
3771.97,-1.6029392913559275e-06
3772.87,-1.6478670045245365e-06
3773.77,-1.7261349409254142e-06
3774.67,-1.8065194747135256e-06
3775.57,-1.8831819506848674e-06
3776.47,-1.950323012290022e-06
3777.37,-2.0181513789665497e-06
3778.27,-2.0818835336397655e-06
3779.17,-2.1420166216825366e-06
3780.07,-2.2080422406266894e-06
3780.97,-2.260800652516228e-06
3781.87,-2.301576079673806e-06
3782.77,-2.32950944960344e-06
3783.67,-2.336534890861745e-06
3784.57,-2.326814492129857e-06
3785.47,-2.297156826745968e-06
3786.38,-2.2436962728510418e-06
3787.28,-2.176429798883938e-06
3788.18,-2.1394496951158027e-06
3789.08,-2.0980588224464416e-06
3789.98,-2.0672373098862802e-06
3790.88,-2.047464407379403e-06
3791.78,-2.0223997658740234e-06
3792.68,-1.9908289406151967e-06
3793.58,-1.9353285663428493e-06
3794.48,-1.868014739012421e-06
3795.38,-1.7832265166770455e-06
3796.28,-1.6982201183710786e-06
3797.18,-1.6162153727052997e-06
3798.08,-1.5751965098955757e-06
3798.98,-1.5750640962419416e-06
3799.88,-1.6256869063662574e-06
3800.78,-1.723445821532241e-06
3801.68,-1.8678297454685013e-06
3802.58,-1.9924580661201513e-06
3803.48,-2.129375811817219e-06
3804.38,-2.240016755422094e-06
3805.28,-2.3107020195816863e-06
3806.18,-2.342769629875458e-06
3807.08,-2.388940418426457e-06
3807.98,-2.418988826442882e-06
3808.88,-2.4567583834377676e-06
3809.78,-2.504491355404114e-06
3810.68,-2.5163278157372064e-06
3811.58,-2.5255530485597104e-06
3812.48,-2.527813704824631e-06
3813.38,-2.4721229599864084e-06
3814.28,-2.4220583235116784e-06
3815.18,-2.394544262027761e-06
3816.08,-2.376815358833594e-06
3816.98,-2.37864715433102e-06
3817.88,-2.391216561602407e-06
3818.78,-2.3808385119735193e-06
3819.68,-2.3879891045768478e-06
3820.58,-2.3772024705239353e-06
3821.48,-2.3590083569479125e-06
3822.38,-2.3369556924826127e-06
3823.28,-2.3138979551850427e-06
3824.18,-2.2827431741619335e-06
3825.09,-2.2295934363686754e-06
3825.99,-2.1987205703774664e-06
3826.89,-2.1344075161193368e-06
3827.79,-2.099181188907172e-06
3828.69,-2.060484028778265e-06
3829.59,-2.0263099838122033e-06
3830.49,-1.9684096225139953e-06
3831.39,-1.9061215022942553e-06
3832.29,-1.814431141565208e-06
3833.19,-1.7287235492590558e-06
3834.09,-1.630735322145334e-06
3834.99,-1.5715837271129021e-06
3835.89,-1.5395840622099687e-06
3836.79,-1.5490917934525232e-06
3837.69,-1.5850921337821735e-06
3838.59,-1.6522707653926474e-06
3839.49,-1.7517423095403642e-06
3840.39,-1.8609380272147076e-06
3841.29,-1.9910747657383202e-06
3842.19,-2.1307764111239506e-06
3843.09,-2.279731353318516e-06
3843.99,-2.4070813596680147e-06
3844.89,-2.5123034937689877e-06
3845.79,-2.6137654443776605e-06
3846.69,-2.6652461858735794e-06
3847.59,-2.7200009263569274e-06
3848.49,-2.754928634899908e-06
3849.39,-2.7989327735859725e-06
3850.29,-2.8185024427587365e-06
3851.19,-2.8417305571993395e-06
3852.09,-2.8829467806036705e-06
3852.99,-2.916470881837558e-06
3853.89,-2.92853020226869e-06
3854.79,-2.9273030570373134e-06
3855.69,-2.93539591771961e-06
3856.59,-2.8938938070848016e-06
3857.49,-2.860156092256191e-06
3858.39,-2.8323248420507454e-06
3859.29,-2.8239182247479426e-06
3860.19,-2.8148174115028567e-06
3861.09,-2.853847084979298e-06
3861.99,-2.913707848470144e-06
3862.9,-2.979729185405479e-06
3863.8,-3.059058733234483e-06
3864.7,-3.117187058116603e-06
3865.6,-3.1284036800647593e-06
3866.5,-3.153168395224629e-06
3867.4,-3.1488389061689167e-06
3868.3,-3.1524261932888185e-06
3869.2,-3.1393891973369913e-06
3870.1,-3.0989186848336453e-06
3871.0,-3.0717470647350118e-06
3871.9,-3.0204941970392487e-06
3872.8,-2.96631423677468e-06
3873.7,-2.95834562202218e-06
3874.6,-2.9415925246438042e-06
3875.5,-2.966817240846008e-06
3876.4,-2.9700344403058944e-06
3877.3,-2.967826118502265e-06
3878.2,-2.922663290183928e-06
3879.1,-2.9135474921366332e-06
3880.0,-2.88757279537237e-06
3880.9,-2.871208670380983e-06
3881.8,-2.856212161934219e-06
3882.7,-2.830362358576009e-06
3883.6,-2.7829380863864134e-06
3884.5,-2.700989177547161e-06
3885.4,-2.5997869408369907e-06
3886.3,-2.4833878926886204e-06
3887.2,-2.3621069405480176e-06
3888.1,-2.252686803097931e-06
3889.0,-2.189438660849682e-06
3889.9,-2.1797331358861084e-06
3890.8,-2.2378473265510254e-06
3891.7,-2.3603956074825857e-06
3892.6,-2.488134154896801e-06
3893.5,-2.615617000429915e-06
3894.4,-2.746561594493792e-06
3895.3,-2.8476247415951274e-06
3896.2,-2.944125296149387e-06
3897.1,-3.0240462736116927e-06
3898.0,-3.0866862264901664e-06
3898.9,-3.162355728741346e-06
3899.8,-3.2045013969948952e-06
3900.7,-3.264301902766547e-06
3901.6,-3.290912675085987e-06
3902.51,-3.3129088635086722e-06
3903.41,-3.3318641418807314e-06
3904.31,-3.341929153358067e-06
3905.21,-3.3533155631164623e-06
3906.11,-3.3645027408803725e-06
3907.01,-3.4027514519031586e-06
3907.91,-3.4675768745752165e-06
3908.81,-3.546604259753819e-06
3909.71,-3.6425735168881087e-06
3910.61,-3.7271416326189093e-06
3911.51,-3.7780273413930818e-06
3912.41,-3.8366065948270775e-06
3913.31,-3.853370246474226e-06
3914.21,-3.834483781822217e-06
3915.11,-3.818278731054897e-06
3916.01,-3.800527404243916e-06
3916.91,-3.767081232793689e-06
3917.81,-3.738099610986558e-06
3918.71,-3.7097533294771104e-06
3919.61,-3.6702323536473496e-06
3920.51,-3.6420398873232345e-06
3921.41,-3.6108442145154355e-06
3922.31,-3.5980834358414587e-06
3923.21,-3.6026454065168093e-06
3924.11,-3.582868305243183e-06
3925.01,-3.5541739323543495e-06
3925.91,-3.462678578802498e-06
3926.81,-3.3641960683137974e-06
3927.71,-3.1900456167876875e-06
3928.61,-2.9767780822891863e-06
3929.51,-2.737654646910227e-06
3930.41,-2.4640385563817253e-06
3931.31,-2.186266650406438e-06
3932.21,-1.928002218295763e-06
3933.11,-1.703214624648214e-06
3934.01,-1.577446362968407e-06
3934.91,-1.5578365816508245e-06
3935.81,-1.652142254525593e-06
3936.71,-1.8523789077673025e-06
3937.61,-2.1205822908665083e-06
3938.51,-2.4204764140714194e-06
3939.42,-2.7286086209411433e-06
3940.32,-3.015170773734182e-06
3941.22,-3.227994284546766e-06
3942.12,-3.3950908808465195e-06
3943.02,-3.522704556361065e-06
3943.92,-3.623667119926844e-06
3944.82,-3.7089474945915156e-06
3945.72,-3.786699583313765e-06
3946.62,-3.872857936659677e-06
3947.52,-3.953763099464992e-06
3948.42,-4.017820795792338e-06
3949.32,-4.072063362557226e-06
3950.22,-4.122393172864496e-06
3951.12,-4.16924248109137e-06
3952.02,-4.18694195908796e-06
3952.92,-4.223341421053173e-06
3953.82,-4.230723100284254e-06
3954.72,-4.225559038644033e-06
3955.62,-4.228439128822308e-06
3956.52,-4.224793539330861e-06
3957.42,-4.182108633764971e-06
3958.32,-4.1321896354692315e-06
3959.22,-4.094872263763606e-06
3960.12,-4.004666246518326e-06
3961.02,-3.891993258924406e-06
3961.92,-3.7219310171396944e-06
3962.82,-3.5214338698756146e-06
3963.72,-3.295815064130788e-06
3964.62,-3.0490775008426875e-06
3965.52,-2.76157909611193e-06
3966.42,-2.4683028769000674e-06
3967.32,-2.171785145730851e-06
3968.22,-1.927612921448269e-06
3969.12,-1.7648749052940394e-06
3970.02,-1.6986798557005467e-06
3970.92,-1.781843108831633e-06
3971.82,-1.969145550978533e-06
3972.72,-2.2313962952398206e-06
3973.62,-2.5475637085701e-06
3974.52,-2.898386500938595e-06
3975.42,-3.193244263624697e-06
3976.32,-3.4788538677518606e-06
3977.22,-3.7508027078755525e-06
3978.13,-4.002596566253415e-06
3979.03,-4.215247053782941e-06
3979.93,-4.3861240191062e-06
3980.83,-4.52888482745461e-06
3981.73,-4.629787250228901e-06
3982.63,-4.697967692067911e-06
3983.53,-4.748670244917698e-06
3984.43,-4.8261150317559755e-06
3985.33,-4.879152413284532e-06
3986.23,-4.954444361611868e-06
3987.13,-5.008776567250978e-06
3988.03,-5.088712043649404e-06
3988.93,-5.1914926254916095e-06
3989.83,-5.2461008091155034e-06
3990.73,-5.3303245027706464e-06
3991.63,-5.404439398516172e-06
3992.53,-5.418131655025407e-06
3993.43,-5.459825999564461e-06
3994.33,-5.4799086503004024e-06
3995.23,-5.482772305944061e-06
3996.13,-5.43321583260996e-06
3997.03,-5.422964668514987e-06
3997.93,-5.4324976945842795e-06
3998.83,-5.458898500882092e-06
3999.73,-5.5152301591742355e-06
4000.63,-5.616059455099392e-06
4001.53,-5.691846682345542e-06
4002.43,-5.739992919894065e-06
4003.33,-5.776792724991663e-06
4004.23,-5.734219485370516e-06
4005.13,-5.729417036769456e-06
4006.03,-5.653910408602163e-06
4006.93,-5.6707418034499734e-06
4007.83,-5.722081002240992e-06
4008.73,-5.791608889590934e-06
4009.63,-5.866021825264602e-06
4010.53,-5.975175954698335e-06
4011.43,-6.061443851059536e-06
4012.33,-6.082973977332502e-06
4013.23,-6.119637243168575e-06
4014.13,-6.153321711086063e-06
4015.03,-6.1797715702857505e-06
4015.93,-6.2016256058411855e-06
4016.84,-6.262777634650562e-06
4017.74,-6.273193964650741e-06
4018.64,-6.2914703887307484e-06
4019.54,-6.3387972050572375e-06
4020.44,-6.390321114043032e-06
4021.34,-6.4165468301254915e-06
4022.24,-6.4585421053875775e-06
4023.14,-6.4727177118171e-06
4024.04,-6.452622983135683e-06
4024.94,-6.506400281701506e-06
4025.84,-6.52362304974131e-06
4026.74,-6.5653765859949655e-06
4027.64,-6.596167688996318e-06
4028.54,-6.639908943244362e-06
4029.44,-6.599720752573133e-06
4030.34,-6.496858625185416e-06
4031.24,-6.395638866274609e-06
4032.14,-6.326149479796885e-06
4033.04,-6.306098671605919e-06
4033.94,-6.316376878429316e-06
4034.84,-6.38839495778314e-06
4035.74,-6.525909902267117e-06
4036.64,-6.684162072314007e-06
4037.54,-6.8332017535708e-06
4038.44,-6.956728629448493e-06
4039.34,-7.029014289938227e-06
4040.24,-7.039797066247979e-06
4041.14,-7.0469786884432145e-06
4042.04,-7.014844827163106e-06
4042.94,-6.88089149150317e-06
4043.84,-6.816787790169908e-06
4044.74,-6.704301129148515e-06
4045.64,-6.614333852945252e-06
4046.54,-6.605704214892268e-06
4047.44,-6.643618733603476e-06
4048.34,-6.763441295884113e-06
4049.24,-6.882921009928408e-06
4050.14,-7.049300528019087e-06
4051.04,-7.149134134279466e-06
4051.94,-7.208694626826441e-06
4052.84,-7.211189519775712e-06
4053.74,-7.206893392398381e-06
4054.65,-7.149057565213843e-06
4055.55,-7.1082966979685665e-06
4056.45,-7.073740836913527e-06
4057.35,-7.074003170495501e-06
4058.25,-7.102024765290139e-06
4059.15,-7.1351148579854065e-06
4060.05,-7.173598405972974e-06
4060.95,-7.2054865581253994e-06
4061.85,-7.203359357943887e-06
4062.75,-7.143339056316894e-06
4063.65,-7.094040992489594e-06
4064.55,-7.095535696039229e-06
4065.45,-7.077701604292817e-06
4066.35,-7.1351968008640745e-06
4067.25,-7.2098549863374615e-06
4068.15,-7.2965870394869345e-06
4069.05,-7.369995887554661e-06
4069.95,-7.463411115844478e-06
4070.85,-7.482908800639159e-06
4071.75,-7.490662052135145e-06
4072.65,-7.462581018386168e-06
4073.55,-7.4358396399155955e-06
4074.45,-7.416848430199365e-06
4075.35,-7.359012827523572e-06
4076.25,-7.259608305422809e-06
4077.15,-7.1754826371775345e-06
4078.05,-7.133892579283593e-06
4078.95,-7.16910397042365e-06
4079.85,-7.230576935167266e-06
4080.75,-7.39042214688598e-06
4081.65,-7.499167065598462e-06
4082.55,-7.58714817071927e-06
4083.45,-7.709745581738713e-06
4084.35,-7.733294798432837e-06
4085.25,-7.782940288189735e-06
4086.15,-7.82343425648259e-06
4087.05,-7.893658016833791e-06
4087.95,-8.006278595336892e-06
4088.85,-8.077734178676286e-06
4089.75,-8.18110927894482e-06
4090.65,-8.201017100521091e-06
4091.55,-8.155661535496725e-06
4092.45,-8.118468359089692e-06
4093.36,-8.024063155987079e-06
4094.26,-7.930996813853039e-06
4095.16,-7.785628851557313e-06
4096.06,-7.616240245943525e-06
4096.96,-7.387224791199776e-06
4097.86,-7.174988494630585e-06
4098.76,-6.911194805209941e-06
4099.66,-6.5938986420274104e-06
4100.56,-6.325625527723826e-06
4101.46,-6.0731591489279095e-06
4102.36,-5.9536181439586654e-06
4103.26,-5.942643442949335e-06
4104.16,-6.109601269717144e-06
4105.06,-6.401280803946432e-06
4105.96,-6.7439945233552955e-06
4106.86,-7.058801909570315e-06
4107.76,-7.384857408551679e-06
4108.66,-7.616397150051375e-06
4109.56,-7.810867216267322e-06
4110.46,-7.954939103377423e-06
4111.36,-8.107731485069665e-06
4112.26,-8.227379080207685e-06
4113.16,-8.398059100700211e-06
4114.06,-8.540362601722807e-06
4114.96,-8.685230047648547e-06
4115.86,-8.77492241794389e-06
4116.76,-8.888248504045396e-06
4117.66,-8.902492895093591e-06
4118.56,-8.899123135807835e-06
4119.46,-8.918134209927558e-06
4120.36,-8.913414962024341e-06
4121.26,-8.91912021252851e-06
4122.16,-8.979926006614395e-06
4123.06,-9.028352645827772e-06
4123.96,-9.08120910338952e-06
4124.86,-9.133283438304474e-06
4125.76,-9.23378510222142e-06
4126.66,-9.254626294738306e-06
4127.56,-9.287198183608463e-06
4128.46,-9.280478660383903e-06
4129.36,-9.275760327801928e-06
4130.26,-9.2592980132247e-06
4131.17,-9.235266612611761e-06
4132.06,-9.188503969303661e-06
4132.97,-9.197474724351484e-06
4133.87,-9.216940765425125e-06
4134.77,-9.276635054820514e-06
4135.67,-9.407438389674636e-06
4136.57,-9.59561163517633e-06
4137.47,-9.796729567040675e-06
4138.37,-9.938846333762221e-06
4139.27,-1.0068332230700622e-05
4140.17,-1.0135687748989827e-05
4141.07,-1.0108988508377392e-05
4141.97,-1.0026883444303688e-05
4142.87,-9.89574344701452e-06
4143.77,-9.779598869182938e-06
4144.67,-9.812073101713343e-06
4145.57,-9.815500385004328e-06
4146.47,-9.893360420418117e-06
4147.37,-1.0050422642983604e-05
4148.27,-1.0161191656599894e-05
4149.17,-1.0270698229600116e-05
4150.07,-1.029337297940611e-05
4150.97,-1.0312039470768783e-05
4151.87,-1.0314821311031781e-05
4152.77,-1.033718061277839e-05
4153.67,-1.0265627853194466e-05
4154.57,-1.029795605186275e-05
4155.47,-1.0314667319768478e-05
4156.37,-1.0298428854735692e-05
4157.27,-1.0425557671379925e-05
4158.17,-1.051470520392782e-05
4159.07,-1.0612736181677174e-05
4159.97,-1.0835197488975025e-05
4160.87,-1.090226797791059e-05
4161.77,-1.1041216840120034e-05
4162.67,-1.1120158080277928e-05
4163.57,-1.1173360742425768e-05
4164.47,-1.1215620596266115e-05
4165.37,-1.1225169187784515e-05
4166.27,-1.1256602441452937e-05
4167.17,-1.1234245959813893e-05
4168.07,-1.1134010142379716e-05
4168.98,-1.1199092421140611e-05
4169.88,-1.1115677621842751e-05
4170.78,-1.0989230006740348e-05
4171.68,-1.0867232399934422e-05
4172.58,-1.077094706422169e-05
4173.48,-1.0651752677815088e-05
4174.38,-1.061790217126225e-05
4175.28,-1.0654585414249566e-05
4176.18,-1.0709301646472617e-05
4177.08,-1.0841858134058958e-05
4177.98,-1.0963217724608282e-05
4178.88,-1.1085955340318547e-05
4179.78,-1.1226276736200088e-05
4180.68,-1.1307006014502615e-05
4181.58,-1.1446455151411117e-05
4182.48,-1.1504935052147539e-05
4183.38,-1.1573118979351302e-05
4184.28,-1.1561459498348345e-05
4185.18,-1.1596341823965621e-05
4186.08,-1.1730251481779082e-05
4186.98,-1.1713547230856098e-05
4187.88,-1.1764338370167707e-05
4188.78,-1.1775338855313807e-05
4189.68,-1.1859439595403167e-05
4190.58,-1.1951211093791365e-05
4191.48,-1.2075134571248781e-05
4192.38,-1.2125202272547178e-05
4193.28,-1.2263779895731589e-05
4194.18,-1.2365983196496434e-05
4195.08,-1.2351912373970703e-05
4195.98,-1.2309328162391172e-05
4196.88,-1.2167319085036426e-05
4197.78,-1.2101523912000056e-05
4198.68,-1.1973787094080053e-05
4199.58,-1.1893994257143923e-05
4200.48,-1.1850721429319446e-05
4201.38,-1.1880994131796936e-05
4202.28,-1.198559232365691e-05
4203.18,-1.2070225728854634e-05
4204.08,-1.221537674919514e-05
4204.98,-1.2343084190132518e-05
4205.88,-1.2477061172002228e-05
4206.79,-1.2732527517635296e-05
4207.69,-1.2865200320763271e-05
4208.59,-1.3001574637372708e-05
4209.49,-1.3158413892620398e-05
4210.39,-1.3233991284712076e-05
4211.29,-1.3309230358022036e-05
4212.19,-1.3319194384531287e-05
4213.09,-1.3365231667951522e-05
4213.99,-1.331003140495147e-05
4214.89,-1.3233987782201474e-05
4215.79,-1.3160490320577865e-05
4216.69,-1.317711048514122e-05
4217.59,-1.3200213779327808e-05
4218.49,-1.3315020683062226e-05
4219.39,-1.3539399856039564e-05
4220.29,-1.3719444345154247e-05
4221.19,-1.3719609513739231e-05
4222.09,-1.3658987611356659e-05
4222.99,-1.3572981024443784e-05
4223.89,-1.3361500289872329e-05
4224.79,-1.2992558671279172e-05
4225.69,-1.2693197718993888e-05
4226.59,-1.2460545229682406e-05
4227.49,-1.2377580853450577e-05
4228.39,-1.2541268077727603e-05
4229.29,-1.2797224418579655e-05
4230.19,-1.319774164511922e-05
4231.09,-1.3568776090554872e-05
4231.99,-1.3875018574917602e-05
4232.89,-1.4035444628286814e-05
4233.79,-1.4073562266362175e-05
4234.69,-1.4099477093545131e-05
4235.59,-1.4067088421021974e-05
4236.49,-1.3998159102832702e-05
4237.39,-1.4022530561960403e-05
4238.29,-1.408007334227433e-05
4239.19,-1.420523429415485e-05
4240.09,-1.4279959883097215e-05
4240.99,-1.4459719222433935e-05
4241.89,-1.4675075040173766e-05
4242.79,-1.476649418549142e-05
4243.69,-1.4927825791915124e-05
4244.59,-1.4975903973191701e-05
4245.5,-1.50465805946864e-05
4246.4,-1.4960366413048106e-05
4247.3,-1.4857583511315277e-05
4248.2,-1.4818634365721905e-05
4249.1,-1.4753697803419933e-05
4250.0,-1.4690971643225468e-05
4250.9,-1.472994742870189e-05
4251.8,-1.4871160830321685e-05
4252.7,-1.4995095506158793e-05
4253.6,-1.5111382890261048e-05
4254.5,-1.528837394933524e-05
4255.4,-1.5344823371349177e-05
4256.3,-1.5372007496524006e-05
4257.2,-1.5503876134126502e-05
4258.1,-1.5454987348096587e-05
4259.0,-1.5437459177415327e-05
4259.9,-1.549372304506005e-05
4260.8,-1.546990604937671e-05
4261.7,-1.5545752448862815e-05
4262.6,-1.5710968649087705e-05
4263.5,-1.5921722442157362e-05
4264.4,-1.6240987083164975e-05
4265.3,-1.647879351986171e-05
4266.2,-1.660535317788678e-05
4267.1,-1.6683824956777616e-05
4268.0,-1.6608318487260325e-05
4268.9,-1.639711993899674e-05
4269.8,-1.616227666230278e-05
4270.7,-1.5894246684723573e-05
4271.6,-1.5700828424613758e-05
4272.5,-1.548802623092797e-05
4273.4,-1.5394013886195842e-05
