wave,flux
3700.85,-0.004339989227287262
3701.75,-0.004350546206706791
3702.65,-0.004293574912421491
3703.55,-0.004181554556927444
3704.45,-0.004069285784081777
3705.35,-0.0039806041832236
3706.25,-0.003929481621372654
3707.15,-0.0039898517571328
3708.05,-0.004065560694516972
3708.96,-0.004171507485498198
3709.86,-0.00429533377936837
3710.76,-0.004447389582628851
3711.66,-0.004600156479580168
3712.56,-0.004791895341137883
3713.46,-0.005011883767189724
3714.36,-0.005267443237942894
3715.26,-0.005484019465261396
3716.16,-0.005664752389160457
3717.06,-0.005718297864419803
3717.96,-0.0057017444817180594
3718.86,-0.0055422107619988534
3719.76,-0.0052953788066765015
3720.66,-0.005049712745622433
3721.56,-0.004871139017673919
3722.46,-0.0048449134836966315
3723.36,-0.004996827811062188
3724.26,-0.005298216469754539
3725.16,-0.005670683144913643
3726.06,-0.006030513458346215
3726.96,-0.006337276159369238
3727.86,-0.006502063730116816
3728.76,-0.0066636292387702
3729.66,-0.006698804650446961
3730.56,-0.006690124400518868
3731.46,-0.006567830884188929
3732.36,-0.006333040831557878
3733.26,-0.006010252995233448
3734.16,-0.005704143806866806
3735.06,-0.005478897495047129
3735.96,-0.005458153135359915
3736.86,-0.005652164123107644
3737.76,-0.006062008447589482
3738.66,-0.006615300505413638
3739.56,-0.007199552608107344
3740.46,-0.007764231621391912
3741.36,-0.008175178293509581
3742.26,-0.008404577705572286
3743.16,-0.008467524602236246
3744.06,-0.008412347322711887
3744.96,-0.008256993253233513
3745.86,-0.008030653099603312
3746.76,-0.007760401096214796
3747.67,-0.007469415973902483
3748.57,-0.007195925228014218
3749.47,-0.007029718346392401
3750.37,-0.0070925427701947754
3751.27,-0.007434683156046057
3752.17,-0.008029879508684652
3753.07,-0.008803262331329179
3753.97,-0.00960986976649676
3754.87,-0.01037722204877688
3755.77,-0.010903242658902109
3756.67,-0.011278328577669269
3757.57,-0.011308262916213
3758.47,-0.011247232367066722
3759.37,-0.011243908154845115
3760.27,-0.011275064861544564
3761.17,-0.01157245498119312
3762.07,-0.011922670747737982
3762.97,-0.012288975935172848
3763.87,-0.012556895582380437
3764.77,-0.012835862331016874
3765.67,-0.013007057806148485
3766.57,-0.012994775740286069
3767.47,-0.012800170523710042
3768.37,-0.012622889059104971
3769.27,-0.012437962315195615
3770.17,-0.012390579712678264
3771.07,-0.012479180529897766
3771.97,-0.012801431641529979
3772.87,-0.013388307167588608
3773.77,-0.01420874590918707
3774.67,-0.01499709495230188
3775.57,-0.015862097990204063
3776.47,-0.016630483731028947
3777.37,-0.017412506912870673
3778.27,-0.01817185135692943
3779.17,-0.01888612432436883
3780.07,-0.019766880039178876
3780.97,-0.02043308890269323
3781.87,-0.02105470362202219
3782.77,-0.02159748734272107
3783.67,-0.021978601688546973
3784.57,-0.02205164107556565
3785.47,-0.02224544655740029
3786.38,-0.022151619755230466
3787.28,-0.021841202238941412
3788.18,-0.021746926947098923
3789.08,-0.021618972614672334
3789.98,-0.021699581086113168
3790.88,-0.021785139217164278
3791.78,-0.02197442249670613
3792.68,-0.021847913960864062
3793.58,-0.021643095992628102
3794.48,-0.02116215951657324
3795.38,-0.02068828297327558
3796.28,-0.019977554458222177
3797.18,-0.01940559635446089
3798.08,-0.019266348488022573
3798.98,-0.01944471603458618
3799.88,-0.0204562968125089
3800.78,-0.02193135555952054
3801.68,-0.024063357648924394
3802.58,-0.026189517128062133
3803.48,-0.02827283603995563
3804.38,-0.029998170384244665
3805.28,-0.03141840918986648
3806.18,-0.0323829061705913
3807.08,-0.033266378216209536
3807.98,-0.0342881655311658
3808.88,-0.035350809165998205
3809.78,-0.03645288105543362
3810.68,-0.037471964269372715
3811.58,-0.038162428058059604
3812.48,-0.038413964851076864
3813.38,-0.038426507288307155
3814.28,-0.038201480330341514
3815.18,-0.038251186703089086
3816.08,-0.038594273799486885
3816.98,-0.03931650230540337
3817.88,-0.040125216283115064
3818.78,-0.040766772948783433
3819.68,-0.04140909570691129
3820.58,-0.04187734764054698
3821.48,-0.04245124239092012
3822.38,-0.04296581259412889
3823.28,-0.04314671483494414
3824.18,-0.04334301587992987
3825.09,-0.04329775796812295
3825.99,-0.04323794167696864
3826.89,-0.04297821886077752
3827.79,-0.04267596533124702
3828.69,-0.043108120626691754
3829.59,-0.04298976477244635
3830.49,-0.04267490713394935
3831.39,-0.04215630185652975
3832.29,-0.04099840497767462
3833.19,-0.039626864179515865
3834.09,-0.03842306745811606
3834.99,-0.03766218470128626
3835.89,-0.037326216684902686
3836.79,-0.03831541954770196
3837.69,-0.040039317328751954
3838.59,-0.04248630893223951
3839.49,-0.04572745296914463
3840.39,-0.04956720691036741
3841.29,-0.05388814340576754
3842.19,-0.05888182178008462
3843.09,-0.06383777727951731
3843.99,-0.06876750826271344
3844.89,-0.07306431397618877
3845.79,-0.07697141710760265
3846.69,-0.08054764735211872
3847.59,-0.08382272456885217
3848.49,-0.08641084672951173
3849.39,-0.08936128474306868
3850.29,-0.09199650135436087
3851.19,-0.09457416012926748
3852.09,-0.09743043405538
3852.99,-0.10032941181755546
3853.89,-0.10327948840638333
3854.79,-0.10551587115902449
3855.69,-0.10687783626353031
3856.59,-0.10851262796583265
3857.49,-0.10954246982558372
3858.39,-0.11074230373653056
3859.29,-0.1124339740199833
3860.19,-0.11480597749112027
3861.09,-0.11876352559832362
3861.99,-0.124436331609188
3862.9,-0.13025847166530577
3863.8,-0.1360714632280932
3864.7,-0.14190502358223314
3865.6,-0.14616362896079424
3866.5,-0.1504804225591901
3867.4,-0.15377290360732435
3868.3,-0.158763912166786
3869.2,-0.1613399452888708
3870.1,-0.1637909338735806
3871.0,-0.16491158644372894
3871.9,-0.16585477259231604
3872.8,-0.16839691658526842
3873.7,-0.17175325668460553
3874.6,-0.17605225416070872
3875.5,-0.1804328546108726
3876.4,-0.185938500860713
3877.3,-0.19053949147671537
3878.2,-0.19524595356753566
3879.1,-0.19824131334383088
3880.0,-0.20273730240168214
3880.9,-0.20784071549483757
3881.8,-0.21349294266272237
3882.7,-0.21825177162960516
3883.6,-0.22088515368176767
3884.5,-0.22193539617365668
3885.4,-0.220373717201116
3886.3,-0.21661865494801902
3887.2,-0.21167080154208845
3888.1,-0.20913955359110578
3889.0,-0.21005826446601342
3889.9,-0.21540529456321947
3890.8,-0.22810156685621302
3891.7,-0.24670146534889686
3892.6,-0.26965678611243793
3893.5,-0.2942112495459437
3894.4,-0.31703330710788696
3895.3,-0.33967415025999365
3896.2,-0.3641303674432473
3897.1,-0.386153766034074
3898.0,-0.4103323675005981
3898.9,-0.4326642115485342
3899.8,-0.45644703789745417
3900.7,-0.48141575351483845
3901.6,-0.5065328003290187
3902.51,-0.5319731661227483
3903.41,-0.5564386871973298
3904.31,-0.5845327768117217
3905.21,-0.6117608540783874
3906.11,-0.6420110999024845
3907.01,-0.681480394448189
3907.91,-0.725938561534518
3908.81,-0.7833463931505223
3909.71,-0.8473456552676221
3910.61,-0.9118742639812882
3911.51,-0.9833667733703667
3912.41,-1.0489022873905554
3913.31,-1.1256079586617511
3914.21,-1.1945274896784643
3915.11,-1.2771163549563165
3916.01,-1.3551430106017095
3916.91,-1.4564030638313414
3917.81,-1.5632496775489215
3918.71,-1.6772000012452126
3919.61,-1.8224041784313905
3920.51,-1.9932403481385943
3921.41,-2.205104128101873
3922.31,-2.4670650584679983
3923.21,-2.785854064313821
3924.11,-3.2175366684267552
3925.01,-3.7795885260681636
3925.91,-4.506515538020412
3926.81,-5.511677198176913
3927.71,-7.141610864562519
3928.61,-10.33688969069607
3929.51,-20.91153420586757
3930.41,98.97008220085061
3931.31,12.154492302487276
3932.21,5.7634717626983125
3933.11,3.5100181268568837
3934.01,2.48227202394214
3934.91,1.993689238553092
3935.81,1.7956660799888247
3936.71,1.7562512557954202
3937.61,1.798416192645725
3938.51,1.8662853131548591
3939.42,1.9260130531739466
3940.32,1.951703950227618
3941.22,1.9505706662845554
3942.12,1.9171336565501442
3943.02,1.8741116733768515
3943.92,1.824106564765348
3944.82,1.7729814201625367
3945.72,1.723136076987351
3946.62,1.6853898011812851
3947.52,1.6447707014974204
3948.42,1.6078731807074225
3949.32,1.5686052273303996
3950.22,1.5252819718291184
3951.12,1.4925062670329683
3952.02,1.4476978695977365
3952.92,1.4148804610962404
3953.82,1.3811597955699229
3954.72,1.3475055537813707
3955.62,1.309473913331975
3956.52,1.2795449963478764
3957.42,1.2369433241386043
3958.32,1.2010619870580612
3959.22,1.1600833444688101
3960.12,1.1110010792445804
3961.02,1.061451693529359
3961.92,0.9998850671405546
3962.82,0.9274258891614774
3963.72,0.8537390256853445
3964.62,0.7731951359911095
3965.52,0.6906609194579723
3966.42,0.6037254217962617
3967.32,0.5209678444250658
3968.22,0.45519217702360293
3969.12,0.41074318845129715
3970.02,0.3909018246532301
3970.92,0.4047809733844867
3971.82,0.44150037336999054
3972.72,0.5015600266399142
3973.62,0.5635920218020769
3974.52,0.6318475823627886
3975.42,0.6938595408940093
3976.32,0.7524169536436796
3977.22,0.7994211699747127
3978.13,0.8432581736972055
3979.03,0.8772405447942387
3979.93,0.9017187576335594
3980.83,0.919090241123395
3981.73,0.9353322361921168
3982.63,0.937292462707431
3983.53,0.9416499782756436
3984.43,0.9464224543909
3985.33,0.9474634843828067
3986.23,0.9543094175046019
3987.13,0.9601654658703015
3988.03,0.9679105869850347
3988.93,0.9747590047159648
3989.83,0.9762824947616815
3990.73,0.986199935759797
3991.63,0.9874085332777756
3992.53,0.9934522684598598
3993.43,0.9950051699444974
3994.33,0.9906734960730998
3995.23,0.9860481269686852
3996.13,0.9745159459991224
3997.03,0.9636360460792488
3997.93,0.9560135164652934
3998.83,0.9586033241593696
3999.73,0.9682281019728308
4000.63,0.9738585480946207
4001.53,0.9801834232409887
4002.43,0.9890121163201354
4003.33,0.9909269830174332
4004.23,0.98413724515103
4005.13,0.9731120388246571
4006.03,0.9614489751354146
4006.93,0.957117508100189
4007.83,0.9643636466773117
4008.73,0.9702879251667028
4009.63,0.9815061161172718
4010.53,0.9902116949079904
4011.43,0.9990509787763147
4012.33,1.0049484827308222
4013.23,1.0062899428220238
4014.13,1.005170725927662
4015.03,1.0054332606712455
4015.93,1.0095544853906004
4016.84,1.0068411198013967
4017.74,1.0107770503828848
4018.64,1.0126049227371363
4019.54,1.014187404034723
4020.44,1.0159748881082444
4021.34,1.0228356846555067
4022.24,1.0179299711220386
4023.14,1.0187302882869842
4024.04,1.018999095360973
4024.94,1.020303888900879
4025.84,1.021256103580311
4026.74,1.024882374762676
4027.64,1.0315725585580284
4028.54,1.0275774306862104
4029.44,1.0213199474464891
4030.34,1.0055380514413645
4031.24,0.991224546739299
4032.14,0.977942355082205
4033.04,0.9677966995525692
4033.94,0.9664625791467679
4034.84,0.9760564419427195
4035.74,0.9926792545632979
4036.64,1.0141907120272182
4037.54,1.035185679622516
4038.44,1.05047899386445
4039.34,1.0581760567303733
4040.24,1.0601015642147904
4041.14,1.0566328745032882
4042.04,1.0480573120050922
4042.94,1.0332614272615779
4043.84,1.0160299593157682
4044.74,0.9909902834280615
4045.64,0.9806944527120119
4046.54,0.9745811826241919
4047.44,0.981773692169649
4048.34,0.990657183975985
4049.24,1.0156056024567621
4050.14,1.026126873487145
4051.04,1.0431077698665923
4051.94,1.0491049390758784
4052.84,1.046878331683939
4053.74,1.0373623426201848
4054.65,1.0371055258155673
4055.55,1.0224006756827486
4056.45,1.022246717222916
4057.35,1.0168085000165767
4058.25,1.0179973478680548
4059.15,1.01726817586965
4060.05,1.0214094508435965
4060.95,1.025214359436401
4061.85,1.0146447987065266
4062.75,1.0107343797650123
4063.65,1.000910177943416
4064.55,0.9922761329689376
4065.45,0.9870927901303447
4066.35,0.9883754133501077
4067.25,1.0013576185751605
4068.15,1.009289210308411
4069.05,1.0223713986940368
4069.95,1.022292579001665
4070.85,1.0265658718286723
4071.75,1.0285329330863344
4072.65,1.0259485382980837
4073.55,1.0145057623002403
4074.45,1.003599963401367
4075.35,0.991854199085304
4076.25,0.986029506107212
4077.15,0.9675226889177111
4078.05,0.9582861693379705
4078.95,0.9582067205309838
4079.85,0.9681312301491694
4080.75,0.9811069688711128
4081.65,0.9975345058227681
4082.55,1.011792057373718
4083.45,1.0153310737173715
4084.35,1.0203527665849752
4085.25,1.020764805128043
4086.15,1.028069028328577
4087.05,1.0303442506467948
4087.95,1.0453183088745566
4088.85,1.0533425918447934
4089.75,1.0584902724600866
4090.65,1.0613039884293072
4091.55,1.05897180815046
4092.45,1.0470031163581575
4093.36,1.0354406230357662
4094.26,1.02117471257249
4095.16,1.0009781203752466
4096.06,0.9704106286846085
4096.96,0.94564020747909
4097.86,0.9147169444053386
4098.76,0.8803801154235334
4099.66,0.8408809572449518
4100.56,0.7997300653880269
4101.46,0.7673280853967407
4102.36,0.7458879721859084
4103.26,0.748313375503963
4104.16,0.7642434240978346
4105.06,0.7962809575056632
4105.96,0.8358693786025606
4106.86,0.872392247429467
4107.76,0.9028424251331532
4108.66,0.9273196539658914
4109.56,0.9462951533627416
4110.46,0.9618943693703822
4111.36,0.967486959904552
4112.26,0.9869578853304348
4113.16,0.9962168303636942
4114.06,1.0092041683714663
4114.96,1.0220331562115441
4115.86,1.0311035313436232
4116.76,1.0345158690714333
4117.66,1.0352497159998382
4118.56,1.0333998536959852
4119.46,1.0253539307385875
4120.36,1.0194652273394216
4121.26,1.0135071025058977
4122.16,1.0159329532334531
4123.06,1.0220540458790845
4123.96,1.020393311901079
4124.86,1.0265449723887283
4125.76,1.031693728481876
4126.66,1.0316596829873397
4127.56,1.0272566998599924
4128.46,1.0250967732859182
4129.36,1.0174676151450581
4130.26,1.0157023386359425
4131.17,1.0015324412444915
4132.06,0.9999397812508903
4132.97,0.9949072785860069
4133.87,0.9952012288123184
4134.77,0.9956558348690404
4135.67,1.0037887577417433
4136.57,1.0219786097158177
4137.47,1.0334694250160739
4138.37,1.0501164782656498
4139.27,1.0548155194721003
4140.17,1.0550637891333123
4141.07,1.0492404289628416
4141.97,1.04010157456956
4142.87,1.0198219394909827
4143.77,1.0099803784788586
4144.67,1.006764133809212
4145.57,1.0020221578081048
4146.47,1.0138617310503442
4147.37,1.0179955617304643
4148.27,1.0234323376917471
4149.17,1.0323372933973178
4150.07,1.0327319291086212
4150.97,1.0353418452747618
4151.87,1.027560121298846
4152.77,1.0208627775369692
4153.67,1.0192348690371946
4154.57,1.0106227817906233
4155.47,1.007420978578784
4156.37,1.010940132424842
4157.27,1.0113703225778463
4158.17,1.0181502992849871
4159.07,1.0262534810991675
4159.97,1.0291997683238163
4160.87,1.0445081505053728
4161.77,1.051800299858304
4162.67,1.0504036443535925
4163.57,1.0523075927395833
4164.47,1.0569181207496237
4165.37,1.0508336371065843
4166.27,1.05335371960944
4167.17,1.0457747670061606
4168.07,1.0436476544147761
4168.98,1.0324242703795756
4169.88,1.023325839640781
4170.78,1.009353453800663
4171.68,0.9908713322343539
4172.58,0.9800325232850808
4173.48,0.9685083332117586
4174.38,0.9579943574839632
4175.28,0.9607674561057162
4176.18,0.9641156302648741
4177.08,0.9708863844463086
4177.98,0.9764002165407538
4178.88,0.9871423611500677
4179.78,0.9938489821250351
4180.68,1.0017376542532965
4181.58,1.0035168332139008
4182.48,1.0058022860665294
4183.38,1.0120280112518243
4184.28,1.0092545287847303
4185.18,1.008752027942212
4186.08,1.0069282627052922
4186.98,1.0043495407832812
4187.88,1.0049204502087048
4188.78,1.0025674922665484
4189.68,1.0094382293396744
4190.58,1.0104051663782383
4191.48,1.0178629774154746
4192.38,1.0265079638724124
4193.28,1.028751766413386
4194.18,1.0290437298369774
4195.08,1.0225751433371344
4195.98,1.019187235019959
4196.88,1.0077263176497848
4197.78,0.9987822716277391
4198.68,0.9818539045852505
4199.58,0.9760683103950625
4200.48,0.9697736975617323
4201.38,0.9656788799903572
4202.28,0.9709286819615037
4203.18,0.971103469529661
4204.08,0.9819377390087944
4204.98,0.9894625748971924
4205.88,0.9954857403909252
4206.79,1.0050539384966717
4207.69,1.0178236813890604
4208.59,1.0248410523340001
4209.49,1.0337037488612975
4210.39,1.0348178399751493
4211.29,1.039748245276242
4212.19,1.0384162110156667
4213.09,1.035598659257471
4213.99,1.027373988868836
4214.89,1.0186111111845302
4215.79,1.0106001848212192
4216.69,1.0082651440704888
4217.59,1.009023860486043
4218.49,1.010180577445194
4219.39,1.0200664462383071
4220.29,1.0280362026186753
4221.19,1.0320447527345493
4222.09,1.030065291614902
4222.99,1.0153128880040425
4223.89,0.9927520397228738
4224.79,0.9690921932875921
4225.69,0.9415940090589122
4226.59,0.9222359249903099
4227.49,0.9132138038222859
4228.39,0.9203078760546386
4229.29,0.9392528409290029
4230.19,0.9610260353353816
4231.09,0.9878026425581297
4231.99,1.0031923894387027
4232.89,1.013415330177569
4233.79,1.0138928064693014
4234.69,1.0135096904879446
4235.59,1.0078461186989673
4236.49,1.0004420864653525
4237.39,0.9963806354544157
4238.29,0.9966046982658802
4239.19,1.0036664158129869
4240.09,1.0124616220531533
4240.99,1.0136498118002082
4241.89,1.02901341039464
4242.79,1.0316205874705342
4243.69,1.0405584811568493
4244.59,1.041826902662413
4245.5,1.037354057749553
4246.4,1.0316993634999665
4247.3,1.0295647272527304
4248.2,1.012012504732149
4249.1,1.0088563598653817
4250.0,1.0026060146666447
4250.9,1.0028398441725181
4251.8,1.0077173233456926
4252.7,1.0125797686375728
4253.6,1.0167313116064267
4254.5,1.0257006772806467
4255.4,1.0290794827351613
4256.3,1.034940316176669
4257.2,1.0364733231893233
4258.1,1.0305878484960074
4259.0,1.0262729014682308
4259.9,1.0216959285267746
4260.8,1.0186237709442827
4261.7,1.020591605497088
4262.6,1.032071315549791
4263.5,1.0455389846425158
4264.4,1.0571112320100051
4265.3,1.066202681520372
4266.2,1.07383181227594
4267.1,1.0716251317374397
4268.0,1.0612238994218903
4268.9,1.0489617292359275
4269.8,1.0322914718045284
4270.7,1.014034662801916
4271.6,0.9962208132573174
4272.5,0.9817287066876026
4273.4,0.9761363026493166
4274.3,0.9794339813728892
4275.2,0.9821663943944803
4276.1,0.9972534786225382
4277.0,1.0139461329833062
4277.9,1.028020949585605
4278.8,1.040081749561814
4279.7,1.0442575957070515
4280.6,1.0461721614474615
4281.5,1.0382525992398441
4282.4,1.035141800322687
4283.31,1.027105230492361
4284.21,1.0251010263718798
4285.11,1.014370117662538
4286.01,1.0074633760527731
4286.91,1.0000943963604498
4287.81,0.9861524286075025
4288.71,0.9736774245710004
4289.61,0.9617019592760633
4290.51,0.9543134966127224
4291.41,0.9565047535486647
4292.31,0.962562352890957
4293.21,0.9676930502941944
4294.11,0.9775489108032894
4295.01,0.979593864740462
4295.91,0.9769434417017742
4296.81,0.9630092087220125
4297.71,0.9426626384503599
4298.61,0.9251815852156684
4299.51,0.8973468914742555
4300.41,0.8802495119193733
4301.31,0.8656918774934229
4302.21,0.8546278211538874
4303.11,0.8542210983713445
4304.01,0.8523351053455307
4304.91,0.8540912634862008
4305.81,0.8588526014859262
4306.71,0.8560782323980953
4307.61,0.8516526894164645
4308.51,0.8479500938963447
4309.41,0.8562804555922323
4310.31,0.8560716900857328
4311.21,0.8700140862731812
4312.11,0.8847787970954957
4313.01,0.9084501338374533
4313.91,0.9360569651518653
4314.81,0.9687176369560823
4315.71,1.0028930023689069
4316.61,1.033013997773331
4317.51,1.0590346447199903
4318.41,1.0870121069848164
4319.31,1.0986892843963265
4320.21,1.1032397374943261
4321.12,1.094317232330965
4322.02,1.0676910516788047
4322.92,1.0512259058728008
4323.82,1.022029123342191
4324.72,1.0008797730965242
4325.62,0.9887493894503747
4326.52,0.9812402669624701
4327.42,0.9843627768342603
4328.32,0.9987056757915777
4329.22,1.019036238122323
4330.12,1.0305587365038131
4331.02,1.0460248971163422
4331.92,1.0518533236844856
4332.82,1.0476724377018591
4333.72,1.0415528234528675
4334.62,1.0317205349927394
4335.52,1.0113001653992746
4336.42,0.9748721970646832
4337.32,0.937241801061226
4338.22,0.893697092645188
4339.12,0.8489136878547665
4340.02,0.8139954767268268
4340.92,0.7869231058415004
4341.82,0.7826171009327689
4342.72,0.79807385326483
4343.62,0.8260545434968926
4344.52,0.8642300891438511
4345.42,0.9081433036866321
4346.32,0.943173140937364
4347.22,0.972656381351352
4348.12,0.9969777273599404
4349.02,1.00791827854561
4349.92,1.0136245120471887
4350.82,1.0117520661581056
4351.72,1.0065237255966564
4352.62,1.003189317936075
4353.52,0.9999857168324573
4354.42,1.0053900872888824
