wave,flux
3700.85,-0.0025021447036198898
3701.75,-0.0025074543110295334
3702.65,-0.0024684401063501567
3703.55,-0.0023960820935167914
3704.45,-0.0023174257542859823
3705.35,-0.002249398203411331
3706.25,-0.0022173739473536932
3707.15,-0.002224433972441497
3708.05,-0.002260856339179112
3708.96,-0.002326889004271445
3709.86,-0.0023979310756633942
3710.76,-0.002492729354109132
3711.66,-0.002596253614933933
3712.56,-0.0027253145031355367
3713.46,-0.0028544233756344624
3714.36,-0.003012598306346844
3715.26,-0.003133669490722127
3716.16,-0.0032185816997551153
3717.06,-0.003252496884530434
3717.96,-0.0032073909764680627
3718.86,-0.003098734558496325
3719.76,-0.0029413470623446724
3720.66,-0.0027929919799972855
3721.56,-0.00268572202172304
3722.46,-0.002668954894535074
3723.36,-0.0027712331783976726
3724.26,-0.002942480051078266
3725.16,-0.003167581583218824
3726.06,-0.003379243285568052
3726.96,-0.003541516045703013
3727.86,-0.0036511103080009905
3728.76,-0.0037126013283865305
3729.66,-0.0037495165830979072
3730.56,-0.003713522802539411
3731.46,-0.003622146250645084
3732.36,-0.0034509888572670706
3733.26,-0.003267244299790999
3734.16,-0.0030639958083144105
3735.06,-0.00294899118214871
3735.96,-0.00294799894745919
3736.86,-0.0030692771282545875
3737.76,-0.0033123990051688356
3738.66,-0.0036376748018092995
3739.56,-0.003996201633743123
3740.46,-0.004315811492122149
3741.36,-0.004553662679496555
3742.26,-0.004700487822949381
3743.16,-0.0046966323174904194
3744.06,-0.004656818121480114
3744.96,-0.0045045383339313285
3745.86,-0.004345952594840903
3746.76,-0.0041615286271304815
3747.67,-0.003992810398353696
3748.57,-0.0038492641137768415
3749.47,-0.003757154285300099
3750.37,-0.003803702383903981
3751.27,-0.004030760526526793
3752.17,-0.00439330781918725
3753.07,-0.004853484697555013
3753.97,-0.005348585067373604
3754.87,-0.005792265135522771
3755.77,-0.00608256440922926
3756.67,-0.006286000491744269
3757.57,-0.006290203028566094
3758.47,-0.006263746544153723
3759.37,-0.006224668342719081
3760.27,-0.006264242716662698
3761.17,-0.00639019775952369
3762.07,-0.006572930345067261
3762.97,-0.006746193994785822
3763.87,-0.0068980315810579975
3764.77,-0.006974664610937669
3765.67,-0.007024527689263944
3766.57,-0.00697897746722543
3767.47,-0.006856884641188902
3768.37,-0.006745639267843908
3769.27,-0.006642133837371316
3770.17,-0.006602341552017221
3771.07,-0.006693786679955893
3771.97,-0.006886119622638656
3772.87,-0.007262998398494397
3773.77,-0.007739366502053435
3774.67,-0.008211328008441264
3775.57,-0.008702260896290667
3776.47,-0.009155290592031854
3777.37,-0.009642618374764786
3778.27,-0.010092441831425065
3779.17,-0.010587730986288563
3780.07,-0.011024801097248424
3780.97,-0.011458456621949657
3781.87,-0.011808571619827086
3782.77,-0.012227033309574396
3783.67,-0.01242649386909882
3784.57,-0.01250942507104431
3785.47,-0.012436121316027048
3786.38,-0.012307535711794446
3787.28,-0.012096565825220713
3788.18,-0.01192527525843345
3789.08,-0.011847235702119466
3789.98,-0.011743701523990102
3790.88,-0.011730960606034128
3791.78,-0.011726175077532562
3792.68,-0.011632646697438166
3793.58,-0.011450417730356904
3794.48,-0.011148771161855656
3795.38,-0.010766823170822523
3796.28,-0.010383112302362893
3797.18,-0.010036839532126397
3798.08,-0.009913607918402206
3798.98,-0.010062833488259855
3799.88,-0.010549845929013847
3800.78,-0.011451636924839012
3801.68,-0.012574986206028484
3802.58,-0.01373727142091241
3803.48,-0.014925738353237312
3804.38,-0.015921795969515873
3805.28,-0.016780410803549698
3806.18,-0.017446053195174924
3807.08,-0.01793615671615486
3807.98,-0.018556423585946273
3808.88,-0.019171070908221666
3809.78,-0.019864316524018936
3810.68,-0.02047743127280628
3811.58,-0.02089065075161136
3812.48,-0.021047452240047358
3813.38,-0.020934054136371096
3814.28,-0.020834535338785223
3815.18,-0.020733602720461722
3816.08,-0.020787305709211782
3816.98,-0.02115918843181914
3817.88,-0.021569992097167038
3818.78,-0.02199345734939393
3819.68,-0.022305687677122824
3820.58,-0.02246248056047099
3821.48,-0.022591428174450413
3822.38,-0.02275002667660859
3823.28,-0.022877476613230096
3824.18,-0.022706025563327622
3825.09,-0.02253451728399504
3825.99,-0.022247226188058137
3826.89,-0.022107059420786994
3827.79,-0.021924263103003747
3828.69,-0.021829041258597665
3829.59,-0.021767794436514134
3830.49,-0.021456359635586467
3831.39,-0.0211219977031951
3832.29,-0.020507731595629977
3833.19,-0.019728170144797746
3834.09,-0.019039831045030268
3834.99,-0.018731651475504308
3835.89,-0.018610701500782943
3836.79,-0.019091716387346518
3837.69,-0.019938756581216036
3838.59,-0.021215096615585797
3839.49,-0.022834302532686077
3840.39,-0.02483445885009329
3841.29,-0.02719108503389452
3842.19,-0.029788501600084758
3843.09,-0.03270613515127159
3843.99,-0.0352051219879967
3844.89,-0.037618767584689745
3845.79,-0.039793769296366466
3846.69,-0.041933817639470204
3847.59,-0.04350182594357329
3848.49,-0.04502412431846485
3849.39,-0.046669487699591
3850.29,-0.04806458276715205
3851.19,-0.04953679007114445
3852.09,-0.051244662395110975
3852.99,-0.05273823056188149
3853.89,-0.054083135002393326
3854.79,-0.055428757678070255
3855.69,-0.056003454612124505
3856.59,-0.05659477050723014
3857.49,-0.0567234958853307
3858.39,-0.05741211821964992
3859.29,-0.05824465584897599
3860.19,-0.05965513370043748
3861.09,-0.06175309852684856
3861.99,-0.06439366444730951
3862.9,-0.06757004013423389
3863.8,-0.07041415969842604
3864.7,-0.07325007410278463
3865.6,-0.07568110326223564
3866.5,-0.0776027004777116
3867.4,-0.07932840372631036
3868.3,-0.08070259039622252
3869.2,-0.08155995971490021
3870.1,-0.0829179932619893
3871.0,-0.08354421701998647
3871.9,-0.08366773625653723
3872.8,-0.0848461256199324
3873.7,-0.08600821479795884
3874.6,-0.08815933484662847
3875.5,-0.09116191266977546
3876.4,-0.09289113331480567
3877.3,-0.09489309417881889
3878.2,-0.09592127913541268
3879.1,-0.09672092432215314
3880.0,-0.09751093637345228
3880.9,-0.0990298135192453
3881.8,-0.10027858783519794
3882.7,-0.10163438578593113
3883.6,-0.10188171928632314
3884.5,-0.10100917440546554
3885.4,-0.09940812664552667
3886.3,-0.09711104691450421
3887.2,-0.09445828518825168
3888.1,-0.09237340362689622
3889.0,-0.09278084013203532
3889.9,-0.095241797601511
3890.8,-0.10116554861872279
3891.7,-0.10975637537755999
3892.6,-0.11948889944941929
3893.5,-0.13069684320339947
3894.4,-0.14125220134481767
3895.3,-0.15121199432330173
3896.2,-0.16132366073698956
3897.1,-0.1709214861435429
3898.0,-0.18024281649975282
3898.9,-0.1893873668115368
3899.8,-0.1991246939443028
3900.7,-0.20792455191753478
3901.6,-0.21827649053814394
3902.51,-0.22714647242460273
3903.41,-0.23677403984062556
3904.31,-0.24400079371157848
3905.21,-0.25293674201715716
3906.11,-0.26481095499515245
3907.01,-0.277197801087095
3907.91,-0.29387690653682447
3908.81,-0.3128199278252519
3909.71,-0.33288294731336887
3910.61,-0.35443390870491004
3911.51,-0.37589529202140515
3912.41,-0.3954313533497669
3913.31,-0.41290229975246545
3914.21,-0.4298398318216997
3915.11,-0.4439818154204368
3916.01,-0.46011365908246926
3916.91,-0.47537073687348846
3917.81,-0.49227056247354156
3918.71,-0.5087137881589029
3919.61,-0.5280377556225848
3920.51,-0.5487550280180861
3921.41,-0.5694974701847869
3922.31,-0.5968620107604516
3923.21,-0.6301548268479865
3924.11,-0.6597847428839628
3925.01,-0.6888645279153487
3925.91,-0.7136793137122626
3926.81,-0.7322781735119444
3927.71,-0.7410077777918604
3928.61,-0.7340195924476887
3929.51,-0.721603126640556
3930.41,-0.6979565228137469
3931.31,-0.6689292451069474
3932.21,-0.6396625904643151
3933.11,-0.62398856514143
3934.01,-0.634189338056342
3934.91,-0.6889452405850394
3935.81,-0.8108571341539274
3936.71,-1.0113103470404192
3937.61,-1.3022615598519092
3938.51,-1.6993572050631176
3939.42,-2.2406819921982044
3940.32,-2.947465822066483
3941.22,-3.932107745811188
3942.12,-5.41616580664779
3943.02,-8.182068585611116
3943.92,-15.076310361650625
3944.82,-72.27521228264031
3945.72,28.742015514306225
3946.62,12.458322680804706
3947.52,8.197611315239273
3948.42,6.128555767531803
3949.32,4.9699404871853865
3950.22,4.196225792474116
3951.12,3.6384291609367043
3952.02,3.2302693402168736
3952.92,2.900965651229198
3953.82,2.6337016886690963
3954.72,2.4249176448734184
3955.62,2.22337039408565
3956.52,2.066336800744734
3957.42,1.9135603467249218
3958.32,1.7844498966955256
3959.22,1.6594284832973791
3960.12,1.5347538605783209
3961.02,1.416576696739924
3961.92,1.28764315274146
3962.82,1.1663273203949749
3963.72,1.0484438233563715
3964.62,0.9300258302771237
3965.52,0.8143301929239629
3966.42,0.7078535363683568
3967.32,0.6074334484413461
3968.22,0.5264098029564065
3969.12,0.47035920387441893
3970.02,0.4482259951651911
3970.92,0.451901121884217
3971.82,0.48332613602357427
3972.72,0.5361433244503981
3973.62,0.5958031102261704
3974.52,0.6597635055737328
3975.42,0.7167101766599021
3976.32,0.7683952559503157
3977.22,0.8216034076511498
3978.13,0.8585840512001429
3979.03,0.8976301654432256
3979.93,0.9261214251335008
3980.83,0.9420568378001425
3981.73,0.9571112857884715
3982.63,0.9606819595640514
3983.53,0.9624247094128471
3984.43,0.9594373991998864
3985.33,0.9641214861987891
3986.23,0.9701495480774865
3987.13,0.9677740002967101
3988.03,0.9779937517436146
3988.93,0.9844821124694377
3989.83,0.9879297568003795
3990.73,0.9959484171327551
3991.63,0.9973499624692735
3992.53,0.9988449219391318
3993.43,1.0002105846718714
3994.33,0.9953358135984506
3995.23,0.9866540992514496
3996.13,0.9758192066773848
3997.03,0.9650039282276666
3997.93,0.9638307628750076
3998.83,0.9644575206756987
3999.73,0.9693839763820883
4000.63,0.9826677674294254
4001.53,0.9865852753940167
4002.43,0.9951671233205353
4003.33,0.9867356307314851
4004.23,0.9807998656179131
4005.13,0.9667754923554404
4006.03,0.9569261278730926
4006.93,0.9524098414020219
4007.83,0.9497153577722414
4008.73,0.9625789240676405
4009.63,0.971242376288544
4010.53,0.9875221060441811
4011.43,0.9949606261130739
4012.33,1.002560137448492
4013.23,1.0010590040018554
4014.13,1.0047969703176851
4015.03,1.0072562041024498
4015.93,1.0125722684701757
4016.84,1.0082487994494769
4017.74,1.0104260286068467
4018.64,1.0168034849185719
4019.54,1.0212434869324332
4020.44,1.0250102612334209
4021.34,1.0287952209763702
4022.24,1.030348766444022
4023.14,1.0271026862747483
4024.04,1.0177323845342525
4024.94,1.0244086798172265
4025.84,1.0238841260287184
4026.74,1.031969632025259
4027.64,1.0333454067620023
4028.54,1.02987812311886
4029.44,1.0204116231791591
4030.34,0.999504087834339
4031.24,0.979023557598004
4032.14,0.9612232843218304
4033.04,0.9508545969044915
4033.94,0.9527590704911573
4034.84,0.9610927638350196
4035.74,0.9831254630119298
4036.64,1.0080084915267968
4037.54,1.0352268863949277
4038.44,1.0550534303870185
4039.34,1.0619244271957504
4040.24,1.068847998692473
4041.14,1.0672404107561315
4042.04,1.051227730275961
4042.94,1.0397425565835776
4043.84,1.0152027691099803
4044.74,0.9953160860848319
4045.64,0.9797752091980015
4046.54,0.9685996141150578
4047.44,0.9762170697686171
4048.34,0.9952669706902698
4049.24,1.0160431862482442
4050.14,1.0433958612855478
4051.04,1.0537810792798523
4051.94,1.062712545932763
4052.84,1.0568083376138693
4053.74,1.0503145261004336
4054.65,1.0372674018888628
4055.55,1.0244325310031437
4056.45,1.017894400758966
4057.35,1.0164418667857544
4058.25,1.0118088161145808
4059.15,1.0137795996040169
4060.05,1.0219179562580072
4060.95,1.0209441909005905
4061.85,1.0190985454430945
4062.75,1.0116587349837796
4063.65,1.001842104444424
4064.55,0.9951951452694096
4065.45,0.9916465475736075
4066.35,0.9983852352498631
4067.25,1.0078856914443222
4068.15,1.0213584202469201
4069.05,1.0328093623983703
4069.95,1.0382389101553775
4070.85,1.0404238458806798
4071.75,1.0349719629136873
4072.65,1.0312758421806048
4073.55,1.0279736269964823
4074.45,1.0176728485148288
4075.35,1.0115191908683883
4076.25,0.9945591762922243
4077.15,0.9798171167041002
4078.05,0.9749667796024248
4078.95,0.9706714978590439
4079.85,0.9827064523443381
4080.75,1.0005055974024961
4081.65,1.014724954791062
4082.55,1.0310656733660293
4083.45,1.0357441634223554
4084.35,1.0356584334344543
4085.25,1.0380564451865981
4086.15,1.0388384136319018
4087.05,1.044274033525989
4087.95,1.052121511774634
4088.85,1.0601415301082349
4089.75,1.0582190391359152
4090.65,1.0595025868166275
4091.55,1.0504270074500321
4092.45,1.036180529563865
4093.36,1.0205824635246348
4094.26,0.9974077630845536
4095.16,0.971329558997963
4096.06,0.9358335766819958
4096.96,0.9102028276778373
4097.86,0.8734327418910355
4098.76,0.8345587693410708
4099.66,0.7943828701090584
4100.56,0.7548545267224143
4101.46,0.7215147988203096
4102.36,0.704890297542802
4103.26,0.705955245387856
4104.16,0.7235599214036024
4105.06,0.7572612488916942
4105.96,0.7977661488932768
4106.86,0.8390163190871637
4107.76,0.8738915910336414
4108.66,0.9034240309048982
4109.56,0.9224652900401596
4110.46,0.9375023715464427
4111.36,0.9542531251608833
4112.26,0.9730814086772639
4113.16,0.9878790225269679
4114.06,0.9994517849743364
4114.96,1.0205083697044974
4115.86,1.0317826589333923
4116.76,1.0372294459164244
4117.66,1.0377910425557866
4118.56,1.0328958282161524
4119.46,1.035107254731769
4120.36,1.027564728285276
4121.26,1.0283502652494
4122.16,1.0275445907081182
4123.06,1.0309735229657442
4123.96,1.0320556425492338
4124.86,1.0401064209503283
4125.76,1.0452465102244006
4126.66,1.0412415335149448
4127.56,1.038516328229675
4128.46,1.0334075142415837
4129.36,1.0173331029687673
4130.26,1.0153563700751642
4131.17,1.004578570357793
4132.06,0.999809333093437
4132.97,0.9995312591732273
4133.87,0.9980783796777387
4134.77,1.0062558189489506
4135.67,1.0137595554585195
4136.57,1.0393385640257924
4137.47,1.0562935252093166
4138.37,1.0749174414788458
4139.27,1.0766868615945298
4140.17,1.0820022425372438
4141.07,1.0754199237772155
4141.97,1.0590447732337689
4142.87,1.0434353857627248
4143.77,1.022164692425386
4144.67,1.015496185348029
4145.57,1.0152470211948443
4146.47,1.0172017210866817
4147.37,1.0294666682413545
4148.27,1.0376320242083716
4149.17,1.0411920990380532
4150.07,1.0407544076698667
4150.97,1.0374021461453176
4151.87,1.0288370094713266
4152.77,1.025596465971855
4153.67,1.0165624943029237
4154.57,1.00913040166875
4155.47,1.009089970233112
4156.37,1.0056560907021905
4157.27,1.010249432047294
4158.17,1.0144762565161254
4159.07,1.0259489054690727
4159.97,1.0377890896803774
4160.87,1.0480810634306532
4161.77,1.0575070232100503
4162.67,1.0656775362264617
4163.57,1.0682098129833963
4164.47,1.0655297853731336
4165.37,1.0651182976081601
4166.27,1.0617368347812814
4167.17,1.0506384128516284
4168.07,1.0442510500976618
4168.98,1.0338400390807274
4169.88,1.0231642402793324
4170.78,1.0085388746747987
4171.68,0.9936712772888184
4172.58,0.9763450601130762
4173.48,0.9647999734984599
4174.38,0.9544402179805884
4175.28,0.9515714503976933
4176.18,0.9532724737878856
4177.08,0.9594698461176008
4177.98,0.9655593121234304
4178.88,0.9696504568954687
4179.78,0.9751356286175996
4180.68,0.9862998106941132
4181.58,0.9918616767144548
4182.48,0.9965742659492041
4183.38,1.000450337820636
4184.28,1.0006748813670343
4185.18,1.004127830591083
4186.08,1.0048153137191624
4186.98,1.003356124581991
4187.88,0.9995860413945744
4188.78,0.9976518190934381
4189.68,1.0032552666618701
4190.58,1.0111829577023894
4191.48,1.0177281381901346
4192.38,1.0229595044509319
4193.28,1.030665153744169
4194.18,1.030489886113247
4195.08,1.024300528163039
4195.98,1.0138846691819985
4196.88,0.9992500695817961
4197.78,0.984191772201506
4198.68,0.9689388652460195
4199.58,0.9601425852851664
4200.48,0.9572320356014268
4201.38,0.9571537093935639
4202.28,0.959978957644087
4203.18,0.9651352495618528
4204.08,0.972841498254811
4204.98,0.9866177508104543
4205.88,0.9943872270403353
4206.79,1.0086372069360094
4207.69,1.0167208623351949
4208.59,1.029857547809854
4209.49,1.0376166692562843
4210.39,1.039387809096165
4211.29,1.0420282602521194
4212.19,1.0387712470524826
4213.09,1.0355301728453405
4213.99,1.0263013589049332
4214.89,1.0205723242882148
4215.79,1.012875750261743
4216.69,1.0105750720463413
4217.59,1.0159802275795868
4218.49,1.0257540761964974
4219.39,1.0408972990081458
4220.29,1.0497944329379172
4221.19,1.0497824103637834
4222.09,1.0436084003175425
4222.99,1.0281831747121883
4223.89,1.00224833543843
4224.79,0.9673282871214769
4225.69,0.9348799335581558
4226.59,0.9104468541104119
4227.49,0.9011621066940028
4228.39,0.9093965002820341
4229.29,0.9330861298553119
4230.19,0.9613634283159721
4231.09,0.9891499700229521
4231.99,1.013275356844312
4232.89,1.0194032353915625
4233.79,1.018397257109396
4234.69,1.0121186638897652
4235.59,1.0029916533606216
4236.49,0.9999024336656892
4237.39,0.9958356850082543
4238.29,0.9986868468190911
4239.19,1.0009378414612882
4240.09,1.0116555913403555
4240.99,1.0229716986688333
4241.89,1.034814200984288
4242.79,1.038313154252855
4243.69,1.050116355806465
4244.59,1.0526951559175852
4245.5,1.054728567219219
4246.4,1.0480189952130485
4247.3,1.0357717262633963
4248.2,1.0272074073487738
4249.1,1.014656474988587
4250.0,1.0109145442047676
4250.9,1.0041293465008163
4251.8,1.002717493387017
4252.7,1.0083091647136173
4253.6,1.0169146818317665
4254.5,1.0210868376698703
4255.4,1.0237005172841052
4256.3,1.0312892902204411
4257.2,1.0300070194686173
4258.1,1.0317531546057503
4259.0,1.0237676730995249
4259.9,1.0173459433241239
4260.8,1.0170987051121363
4261.7,1.017075713038595
4262.6,1.0284027567849765
4263.5,1.045272460972979
4264.4,1.0632916451901127
4265.3,1.0758944115316598
4266.2,1.0845087936615236
4267.1,1.0875293797060772
4268.0,1.075371941863642
4268.9,1.0605825907370612
4269.8,1.0317367603594845
4270.7,1.0088633811581726
4271.6,0.9825898418733848
4272.5,0.9658983789236404
4273.4,0.9605821430505385
4274.3,0.9618138712794175
4275.2,0.9768713843880948
4276.1,0.9883533190418393
4277.0,1.0125694448350766
4277.9,1.0295571886594514
4278.8,1.0473300694007934
4279.7,1.0561767925119252
4280.6,1.0521572274414785
4281.5,1.0570612637949892
4282.4,1.0494053312998974
4283.31,1.0399574882749412
4284.21,1.035858899505169
4285.11,1.0292716090446075
4286.01,1.022179200287528
4286.91,1.0089295323987002
4287.81,0.9954984373576671
4288.71,0.9810177805990288
4289.61,0.9669927570167245
4290.51,0.9616149057168304
4291.41,0.96154743586007
4292.31,0.9666519293699094
4293.21,0.9767380516264405
4294.11,0.9892412578853071
4295.01,0.9912794551425187
4295.91,0.9872215584230414
4296.81,0.9778753597206467
4297.71,0.9579912878005378
4298.61,0.932819923143577
4299.51,0.906085534206341
4300.41,0.8867985043221975
4301.31,0.8665258508384964
4302.21,0.8601214368434655
4303.11,0.8574536649858063
4304.01,0.858138502753521
4304.91,0.8600482663765682
4305.81,0.8606873720708741
4306.71,0.8604303893669524
4307.61,0.8535374243866151
4308.51,0.8570552268217076
4309.41,0.8605819166243225
4310.31,0.8615687515523971
4311.21,0.8765164163091248
4312.11,0.8989061819059622
4313.01,0.9232374900750357
4313.91,0.9488805238703198
4314.81,0.98490354326606
4315.71,1.0160809611866959
4316.61,1.0518850550690715
4317.51,1.077848469430123
4318.41,1.0965207864674607
4319.31,1.116251389112412
4320.21,1.1119533305396831
4321.12,1.0980161621954851
4322.02,1.0706800202751636
4322.92,1.0430057632779433
4323.82,1.0139914159185788
4324.72,0.9878301254406724
4325.62,0.9650873281757817
4326.52,0.9578533625793222
4327.42,0.957237740929991
4328.32,0.9742802854307642
4329.22,0.9951890763874862
4330.12,1.0056988245182732
4331.02,1.0216932703407506
4331.92,1.0238260679966567
4332.82,1.023504426650647
4333.72,1.0177723188657777
4334.62,1.0019098483577902
4335.52,0.972704623753873
4336.42,0.942526179385161
4337.32,0.8973376672274365
4338.22,0.847211046530243
4339.12,0.8007584802106807
4340.02,0.7619493127676724
4340.92,0.73571061738888
4341.82,0.7334862893382985
4342.72,0.744554120632947
4343.62,0.7794192532954098
4344.52,0.8210082777802793
4345.42,0.8590659292417249
4346.32,0.9010978093108184
4347.22,0.9333156841659644
4348.12,0.9602774707539483
4349.02,0.975511613091733
4349.92,0.9857466806689245
