wave,flux
3700.85,-0.00010367935822074564
3701.75,-0.00010316907125326811
3702.65,-0.0001012687648454963
3703.55,-9.758802443208693e-05
3704.45,-9.424988088468247e-05
3705.35,-9.172437423050342e-05
3706.25,-9.017481617147957e-05
3707.15,-9.025997709639619e-05
3708.05,-9.164807835529624e-05
3708.96,-9.310419916752715e-05
3709.86,-9.498802695571021e-05
3710.76,-9.694014359191602e-05
3711.66,-9.912180344922249e-05
3712.56,-0.00010258848632528686
3713.46,-0.00010615408999924432
3714.36,-0.0001103846968912049
3715.26,-0.00011392383444353684
3716.16,-0.00011610833503528294
3717.06,-0.00011700526058217327
3717.96,-0.00011550653255013106
3718.86,-0.00011125254392273961
3719.76,-0.00010582458960965584
3720.66,-0.00010046908671577619
3721.56,-9.566557553578706e-05
3722.46,-9.445072906711876e-05
3723.36,-9.674778480206292e-05
3724.26,-0.00010141640581484263
3725.16,-0.00010734382286818312
3726.06,-0.0001130322000379127
3726.96,-0.00011702540688373142
3727.86,-0.00011962767609599586
3728.76,-0.00012112882568453556
3729.66,-0.00012097041436178116
3730.56,-0.00011947288441792564
3731.46,-0.00011672131028753819
3732.36,-0.00011115288507481263
3733.26,-0.00010550468174424934
3734.16,-9.894800635625853e-05
3735.06,-9.428230605074706e-05
3735.96,-9.318746607186668e-05
3736.86,-9.527320051609118e-05
3737.76,-0.00010125258483263219
3738.66,-0.0001087964784958766
3739.56,-0.0001173281998901596
3740.46,-0.0001250198979111106
3741.36,-0.00012960622709955226
3742.26,-0.00013187781853697233
3743.16,-0.00013194522655158745
3744.06,-0.00013002317579212245
3744.96,-0.00012683604916776582
3745.86,-0.00012159479345673829
3746.76,-0.0001162057349573116
3747.67,-0.0001119695621846468
3748.57,-0.00010653447461650917
3749.47,-0.00010323579875087117
3750.37,-0.0001035281428778724
3751.27,-0.00010733734503437346
3752.17,-0.00011458724719458666
3753.07,-0.00012448685074043157
3753.97,-0.00013403735016036443
3754.87,-0.0001424585967469694
3755.77,-0.00014789895170092305
3756.67,-0.0001504029686921343
3757.57,-0.00014991292619205205
3758.47,-0.00014757082598750888
3759.37,-0.00014528747613113045
3760.27,-0.00014533500652113762
3761.17,-0.0001458897779894399
3762.07,-0.00014956671893079758
3762.97,-0.0001523607386319655
3763.87,-0.00015524333436258203
3764.77,-0.0001568188749526434
3765.67,-0.00015702863883555051
3766.57,-0.00015527401441569466
3767.47,-0.00015239502519319453
3768.37,-0.00014930120384702207
3769.27,-0.00014522064708615446
3770.17,-0.0001428887451093005
3771.07,-0.00014183270745399826
3771.97,-0.00014438850662642618
3772.87,-0.00014898293471604844
3773.77,-0.00015585487966177458
3774.67,-0.00016219001153280056
3775.57,-0.00016943194872493547
3776.47,-0.0001759850036154913
3777.37,-0.00018088223419319432
3778.27,-0.0001859568479382232
3779.17,-0.0001912181939662036
3780.07,-0.00019679366734879475
3780.97,-0.00020190023238426163
3781.87,-0.00020606772423542715
3782.77,-0.00020804848975735775
3783.67,-0.00020878492247340493
3784.57,-0.00020873417476764846
3785.47,-0.00020620964218439058
3786.38,-0.00020289591476932903
3787.28,-0.00019889407019023643
3788.18,-0.00019598646177403775
3789.08,-0.00019352576481926746
3789.98,-0.0001931499075631045
3790.88,-0.00019214523399854806
3791.78,-0.00018982634716816014
3792.68,-0.00018763509008276106
3793.58,-0.00018438842282154734
3794.48,-0.00017803363697553487
3795.38,-0.00017286563008367154
3796.28,-0.00016499399881034777
3797.18,-0.0001597240168595305
3798.08,-0.00015532613147648477
3798.98,-0.00015587210591938732
3799.88,-0.00016005545789974689
3800.78,-0.0001701097679700175
3801.68,-0.0001840672054040096
3802.58,-0.00019681669199908005
3803.48,-0.00020867982651818595
3804.38,-0.00021839445687188235
3805.28,-0.0002247519800045184
3806.18,-0.00022876439900108435
3807.08,-0.0002307916676754918
3807.98,-0.00023486841971145366
3808.88,-0.00023864656880428654
3809.78,-0.00024119659450102862
3810.68,-0.0002442328052183127
3811.58,-0.0002453267818398604
3812.48,-0.00024359988061000568
3813.38,-0.00024014495831522126
3814.28,-0.00023623141288935128
3815.18,-0.0002324487727282536
3816.08,-0.00023155887585786907
3816.98,-0.00023206659571233494
3817.88,-0.00023332765158096106
3818.78,-0.00023563292438195103
3819.68,-0.00023643372065315768
3820.58,-0.00023556461874112416
3821.48,-0.00023490146434957754
3822.38,-0.00023354888054399761
3823.28,-0.00023241730644110207
3824.18,-0.00022972027312042972
3825.09,-0.00022732738614573305
3825.99,-0.00022355182913335648
3826.89,-0.00021965630056716075
3827.79,-0.00021778129155562262
3828.69,-0.0002157323808514783
3829.59,-0.0002118246342244781
3830.49,-0.00020870979850692777
3831.39,-0.00020265219294785666
3832.29,-0.00019438795721435004
3833.19,-0.00018614212867959593
3834.09,-0.00017832635675197193
3834.99,-0.00017184146980096636
3835.89,-0.0001686604798682505
3836.79,-0.0001694693685948735
3837.69,-0.00017442198580909336
3838.59,-0.00018193753147809555
3839.49,-0.00019236389198420753
3840.39,-0.00020429963310332556
3841.29,-0.000217170173803547
3842.19,-0.00023312728189268968
3843.09,-0.0002472470652169014
3843.99,-0.00026040076371182516
3844.89,-0.0002721938416364173
3845.79,-0.0002804691700754567
3846.69,-0.0002889321249204852
3847.59,-0.000294214512045183
3848.49,-0.0002985362838717089
3849.39,-0.0003024788064503765
3850.29,-0.00030567692274676567
3851.19,-0.0003090086390335847
3852.09,-0.0003118255484658538
3852.99,-0.00031543761247944765
3853.89,-0.0003181328714332018
3854.79,-0.00032029687934991355
3855.69,-0.00031872621291142425
3856.59,-0.0003165813153105869
3857.49,-0.00031236442864332004
3858.39,-0.00030949983200310213
3859.29,-0.00030912541717586535
3860.19,-0.00030867124409701593
3861.09,-0.00031398693265608126
3861.99,-0.0003212472003074776
3862.9,-0.00033023136328286777
3863.8,-0.0003386341318656744
3864.7,-0.0003454276557766186
3865.6,-0.00034990003009447546
3866.5,-0.00035402866008440943
3867.4,-0.0003558023218457508
3868.3,-0.0003563364398222641
3869.2,-0.0003573293721150305
3870.1,-0.00035506815679277543
3871.0,-0.0003505528946601924
3871.9,-0.000345819982616334
3872.8,-0.00033942275967409786
3873.7,-0.0003374445170652067
3874.6,-0.0003379492510634675
3875.5,-0.0003389438929060969
3876.4,-0.00034232266513082216
3877.3,-0.00034302286747947303
3878.2,-0.0003407349698207734
3879.1,-0.00034026664571462124
3880.0,-0.0003413573431455713
3880.9,-0.00034359984310063676
3881.8,-0.00034438212408854235
3882.7,-0.00034393720570951447
3883.6,-0.00033937431851284303
3884.5,-0.0003353502457548729
3885.4,-0.00032195836576113417
3886.3,-0.00030879966178522694
3887.2,-0.00029493605707129196
3888.1,-0.00028416465127345433
3889.0,-0.00027623092799208777
3889.9,-0.00027588841082639304
3890.8,-0.00028341855824381333
3891.7,-0.0002947192283516864
3892.6,-0.0003105976586587573
3893.5,-0.0003280203593369377
3894.4,-0.00034290917385935933
3895.3,-0.0003540713948942838
3896.2,-0.0003654234355420654
3897.1,-0.00037466063511159344
3898.0,-0.0003820014973759657
3898.9,-0.0003885577099326053
3899.8,-0.0003951502959128653
3900.7,-0.0004017503968121793
3901.6,-0.00040793509889125055
3902.51,-0.0004086232312204179
3903.41,-0.0004120964334759329
3904.31,-0.00041238084960589915
3905.21,-0.00041407336901653086
3906.11,-0.0004167786894535997
3907.01,-0.00042045413381338584
3907.91,-0.0004283036774554541
3908.81,-0.00044140796616718445
3909.71,-0.0004542234438014093
3910.61,-0.00046373207127005855
3911.51,-0.0004731215352991319
3912.41,-0.00047896653034251886
3913.31,-0.00048052776533222995
3914.21,-0.00048218807742602787
3915.11,-0.0004817542144290874
3916.01,-0.00047954099950538686
3916.91,-0.0004773838635227962
3917.81,-0.0004741508501458055
3918.71,-0.0004702139467630135
3919.61,-0.0004674939451251382
3920.51,-0.00046258547871179433
3921.41,-0.0004626769091842948
3922.31,-0.0004614382593718834
3923.21,-0.00046151280166151725
3924.11,-0.00045934708398734283
3925.01,-0.0004560213973506133
3925.91,-0.0004448050324487898
3926.81,-0.00043144865576237904
3927.71,-0.0004082087504617175
3928.61,-0.00038137557080755355
3929.51,-0.00034861371434762625
3930.41,-0.00031085711918872453
3931.31,-0.0002730093085444521
3932.21,-0.0002376712161940221
3933.11,-0.00020859859771187747
3934.01,-0.0001925374999310999
3934.91,-0.0001895801969805364
3935.81,-0.00020346541782838314
3936.71,-0.00023198460534340834
3937.61,-0.00027038161663188546
3938.51,-0.00031400565327157297
3939.42,-0.0003582465145154562
3940.32,-0.00039983396019137014
3941.22,-0.00043558007044417347
3942.12,-0.0004601827762937613
3943.02,-0.00047998018086033465
3943.92,-0.0004990599205508495
3944.82,-0.0005146957576532354
3945.72,-0.0005280312565885744
3946.62,-0.0005424731855293894
3947.52,-0.0005539777644372192
3948.42,-0.0005662005527391083
3949.32,-0.0005745621159316057
3950.22,-0.0005810594651204046
3951.12,-0.0005884059750427994
3952.02,-0.0005987514382390512
3952.92,-0.0006038657939212321
3953.82,-0.0006113286592899928
3954.72,-0.000614950052693718
3955.62,-0.0006149920066233933
3956.52,-0.0006150356717721541
3957.42,-0.0006133306566460381
3958.32,-0.0006148102914117733
3959.22,-0.0006070221111130972
3960.12,-0.0005983876802822108
3961.02,-0.0005859309782353044
3961.92,-0.0005634927063752848
3962.82,-0.000536600512620779
3963.72,-0.0005045355543385027
3964.62,-0.0004666949793294855
3965.52,-0.00042355426658350693
3966.42,-0.00037575880809993274
3967.32,-0.0003295454594807633
3968.22,-0.000292147126654103
3969.12,-0.00026590355383828736
3970.02,-0.000259809646823101
3970.92,-0.00027426763179510036
3971.82,-0.0003070086120072048
3972.72,-0.00035354790674873746
3973.62,-0.00040864876208149666
3974.52,-0.00046290866191976243
3975.42,-0.000516187025539962
3976.32,-0.0005655781057435155
3977.22,-0.00061122102633432
3978.13,-0.0006503862463074331
3979.03,-0.0006835190123961412
3979.93,-0.0007112837686464504
3980.83,-0.0007311226059142312
3981.73,-0.0007474216904387288
3982.63,-0.0007595601100560892
3983.53,-0.0007706899363842569
3984.43,-0.0007823156749422558
3985.33,-0.0007923487341961763
3986.23,-0.0008062392879004349
3987.13,-0.0008210814816508146
3988.03,-0.0008299857626568964
3988.93,-0.0008437481534302143
3989.83,-0.0008581582578310733
3990.73,-0.0008679148851283444
3991.63,-0.0008844753149717477
3992.53,-0.000890752384086534
3993.43,-0.0008969164081281646
3994.33,-0.0009047356021845712
3995.23,-0.0009019851158455251
3996.13,-0.0008999957869421324
3997.03,-0.0008995602190526421
3997.93,-0.0009035034109465502
3998.83,-0.0009065093318546802
3999.73,-0.0009227700711379699
4000.63,-0.000936900142664466
4001.53,-0.0009536165165740225
4002.43,-0.0009639355539260162
4003.33,-0.0009777227424107265
4004.23,-0.0009769508936146882
4005.13,-0.0009706037338453209
4006.03,-0.0009739994961940938
4006.93,-0.0009770768038151526
4007.83,-0.0009819587476516723
4008.73,-0.000999607863458823
4009.63,-0.0010159922715042408
4010.53,-0.0010361006838033385
4011.43,-0.0010515400292509538
4012.33,-0.001060234630014505
4013.23,-0.0010713117658036127
4014.13,-0.0010799528539628686
4015.03,-0.0010876570162488468
4015.93,-0.001093006223508236
4016.84,-0.0011049620451333807
4017.74,-0.0011102862376648405
4018.64,-0.0011252048388600844
4019.54,-0.001131760252666406
4020.44,-0.001137670570606411
4021.34,-0.0011508583741593323
4022.24,-0.0011609491748755473
4023.14,-0.001168818664744067
4024.04,-0.0011744220564986862
4024.94,-0.0011771028755936314
4025.84,-0.0011943997327357304
4026.74,-0.001207341245148183
4027.64,-0.0012179512540514577
4028.54,-0.0012168074504505658
4029.44,-0.0012123404623849145
4030.34,-0.0012088281568193057
4031.24,-0.0011971188339766818
4032.14,-0.0011839919310222314
4033.04,-0.0011902054523413805
4033.94,-0.0011895310302134704
4034.84,-0.001206214737370339
4035.74,-0.00123821551480362
4036.64,-0.0012701537767147717
4037.54,-0.0013091002515955524
4038.44,-0.0013304500076578778
4039.34,-0.0013569417051657417
4040.24,-0.001363297962255849
4041.14,-0.0013668572725642292
4042.04,-0.001361517790414498
4042.94,-0.0013531468433527081
4043.84,-0.0013403573448030018
4044.74,-0.0013232969712787391
4045.64,-0.0013083278139066157
4046.54,-0.001311700056716873
4047.44,-0.0013232045543890992
4048.34,-0.0013514810962571703
4049.24,-0.0013766758323756866
4050.14,-0.0014134899589703883
4051.04,-0.001440906770293641
4051.94,-0.0014527602499696984
4052.84,-0.0014673898280824452
4053.74,-0.0014760251301250498
4054.65,-0.0014725600969771196
4055.55,-0.0014744581135691843
4056.45,-0.0014766239930345643
4057.35,-0.0014849802230499076
4058.25,-0.0014946965322317162
4059.15,-0.0015047055726517251
4060.05,-0.001523035419009895
4060.95,-0.0015307710609330978
4061.85,-0.0015342617174198961
4062.75,-0.0015326993187049008
4063.65,-0.0015243937892422397
4064.55,-0.0015213861913942863
4065.45,-0.0015233280525250774
4066.35,-0.0015368897889520962
4067.25,-0.0015585401921379498
4068.15,-0.0015853978142795762
4069.05,-0.0016076533783976209
4069.95,-0.0016267295971605553
4070.85,-0.0016447599930676216
4071.75,-0.0016514052070236084
4072.65,-0.001655988088777363
4073.55,-0.0016542617660178752
4074.45,-0.001658250677899205
4075.35,-0.0016539999803178622
4076.25,-0.0016389914828362927
4077.15,-0.001630941279683944
4078.05,-0.0016264551711287635
4078.95,-0.00163208120316363
4079.85,-0.0016605540893385542
4080.75,-0.0016945774837340201
4081.65,-0.0017331722371426942
4082.55,-0.0017647444489962384
4083.45,-0.0017960019728612414
4084.35,-0.001815401924784825
4085.25,-0.0018378896730523078
4086.15,-0.0018547970183253177
4087.05,-0.0018817440965844397
4087.95,-0.0019205274123410094
4088.85,-0.001946788002928835
4089.75,-0.0019727290511866325
4090.65,-0.0019924782668574907
4091.55,-0.0020051697874665622
4092.45,-0.002005384333484696
4093.36,-0.0019994566591511934
4094.26,-0.0019941743009199418
4095.16,-0.001971084676607147
4096.06,-0.001944082844436489
4096.96,-0.0018957766522768296
4097.86,-0.001858219666741901
4098.76,-0.0018018265805194499
4099.66,-0.0017346509707328423
4100.56,-0.0016687868467014162
4101.46,-0.0016093196696435113
4102.36,-0.00158151162578267
4103.26,-0.0015962968532387406
4104.16,-0.0016506237026516443
4105.06,-0.001714114037651643
4105.96,-0.0018103486834606655
4106.86,-0.0019018036390399465
4107.76,-0.001996933119129154
4108.66,-0.002057988983516824
4109.56,-0.002108680684845313
4110.46,-0.0021427612532400886
4111.36,-0.0021910687761137744
4112.26,-0.0022184967523552162
4113.16,-0.0022678022857239993
4114.06,-0.0023130170525728264
4114.96,-0.0023559430316875186
4115.86,-0.0023880582624120736
4116.76,-0.002413040135099214
4117.66,-0.002426779036200961
4118.56,-0.0024429123124164874
4119.46,-0.0024374487469115674
4120.36,-0.0024481514975425276
4121.26,-0.002451409201584652
4122.16,-0.002481551269185648
4123.06,-0.0025034099751925875
4123.96,-0.002533644871631177
4124.86,-0.002567002656740311
4125.76,-0.0026011066589519166
4126.66,-0.0026185966163235273
4127.56,-0.0026405813302111197
4128.46,-0.0026478626171584437
4129.36,-0.002649791882407921
4130.26,-0.0026532382828561014
4131.17,-0.002655282936775419
4132.06,-0.002647826572469703
4132.97,-0.0026660216795921818
4133.87,-0.0026822421530983956
4134.77,-0.0027053551702942323
4135.67,-0.002748686448442027
4136.57,-0.002807833220633562
4137.47,-0.0028809451139441434
4138.37,-0.0029215077754187026
4139.27,-0.0029755364994734673
4140.17,-0.0029950503562057363
4141.07,-0.0030041292380586083
4141.97,-0.0029948313846035993
4142.87,-0.002973306548278716
4143.77,-0.0029665208604271456
4144.67,-0.0029690121237421424
4145.57,-0.0029990531240781416
4146.47,-0.0030389874769265043
4147.37,-0.00309142894592082
4148.27,-0.0031402359126546197
4149.17,-0.0031768646237541136
4150.07,-0.003197223719360118
4150.97,-0.0032280551069790928
4151.87,-0.003230032473887565
4152.77,-0.003242078404141358
4153.67,-0.0032619960730367586
4154.57,-0.0032830933726506425
4155.47,-0.00330254935216174
4156.37,-0.003330361649714652
4157.27,-0.0033583402673763594
4158.17,-0.0034038627978460415
4159.07,-0.0034640063279798698
4159.97,-0.0035165281365238735
4160.87,-0.0035648194973160272
4161.77,-0.0036206890790576626
4162.67,-0.0036525247891685546
4163.57,-0.003696770187338388
4164.47,-0.003729322985641284
4165.37,-0.003759817983277859
4166.27,-0.0037733204158366574
4167.17,-0.0037769804447574354
4168.07,-0.0037956187577335605
4168.98,-0.0038106351311852234
4169.88,-0.003807423767009821
4170.78,-0.003791734703631035
4171.68,-0.0037435336518087357
4172.58,-0.003723946982676094
4173.48,-0.0037055175415656246
4174.38,-0.0037104987713461267
4175.28,-0.0037362976489295997
4176.18,-0.003801785092092011
4177.08,-0.003858506917462058
4177.98,-0.003923531789097236
4178.88,-0.0039878730175689605
4179.78,-0.004037221474734245
4180.68,-0.00409445825955109
4181.58,-0.0041490596185567025
4182.48,-0.00418596738784612
4183.38,-0.004240643993302744
4184.28,-0.004266488282665358
4185.18,-0.004297674208479454
4186.08,-0.004324424993375714
4186.98,-0.004353367754546846
4187.88,-0.0043596493005253825
4188.78,-0.004394954482883874
4189.68,-0.004446181677346576
4190.58,-0.0044982512958093475
4191.48,-0.0045520857656934045
4192.38,-0.004644248288750055
4193.28,-0.004685649421291875
4194.18,-0.004737176891091856
4195.08,-0.004769831112288252
4195.98,-0.004778412448571656
4196.88,-0.004769554654861923
4197.78,-0.004740770429638124
4198.68,-0.004735772882500762
4199.58,-0.004732382884871897
4200.48,-0.004750920619487038
4201.38,-0.004763389591930293
4202.28,-0.0048211686399972
4203.18,-0.004873419962618498
4204.08,-0.004926982917175552
4204.98,-0.004996551924535842
4205.88,-0.00508946625346304
4206.79,-0.0051690371816841925
4207.69,-0.005269457389408893
4208.59,-0.005326060496062109
4209.49,-0.005406379075038386
4210.39,-0.005490649336897214
4211.29,-0.005545388621783527
4212.19,-0.005595547074954931
4213.09,-0.005603238989866137
4213.99,-0.005630806644938965
4214.89,-0.005630070325419063
4215.79,-0.005633364653633663
4216.69,-0.005633278752536818
4217.59,-0.0056806268771421925
4218.49,-0.0057653096994007835
4219.39,-0.005859787319501981
4220.29,-0.005946389995604511
4221.19,-0.005999866142192909
4222.09,-0.006036540468656084
4222.99,-0.006006614732042659
4223.89,-0.0059300551189899325
4224.79,-0.005859235724440627
4225.69,-0.005732852609719073
4226.59,-0.005668106561602023
4227.49,-0.005645455009783698
4228.39,-0.005742152615371657
4229.29,-0.005918255116993029
4230.19,-0.006106834475235
4231.09,-0.006302759520082111
4231.99,-0.006433229110560536
4232.89,-0.006566876575877626
4233.79,-0.006640287227959221
4234.69,-0.006660202769470787
4235.59,-0.006674976061724714
4236.49,-0.006733465784411856
4237.39,-0.006743330390983742
4238.29,-0.006809391428623033
4239.19,-0.006881623024754958
4240.09,-0.007002738625438347
4240.99,-0.007146884185538596
4241.89,-0.007245848450413448
4242.79,-0.007364890945514256
4243.69,-0.007435580468951367
4244.59,-0.007500440440514461
4245.5,-0.007539227809056199
4246.4,-0.007540684045315495
4247.3,-0.007554561126117702
4248.2,-0.007567974807803641
4249.1,-0.007553142614324687
4250.0,-0.007626309440061142
4250.9,-0.007655733651767022
4251.8,-0.007756798999124186
4252.7,-0.007859609467083216
4253.6,-0.008004586586711333
4254.5,-0.008121404529316147
4255.4,-0.00823197046062086
4256.3,-0.008290807189363104
4257.2,-0.00835543594694879
4258.1,-0.008408290802224945
4259.0,-0.008455167066302512
4259.9,-0.00849688527437006
4260.8,-0.00856046362224266
4261.7,-0.008663582308400006
4262.6,-0.008785479431344823
4263.5,-0.008981421289009316
4264.4,-0.009150335467244168
4265.3,-0.00926878258385421
4266.2,-0.009403207041988017
4267.1,-0.009516610219676728
4268.0,-0.009516565041061218
4268.9,-0.009483445712536126
4269.8,-0.009411993496170189
4270.7,-0.009321255312397721
4271.6,-0.009271239696930724
4272.5,-0.009230869002288951
4273.4,-0.009263744589964717
4274.3,-0.00933223600368093
4275.2,-0.00947100250394789
4276.1,-0.009698238147304186
4277.0,-0.009890866523602519
4277.9,-0.010123638600307436
4278.8,-0.010313116180726927
4279.7,-0.010433642839926555
4280.6,-0.010566308838721295
4281.5,-0.010572364660086637
4282.4,-0.010631686312341283
4283.31,-0.010696514428558316
