wave,flux
3700.85,-0.009662688909190555
3701.75,-0.009691826930797426
3702.65,-0.00952656809081778
3703.55,-0.009253794580843735
3704.45,-0.008940615439937436
3705.35,-0.008654261687964914
3706.25,-0.008582057016529634
3707.15,-0.008609946706314178
3708.05,-0.008775104656513131
3708.96,-0.009024320056892165
3709.86,-0.009329295537622594
3710.76,-0.009717244910747642
3711.66,-0.010144759103032313
3712.56,-0.010687571411880363
3713.46,-0.011285954352054858
3714.36,-0.011881622978403386
3715.26,-0.012310077390307097
3716.16,-0.01261404543914461
3717.06,-0.012730541557179235
3717.96,-0.0125193624609036
3718.86,-0.01208364097935588
3719.76,-0.011465587411341379
3720.66,-0.01085776605218195
3721.56,-0.01052117232513019
3722.46,-0.010509937480585112
3723.36,-0.010874514882815989
3724.26,-0.011638809200359427
3725.16,-0.012463896870924935
3726.06,-0.013251677903988887
3726.96,-0.013909747634797761
3727.86,-0.014242875521930227
3728.76,-0.014557667914328193
3729.66,-0.014729064913253253
3730.56,-0.014703534253780938
3731.46,-0.014471831163853727
3732.36,-0.013928013245230932
3733.26,-0.013221899498256074
3734.16,-0.012463368201500154
3735.06,-0.01201456697236719
3735.96,-0.011804551738782991
3736.86,-0.012221599473801796
3737.76,-0.013058519755542
3738.66,-0.014276538867606789
3739.56,-0.015628158816329833
3740.46,-0.016881298925943252
3741.36,-0.01780495480395962
3742.26,-0.018305788480834247
3743.16,-0.01848750955283926
3744.06,-0.018254114975741247
3744.96,-0.017835365679253496
3745.86,-0.01724204315191361
3746.76,-0.016693120443615136
3747.67,-0.01609611241676289
3748.57,-0.015685752330568816
3749.47,-0.01549579609998062
3750.37,-0.01582261653144689
3751.27,-0.016749786120378984
3752.17,-0.018259356573218963
3753.07,-0.020169770869816833
3753.97,-0.02212729686704848
3754.87,-0.02374623141480936
3755.77,-0.024846159372170124
3756.67,-0.02532665766069524
3757.57,-0.025375816584572636
3758.47,-0.02494114842091917
3759.37,-0.024793217074243066
3760.27,-0.024901616895838127
3761.17,-0.02539828155503854
3762.07,-0.0263076650234733
3762.97,-0.027260341878194223
3763.87,-0.02811945494646754
3764.77,-0.028825299913681986
3765.67,-0.02919282343569879
3766.57,-0.029407426939077604
3767.47,-0.029446176186573088
3768.37,-0.02933455477300819
3769.27,-0.029324835500915965
3770.17,-0.029350390894326207
3771.07,-0.02992427913927823
3771.97,-0.0310635214220359
3772.87,-0.032567891217245924
3773.77,-0.03419417076107762
3774.67,-0.036128341267772715
3775.57,-0.03777359813667686
3776.47,-0.039465429268090865
3777.37,-0.04092343187145375
3778.27,-0.042574006057295236
3779.17,-0.044099542537866396
3780.07,-0.045950919844338876
3780.97,-0.04764134670256866
3781.87,-0.04920393773170385
3782.77,-0.050386567763719824
3783.67,-0.051381095188628205
3784.57,-0.05191157593983535
3785.47,-0.05187832036754015
3786.38,-0.05153190704569634
3787.28,-0.05076408505686955
3788.18,-0.05028940745289395
3789.08,-0.050204051198960445
3789.98,-0.050373983964775104
3790.88,-0.05131883714439921
3791.78,-0.0516079771657984
3792.68,-0.05213084025511751
3793.58,-0.05204612195495348
3794.48,-0.05143109697616552
3795.38,-0.05028339452343251
3796.28,-0.04928686528380046
3797.18,-0.048403642844100876
3798.08,-0.04820739564414946
3798.98,-0.048847506475697765
3799.88,-0.051370726723480385
3800.78,-0.055340143245143816
3801.68,-0.06016269984863896
3802.58,-0.06559503050196776
3803.48,-0.07090668926345178
3804.38,-0.07503938015580108
3805.28,-0.07822886290237435
3806.18,-0.08031934471232223
3807.08,-0.08215128960990144
3807.98,-0.08438463450147332
3808.88,-0.08694520053497726
3809.78,-0.08958680594845915
3810.68,-0.09184003370194056
3811.58,-0.09319035648696862
3812.48,-0.09382959331392204
3813.38,-0.09377995817531748
3814.28,-0.09256543886348394
3815.18,-0.09246721008241848
3816.08,-0.09280351546857343
3816.98,-0.09408775579894528
3817.88,-0.09622285480637283
3818.78,-0.09823450018212358
3819.68,-0.09999956196822687
3820.58,-0.10040922351278556
3821.48,-0.10233255519203024
3822.38,-0.10337914645097403
3823.28,-0.10463104232290751
3824.18,-0.10549848996026212
3825.09,-0.10531560058653514
3825.99,-0.1050580768369861
3826.89,-0.10496082172698938
3827.79,-0.10564997580680588
3828.69,-0.10600477719131918
3829.59,-0.1078062296098582
3830.49,-0.10783479143689138
3831.39,-0.10751794406890651
3832.29,-0.10633668083775616
3833.19,-0.10377861865244072
3834.09,-0.1023578437566198
3834.99,-0.10145685265352124
3835.89,-0.1018632969498041
3836.79,-0.10488506873797726
3837.69,-0.11007983273163917
3838.59,-0.11677900514889779
3839.49,-0.12403323332243013
3840.39,-0.13432791050474002
3841.29,-0.14657615869421045
3842.19,-0.16103116660305739
3843.09,-0.1770563370499066
3843.99,-0.1912123591739325
3844.89,-0.2050064706008524
3845.79,-0.2185356323700682
3846.69,-0.23023918605682678
3847.59,-0.23944841857426258
3848.49,-0.2478564341740339
3849.39,-0.2570336672396433
3850.29,-0.26458867708222245
3851.19,-0.27302277424618676
3852.09,-0.28349885565582184
3852.99,-0.2931045255992365
3853.89,-0.30298585368726344
3854.79,-0.31196863011161435
3855.69,-0.3176330765472475
3856.59,-0.32182410188265814
3857.49,-0.3261233045749779
3858.39,-0.32964526272500666
3859.29,-0.3354124629614257
3860.19,-0.3470737999562238
3861.09,-0.36214213014588276
3861.99,-0.38545360943963
3862.9,-0.41052133546572794
3863.8,-0.43973324150921134
3864.7,-0.46606068001536527
3865.6,-0.48936469411676736
3866.5,-0.5114510767553971
3867.4,-0.5297041619877655
3868.3,-0.5510420391963659
3869.2,-0.5669358752473129
3870.1,-0.5830747200930995
3871.0,-0.593112024805308
3871.9,-0.6078123556015275
3872.8,-0.6239053735999697
3873.7,-0.6486774595331447
3874.6,-0.6810942288032655
3875.5,-0.7202493520475746
3876.4,-0.7619397645000419
3877.3,-0.8014412527806156
3878.2,-0.8428732761609162
3879.1,-0.8793239484937344
3880.0,-0.9322015490446326
3880.9,-0.9859218321500478
3881.8,-1.049798865130297
3882.7,-1.1156551475981433
3883.6,-1.1830914220248376
3884.5,-1.2427524730300594
3885.4,-1.299768983400601
3886.3,-1.3513198685867487
3887.2,-1.420184157745032
3888.1,-1.4969073851073544
3889.0,-1.6098609165645403
3889.9,-1.8021203310564922
3890.8,-2.076157575317602
3891.7,-2.4746406017027813
3892.6,-2.99169046031075
3893.5,-3.702214333499348
3894.4,-4.6836166229401055
3895.3,-6.10991824594707
3896.2,-8.494081678979207
3897.1,-13.378754297435897
3898.0,-29.615605581074913
3898.9,192.83750423928547
3899.8,23.53022677287683
3900.7,12.743094024338735
3901.6,8.82643907716596
3902.51,6.728684092088608
3903.41,5.476323765757933
3904.31,4.607376415858092
3905.21,3.990300487787566
3906.11,3.5295256594744204
3907.01,3.2073190578008224
3907.91,2.972821865015006
3908.81,2.8039733705639325
3909.71,2.6685325441392105
3910.61,2.5548678712053094
3911.51,2.4398187463840175
3912.41,2.3251415539299574
3913.31,2.2099701887598333
3914.21,2.0949679589719583
3915.11,1.9904977398304795
3916.01,1.8804739531306491
3916.91,1.7769954797671461
3917.81,1.6887904375651634
3918.71,1.5991169596320343
3919.61,1.528398837503188
3920.51,1.4516167863013019
3921.41,1.3922943458526043
3922.31,1.3400948172800229
3923.21,1.2920813577113963
3924.11,1.2407080291991976
3925.01,1.2020020644982194
3925.91,1.1355452500661245
3926.81,1.0622557538261956
3927.71,0.9719320944676707
3928.61,0.8746710862053994
3929.51,0.7726748154698627
3930.41,0.6709012882552865
3931.31,0.5704049236742571
3932.21,0.48336520142423633
3933.11,0.4170080933299818
3934.01,0.3766581019726281
3934.91,0.36360996675952606
3935.81,0.3836451433628512
3936.71,0.42682459142377877
3937.61,0.4920125579688492
3938.51,0.5669333196277967
3939.42,0.640346208401818
3940.32,0.7044779681602037
3941.22,0.7557668378061626
3942.12,0.7942324434904197
3943.02,0.8197749184329655
3943.92,0.8407369627330505
3944.82,0.8585016984308911
3945.72,0.8777636769998545
3946.62,0.8966077258887115
3947.52,0.9117399593777841
3948.42,0.9237269119355517
3949.32,0.9285561840662111
3950.22,0.93354431566319
3951.12,0.9387293063183844
3952.02,0.9418283525651878
3952.92,0.9414083292554982
3953.82,0.9383181358900025
3954.72,0.9366985627764971
3955.62,0.9274055649532089
3956.52,0.920272652036636
3957.42,0.9054146594369921
3958.32,0.892686831218159
3959.22,0.8727373208604706
3960.12,0.8458461273191492
3961.02,0.8170196227173034
3961.92,0.7747000154749835
3962.82,0.7198126267270155
3963.72,0.6653376512686193
3964.62,0.6055009183456622
3965.52,0.5428930092606918
3966.42,0.4761339770779649
3967.32,0.41382796788544723
3968.22,0.3638424179121402
3969.12,0.3317540802935986
3970.02,0.32260084945551626
3970.92,0.33928013193955714
3971.82,0.3775106701584807
3972.72,0.4332381989852298
3973.62,0.4984103317347321
3974.52,0.563072139868889
3975.42,0.6274362301518164
3976.32,0.6825335015641286
3977.22,0.7342126764830924
3978.13,0.7788537663268792
3979.03,0.8181271161808149
3979.93,0.845445353395944
3980.83,0.8678386834064087
3981.73,0.8839579492639039
3982.63,0.8918851105991742
3983.53,0.8941944759220678
3984.43,0.9021026847940715
3985.33,0.9085737666233087
3986.23,0.9172131847512579
3987.13,0.9255520963989036
3988.03,0.936769941651446
3988.93,0.9475317721137777
3989.83,0.9553045353929372
3990.73,0.9617185501823303
3991.63,0.9680589125695804
3992.53,0.974323149013862
3993.43,0.9764750952437733
3994.33,0.9724812229125716
3995.23,0.9716201571340444
3996.13,0.9573793682046371
3997.03,0.9492852989898751
3997.93,0.9449949787937976
3998.83,0.9449927382056376
3999.73,0.9527768904181306
4000.63,0.9633731133525606
4001.53,0.9817492053691499
4002.43,0.9873099107370135
4003.33,0.986194382549713
4004.23,0.9805097341138139
4005.13,0.9676950889121647
4006.03,0.9600955931854702
4006.93,0.9537554110028369
4007.83,0.9586119122560045
4008.73,0.9687537473911808
4009.63,0.9798537358421388
4010.53,0.9928886136075834
4011.43,1.002437692552062
4012.33,1.0065772649841036
4013.23,1.0124610227952613
4014.13,1.011765501258048
4015.03,1.0189885684023825
4015.93,1.0177826972964423
4016.84,1.0193346039910438
4017.74,1.0181791454296323
4018.64,1.0254713596740475
4019.54,1.0216109444534769
4020.44,1.0292154608292874
4021.34,1.027509767993508
4022.24,1.0281817359381098
4023.14,1.0308168043206023
4024.04,1.0271134759196816
4024.94,1.0251066953114492
4025.84,1.0361224553797557
4026.74,1.034000328875382
4027.64,1.0418828580081183
4028.54,1.0416067799924327
4029.44,1.0243671318192493
4030.34,1.0084389278333892
4031.24,0.9932200866938108
4032.14,0.9734936620688831
4033.04,0.9611653486083922
4033.94,0.9648563943973398
4034.84,0.9696010799093481
4035.74,0.9943443222661226
4036.64,1.01541814220271
4037.54,1.0354311148163458
4038.44,1.0570296198229978
4039.34,1.0636812612873445
4040.24,1.0638934696006075
4041.14,1.0602755152392387
4042.04,1.049495988145368
4042.94,1.0299643178155782
4043.84,1.0092852620609565
4044.74,0.9830694753784669
4045.64,0.9664546743727752
4046.54,0.9563404189311494
4047.44,0.9639682614631262
4048.34,0.9776049661713464
4049.24,0.9970228235090142
4050.14,1.0253633275441187
4051.04,1.0366606149808595
4051.94,1.0412852738838831
4052.84,1.0451428108914362
4053.74,1.0400950463345866
4054.65,1.031554815742118
4055.55,1.0183891048780707
4056.45,1.0162261912441068
4057.35,1.0117074820935832
4058.25,1.0065358132352993
4059.15,1.0107735874572032
4060.05,1.0145080484695177
4060.95,1.0102910675488022
4061.85,1.0081055116917559
4062.75,0.9993335230890115
4063.65,0.9840902254720967
4064.55,0.9697883167734613
4065.45,0.9672319550571312
4066.35,0.9714305226009771
4067.25,0.9795460417403151
4068.15,0.9924827361392982
4069.05,1.0021576826090361
4069.95,1.0094044058302098
4070.85,1.0102981777841509
4071.75,1.0108440177879081
4072.65,1.003120003196926
4073.55,1.0011611898764818
4074.45,0.9919195866602014
4075.35,0.9827121446629068
4076.25,0.9653266004792733
4077.15,0.9537444211764653
4078.05,0.9423507868738656
4078.95,0.9426634113469392
4079.85,0.9500068505378938
4080.75,0.9700923931091866
4081.65,0.9849305843223888
4082.55,1.0029111884223922
4083.45,1.011590531548788
4084.35,1.016575784226701
4085.25,1.0186601463492952
4086.15,1.0254309251555367
4087.05,1.0380455467632168
4087.95,1.0548101188476837
4088.85,1.0684446844358682
4089.75,1.0749793172779512
4090.65,1.0748718259134284
4091.55,1.0759584092001593
4092.45,1.0688780506844104
4093.36,1.0558424259265953
4094.26,1.040162747015954
4095.16,1.0258378266959396
4096.06,1.0010537406096935
4096.96,0.9765123322880616
4097.86,0.9453754650919234
4098.76,0.9147476964827822
4099.66,0.8733930440346326
4100.56,0.8392346855068967
4101.46,0.812674552634204
4102.36,0.7893394775292377
4103.26,0.7919597391482227
4104.16,0.8078746413029506
4105.06,0.8357276590169173
4105.96,0.8729738072083947
4106.86,0.9055391711021633
4107.76,0.9351410078756721
4108.66,0.9553518008144031
4109.56,0.9713852344366484
4110.46,0.9814264674722074
4111.36,0.9886771826953434
4112.26,0.9986693236509002
4113.16,1.0101765909265161
4114.06,1.0188208571226964
4114.96,1.0338363559720702
4115.86,1.0362455276481235
4116.76,1.0406183378469331
4117.66,1.0393254889833035
4118.56,1.0301909352223122
4119.46,1.027134851316012
4120.36,1.0200905631851818
4121.26,1.013128817700985
4122.16,1.0133826360103768
4123.06,1.0163007648312528
4123.96,1.0171890380943074
4124.86,1.0237305859917023
4125.76,1.0258431835923723
4126.66,1.0288085992075882
4127.56,1.0219682922793345
4128.46,1.0190081230229528
4129.36,1.0127765036177867
4130.26,1.005412168151316
4131.17,0.993636125092735
4132.06,0.9866657716449234
4132.97,0.9854406854145233
4133.87,0.9733353540164098
4134.77,0.9791573701567023
4135.67,0.9902400903809524
4136.57,1.0061756959738994
4137.47,1.0217797551729444
4138.37,1.037381716100232
4139.27,1.0447187645952025
4140.17,1.0441633672807973
4141.07,1.0372649332965906
4141.97,1.0231469608545987
4142.87,1.0048958696158834
4143.77,0.9915778611450837
4144.67,0.9816113885805582
4145.57,0.984676191913626
4146.47,0.9912671639351223
4147.37,1.0014206855783012
4148.27,1.0121283554958196
4149.17,1.0192862482127665
4150.07,1.0181326262087647
4150.97,1.0183067783488564
4151.87,1.016658053115643
4152.77,1.0114668198524004
4153.67,1.0051865760589211
4154.57,0.9998687959650685
4155.47,0.9976369460469932
4156.37,1.001199017133479
4157.27,1.0044027597763463
4158.17,1.0128132069502824
4159.07,1.0236467872626733
4159.97,1.0360620596072565
4160.87,1.0427771895709192
4161.77,1.0498293692099638
4162.67,1.054403908480889
4163.57,1.0539370866285176
4164.47,1.0579443784049194
4165.37,1.058228804465264
4166.27,1.0520475790839012
4167.17,1.0410444936285037
4168.07,1.0388710044822773
4168.98,1.0348039213899853
4169.88,1.0208281249226336
4170.78,1.00572628390304
4171.68,0.9874489460768366
4172.58,0.9788039730657617
4173.48,0.9630286347500215
4174.38,0.952787749303878
4175.28,0.9510476360034752
4176.18,0.9607019387144137
4177.08,0.9634114562626185
4177.98,0.9768233134084244
4178.88,0.9849364115133851
4179.78,0.993096294432052
4180.68,1.0025884404102388
4181.58,1.007510308214129
4182.48,1.0135050616187626
4183.38,1.010860163418368
4184.28,1.009396729382062
4185.18,1.01325859897493
4186.08,1.0086209508304114
4186.98,1.0044663685988484
4187.88,1.0031811603670526
4188.78,1.0018298764822395
4189.68,1.0022116646945973
4190.58,1.00825690061584
4191.48,1.0233114938939658
4192.38,1.0271031623978788
4193.28,1.0334032527033103
4194.18,1.0297536758864183
4195.08,1.0303012833137826
4195.98,1.025928087612056
4196.88,1.0062187547403934
4197.78,0.993753850479183
4198.68,0.983276013220221
4199.58,0.968674932859961
4200.48,0.963943184511433
4201.38,0.9613884497887425
4202.28,0.9656209419208257
4203.18,0.9700836712208124
4204.08,0.9755509985047065
4204.98,0.9911770046075754
4205.88,1.000618140152328
4206.79,1.0081554775025614
4207.69,1.0199483655951482
4208.59,1.036781992759583
4209.49,1.0433930927824373
4210.39,1.0485729372549955
4211.29,1.049099590139961
4212.19,1.0478186665637115
4213.09,1.0487257925131532
4213.99,1.0387471041836267
4214.89,1.0247638912497805
4215.79,1.019744264883124
4216.69,1.0120168451072582
4217.59,1.013526154945888
4218.49,1.0205717720112188
4219.39,1.0316008994052899
4220.29,1.0397071121867216
4221.19,1.0394612225462274
4222.09,1.0334535145132488
4222.99,1.0238343934973333
4223.89,0.9982788511510692
4224.79,0.9580670806834141
4225.69,0.9296304924011807
4226.59,0.9060902455655262
4227.49,0.8951332362305779
4228.39,0.9048363186446132
4229.29,0.9253360209097894
4230.19,0.9551532470353057
4231.09,0.9834305334480185
4231.99,1.004446511601588
4232.89,1.0193865094434191
4233.79,1.0210981429137658
4234.69,1.0156253710380967
4235.59,1.0152773087824718
4236.49,1.0024536782411604
4237.39,1.0036340518280311
4238.29,1.0018162472823993
4239.19,1.0048352188540821
4240.09,1.0194916845304085
4240.99,1.0260106791678953
4241.89,1.0385832870580585
4242.79,1.0454146135320206
4243.69,1.0488290579306179
4244.59,1.0526575828106595
4245.5,1.0503577375779036
4246.4,1.0464282615341038
4247.3,1.0363142911828356
4248.2,1.0233235127246856
4249.1,1.013635938926568
4250.0,1.009217793327809
4250.9,1.0064904210303625
4251.8,1.0069272795203412
4252.7,1.0149904652202075
4253.6,1.018862847293518
4254.5,1.024321213623248
4255.4,1.0292868580395131
4256.3,1.0323227573208014
4257.2,1.0333875809748811
4258.1,1.0385750693335283
4259.0,1.0269802259066076
4259.9,1.0216601944890076
4260.8,1.0206140878532448
4261.7,1.0190300080563273
4262.6,1.0330684143635949
4263.5,1.04498556996808
4264.4,1.0592585776708805
4265.3,1.0742559780650045
4266.2,1.0812014376464598
4267.1,1.0795159038838127
4268.0,1.067823178225476
4268.9,1.052349544115453
4269.8,1.0321019102006275
4270.7,1.0094732189023488
4271.6,0.9868612472520653
4272.5,0.9695579812185956
4273.4,0.9611499430572077
4274.3,0.9604609795426058
4275.2,0.9720344664921705
4276.1,0.9908859919325912
4277.0,1.0091667432826374
4277.9,1.02031337388831
4278.8,1.0364154272866193
4279.7,1.0399998902221543
4280.6,1.0445283976016133
4281.5,1.0387049063101046
4282.4,1.0339374134665686
4283.31,1.0266770656302466
4284.21,1.0208148392436516
4285.11,1.015091187457683
4286.01,1.0053828212043503
4286.91,0.9903878033129448
4287.81,0.9772109027779281
4288.71,0.9651673732732751
4289.61,0.9490590127480909
4290.51,0.9461608983150869
4291.41,0.9450092012634258
4292.31,0.9504979047203482
4293.21,0.9580020552392371
4294.11,0.9674063417825253
4295.01,0.9708739341934434
4295.91,0.9620941816586821
4296.81,0.9484474468294569
4297.71,0.926338607025399
4298.61,0.9002423551686249
4299.51,0.8736012744707308
4300.41,0.8503152843062943
4301.31,0.8318750867194986
4302.21,0.8200008847640443
4303.11,0.8157620804783134
4304.01,0.8199586811030124
4304.91,0.8187937054346618
4305.81,0.8176936357082456
4306.71,0.8150170159228487
4307.61,0.8104205502192762
4308.51,0.8101293528468075
4309.41,0.8079944443285689
4310.31,0.81226132216903
4311.21,0.8261337940420986
4312.11,0.8471616640758208
4313.01,0.8784295657550923
4313.91,0.91680161848736
4314.81,0.9539574648171237
4315.71,0.995691785454391
4316.61,1.0415424069293882
4317.51,1.0778635712489533
4318.41,1.1038263432739608
4319.31,1.1213426043726127
4320.21,1.1263491726345252
4321.12,1.1126138621049273
4322.02,1.09233730952652
4322.92,1.0639267255488714
4323.82,1.0327871879735688
4324.72,1.0072046397828178
4325.62,0.9842480272138321
4326.52,0.9839524221978134
4327.42,0.9895209045761585
4328.32,1.0020447754103783
4329.22,1.0334490785624195
4330.12,1.056247865942146
4331.02,1.0754491586809718
4331.92,1.0887899980918303
4332.82,1.0915124282247763
4333.72,1.0894558654482218
4334.62,1.080059684086804
4335.52,1.0602041828473832
4336.42,1.0299462970536373
4337.32,0.9859149491394419
4338.22,0.942715941404196
4339.12,0.9001613755478701
4340.02,0.8636330638168404
4340.92,0.8385331862909904
4341.82,0.8381780356290077
4342.72,0.8544824466631935
4343.62,0.879604850796709
4344.52,0.9141652261088687
4345.42,0.9553287954530332
4346.32,0.9907663425702466
4347.22,1.0185798683512335
4348.12,1.0355730538396426
4349.02,1.0434874186272773
4349.92,1.0473455662674946
4350.82,1.036791869730538
4351.72,1.026763823173589
4352.62,1.0187490723644208
4353.52,1.0183965691150483
4354.42,1.0159133882553122
4355.32,1.0279756031759977
4356.22,1.0393362194056408
4357.12,1.0515901239914522
