wave,flux
3700.85,-4.33843194356122e-07
3701.75,-4.295550468671106e-07
3702.65,-4.1779376820127646e-07
3703.55,-4.006661909452342e-07
3704.45,-3.8283927752361044e-07
3705.35,-3.671086438882831e-07
3706.25,-3.5749724968678923e-07
3707.15,-3.542799834626378e-07
3708.05,-3.556977842083368e-07
3708.96,-3.6157080440592194e-07
3709.86,-3.680532756226309e-07
3710.76,-3.779140145697444e-07
3711.66,-3.88773246674028e-07
3712.56,-4.0307393534419433e-07
3713.46,-4.1695836289760715e-07
3714.36,-4.346193388175666e-07
3715.26,-4.4647975899771437e-07
3716.16,-4.528778323505683e-07
3717.06,-4.519479934694698e-07
3717.96,-4.4011438203440976e-07
3718.86,-4.198818342587058e-07
3719.76,-3.935545420281601e-07
3720.66,-3.6900403991527206e-07
3721.56,-3.5035798399979847e-07
3722.46,-3.437703356841845e-07
3723.36,-3.524220277141233e-07
3724.26,-3.694475997878632e-07
3725.16,-3.926475875475802e-07
3726.06,-4.135392797121357e-07
3726.96,-4.2785342215186653e-07
3727.86,-4.354371363446891e-07
3728.76,-4.370787489691e-07
3729.66,-4.357361477133191e-07
3730.56,-4.2597815766204174e-07
3731.46,-4.10115379025606e-07
3732.36,-3.8566328619308654e-07
3733.26,-3.603767473006603e-07
3734.16,-3.335488055163319e-07
3735.06,-3.1683004372730294e-07
3735.96,-3.1257004309082337e-07
3736.86,-3.211505642539037e-07
3737.76,-3.42021267033972e-07
3738.66,-3.706444106516643e-07
3739.56,-4.017808548191165e-07
3740.46,-4.281516562182189e-07
3741.36,-4.457325000175537e-07
3742.26,-4.539620407798112e-07
3743.16,-4.4751862165863027e-07
3744.06,-4.377704613487657e-07
3744.96,-4.1775791610143046e-07
3745.86,-3.9761348884293683e-07
3746.76,-3.7559096477989224e-07
3747.67,-3.554228904741593e-07
3748.57,-3.379861269890541e-07
3749.47,-3.254009030472898e-07
3750.37,-3.2492925458689217e-07
3751.27,-3.396063082204727e-07
3752.17,-3.6506537530949613e-07
3753.07,-3.9774674182124186e-07
3753.97,-4.32264338331777e-07
3754.87,-4.616363004148759e-07
3755.77,-4.780382256170479e-07
3756.67,-4.871446791796159e-07
3757.57,-4.806611422284613e-07
3758.47,-4.7193518648802876e-07
3759.37,-4.6240353432859555e-07
3760.27,-4.5878907742518744e-07
3761.17,-4.614036691370446e-07
3762.07,-4.6787580672202106e-07
3762.97,-4.7338845103266135e-07
3763.87,-4.77148559333608e-07
3764.77,-4.755580949634605e-07
3765.67,-4.72097025437503e-07
3766.57,-4.622977551616468e-07
3767.47,-4.4766641362023193e-07
3768.37,-4.3404040774924663e-07
3769.27,-4.2118763886561863e-07
3770.17,-4.1258018677266985e-07
3771.07,-4.1219805624045586e-07
3771.97,-4.178433341287785e-07
3772.87,-4.342509175713542e-07
3773.77,-4.5592874044621226e-07
3774.67,-4.7659827728210206e-07
3775.57,-4.976216603338531e-07
3776.47,-5.157602587708878e-07
3777.37,-5.351303556936734e-07
3778.27,-5.517341865263728e-07
3779.17,-5.701453314977083e-07
3780.07,-5.84766274099198e-07
3780.97,-5.986131491129761e-07
3781.87,-6.075830007466213e-07
3782.77,-6.195792019169422e-07
3783.67,-6.201132806720782e-07
3784.57,-6.147315713976349e-07
3785.47,-6.017799716024048e-07
3786.38,-5.863169580671518e-07
3787.28,-5.673944124704346e-07
3788.18,-5.50720614519973e-07
3789.08,-5.386393673519701e-07
3789.98,-5.256324888297709e-07
3790.88,-5.168740287036532e-07
3791.78,-5.085797586624863e-07
3792.68,-4.966040136185365e-07
3793.58,-4.811264720642519e-07
3794.48,-4.610501822142507e-07
3795.38,-4.3819648174139114e-07
3796.28,-4.1585852234206087e-07
3797.18,-3.9557443729236575e-07
3798.08,-3.844610790327048e-07
3798.98,-3.839780047241482e-07
3799.88,-3.960713096512447e-07
3800.78,-4.2297200507907217e-07
3801.68,-4.569237197772445e-07
3802.58,-4.910253524891881e-07
3803.48,-5.247849937453333e-07
3804.38,-5.506231157919508e-07
3805.28,-5.707634954670878e-07
3806.18,-5.836011983342903e-07
3807.08,-5.900484504396337e-07
3807.98,-6.002961256096176e-07
3808.88,-6.098233146157737e-07
3809.78,-6.212849265757649e-07
3810.68,-6.29687518821429e-07
3811.58,-6.315483604279727e-07
3812.48,-6.255060855024923e-07
3813.38,-6.115539229999526e-07
3814.28,-5.982550978841704e-07
3815.18,-5.851537814177963e-07
3816.08,-5.765769351033374e-07
3816.98,-5.767568398985613e-07
3817.88,-5.777620085979292e-07
3818.78,-5.788525855839507e-07
3819.68,-5.768135821113566e-07
3820.58,-5.706798935734707e-07
3821.48,-5.638489573738567e-07
3822.38,-5.577687184713302e-07
3823.28,-5.509371621063384e-07
3824.18,-5.370626703196372e-07
3825.09,-5.233624084911155e-07
3825.99,-5.074052616559251e-07
3826.89,-4.951103238072928e-07
3827.79,-4.821193899550819e-07
3828.69,-4.7129099757795154e-07
3829.59,-4.613809659170207e-07
3830.49,-4.4643428243714267e-07
3831.39,-4.31377774227035e-07
3832.29,-4.1107992521059377e-07
3833.19,-3.8810166581149006e-07
3834.09,-3.6756617207931043e-07
3834.99,-3.548342401449609e-07
3835.89,-3.459011170781198e-07
3836.79,-3.481258128933423e-07
3837.69,-3.566589661226084e-07
3838.59,-3.7224181436373074e-07
3839.49,-3.9296487097956976e-07
3840.39,-4.1914735655263953e-07
3841.29,-4.5003288089200275e-07
3842.19,-4.834272939694988e-07
3843.09,-5.203973119364256e-07
3843.99,-5.491524013553585e-07
3844.89,-5.752148764135179e-07
3845.79,-5.963975560302733e-07
3846.69,-6.159371883329307e-07
3847.59,-6.261612216506228e-07
3848.49,-6.350169337076766e-07
3849.39,-6.44894141544645e-07
3850.29,-6.5065273965962e-07
3851.19,-6.568605641910287e-07
3852.09,-6.655290483497431e-07
3852.99,-6.70761383062698e-07
3853.89,-6.735636798118569e-07
3854.79,-6.758895089673679e-07
3855.69,-6.685404572780435e-07
3856.59,-6.613162290421938e-07
3857.49,-6.487280769305627e-07
3858.39,-6.425634260728448e-07
3859.29,-6.378610887402569e-07
3860.19,-6.391744304386497e-07
3861.09,-6.472541515387981e-07
3861.99,-6.601545187481382e-07
3862.9,-6.772920782908601e-07
3863.8,-6.901571206377531e-07
3864.7,-7.019412652594959e-07
3865.6,-7.089607116114607e-07
3866.5,-7.105418643808769e-07
3867.4,-7.098303274896249e-07
3868.3,-7.056018750993759e-07
3869.2,-6.966712027821576e-07
3870.1,-6.918453314484842e-07
3871.0,-6.807932343610005e-07
3871.9,-6.657684620533701e-07
3872.8,-6.591583599428006e-07
3873.7,-6.522510073402169e-07
3874.6,-6.525037810665713e-07
3875.5,-6.583990774832318e-07
3876.4,-6.545312212329155e-07
3877.3,-6.522114304729122e-07
3878.2,-6.429568442119551e-07
3879.1,-6.321406582110926e-07
3880.0,-6.212755157343106e-07
3880.9,-6.149551528208733e-07
3881.8,-6.067907751731677e-07
3882.7,-5.991407668707884e-07
3883.6,-5.84983537268753e-07
3884.5,-5.647632618962042e-07
3885.4,-5.411056109997529e-07
3886.3,-5.14489655994252e-07
3887.2,-4.869522275039037e-07
3888.1,-4.6325367251317174e-07
3889.0,-4.5252191702212286e-07
3889.9,-4.516467265480068e-07
3890.8,-4.6630557842886125e-07
3891.7,-4.915950140491089e-07
3892.6,-5.198927793343996e-07
3893.5,-5.522358984109943e-07
3894.4,-5.794132420142265e-07
3895.3,-6.019611757224762e-07
3896.2,-6.230458735768924e-07
3897.1,-6.401823346386433e-07
3898.0,-6.544701273561673e-07
3898.9,-6.664100955098511e-07
3899.8,-6.78738213854857e-07
3900.7,-6.862632142455525e-07
3901.6,-6.97290641623533e-07
3902.51,-7.017473938371323e-07
3903.41,-7.073498058506816e-07
3904.31,-7.04541987855216e-07
3905.21,-7.055448736561551e-07
3906.11,-7.132098250724774e-07
3907.01,-7.204461172760414e-07
3907.91,-7.366437508913066e-07
3908.81,-7.557976835399907e-07
3909.71,-7.747254633775402e-07
3910.61,-7.940514171453943e-07
3911.51,-8.100920923914145e-07
3912.41,-8.191701046229164e-07
3913.31,-8.21580112973193e-07
3914.21,-8.2083029396814e-07
3915.11,-8.129814171758501e-07
3916.01,-8.071445061446579e-07
3916.91,-7.981167241529254e-07
3917.81,-7.901978421043653e-07
3918.71,-7.79874407686296e-07
3919.61,-7.721875336437886e-07
3920.51,-7.645291993147029e-07
3921.41,-7.548772101938897e-07
3922.31,-7.516109475693987e-07
3923.21,-7.52690216738578e-07
3924.11,-7.462413069859854e-07
3925.01,-7.363974119199493e-07
3925.91,-7.196191675174925e-07
3926.81,-6.949174827060302e-07
3927.71,-6.602004723686325e-07
3928.61,-6.123272686896671e-07
3929.51,-5.619435416937849e-07
3930.41,-5.056858194782942e-07
3931.31,-4.4920765151909825e-07
3932.21,-3.9642951650434724e-07
3933.11,-3.551435673191725e-07
3934.01,-3.296017345474453e-07
3934.91,-3.2479510091378535e-07
3935.81,-3.440308985034849e-07
3936.71,-3.8251072740990936e-07
3937.61,-4.340068300692763e-07
3938.51,-4.917594642907637e-07
3939.42,-5.51361455115296e-07
3940.32,-6.020799988731404e-07
3941.22,-6.428450931810353e-07
3942.12,-6.699672221047309e-07
3943.02,-6.945428968375304e-07
3943.92,-7.090780841692125e-07
3944.82,-7.3159800215136e-07
3945.72,-7.433312334326014e-07
3946.62,-7.591881061963571e-07
3947.52,-7.797906017306979e-07
3948.42,-7.871311451617467e-07
3949.32,-7.996055573976372e-07
3950.22,-8.077692951353646e-07
3951.12,-8.124035273524527e-07
3952.02,-8.180950679349242e-07
3952.92,-8.19344000355113e-07
3953.82,-8.18658247872757e-07
3954.72,-8.207721850848948e-07
3955.62,-8.123314083997372e-07
3956.52,-8.089983479145802e-07
3957.42,-7.978466990109911e-07
3958.32,-7.881379482658941e-07
3959.22,-7.728040477771022e-07
3960.12,-7.505897191402993e-07
3961.02,-7.249395781281799e-07
3961.92,-6.873401194995324e-07
3962.82,-6.475494650064329e-07
3963.72,-6.038883757248982e-07
3964.62,-5.544413030230171e-07
3965.52,-5.014086515235168e-07
3966.42,-4.49289015556224e-07
3967.32,-3.967371879828663e-07
3968.22,-3.532169300786121e-07
3969.12,-3.237482772707402e-07
3970.02,-3.1603169496405437e-07
3970.92,-3.2596554398551863e-07
3971.82,-3.5623825602316216e-07
3972.72,-4.0333517974961494e-07
3973.62,-4.570004740128329e-07
3974.52,-5.154720654244159e-07
3975.42,-5.698530615239585e-07
3976.32,-6.211973010474598e-07
3977.22,-6.748060496291368e-07
3978.13,-7.15992401619795e-07
3979.03,-7.593499982199162e-07
3979.93,-7.942059043834983e-07
3980.83,-8.184298625397381e-07
3981.73,-8.418555598446092e-07
3982.63,-8.550110496767459e-07
3983.53,-8.66233834194918e-07
3984.43,-8.728345733419618e-07
3985.33,-8.86085897787509e-07
3986.23,-9.003343239991204e-07
3987.13,-9.06487988590983e-07
3988.03,-9.241826750144119e-07
3988.93,-9.381727891956504e-07
3989.83,-9.490349469537342e-07
3990.73,-9.64072182434019e-07
3991.63,-9.72478921028347e-07
3992.53,-9.807075595834841e-07
3993.43,-9.885465357949661e-07
3994.33,-9.899241551364887e-07
3995.23,-9.87168520643798e-07
3996.13,-9.818915863110145e-07
3997.03,-9.762694794157738e-07
3997.93,-9.801006352515762e-07
3998.83,-9.855332214060962e-07
3999.73,-9.951652598653713e-07
4000.63,-1.0132445180021403e-06
4001.53,-1.0215324494115688e-06
4002.43,-1.034495786620401e-06
4003.33,-1.0295761607087971e-06
4004.23,-1.027010571777686e-06
4005.13,-1.0157199407694996e-06
4006.03,-1.0085567318879997e-06
4006.93,-1.0067979824908276e-06
4007.83,-1.0067809500205625e-06
4008.73,-1.0231260131412589e-06
4009.63,-1.0349155677309328e-06
4010.53,-1.0547321816891278e-06
4011.43,-1.0650202213989592e-06
4012.33,-1.075372793550867e-06
4013.23,-1.0758386595441815e-06
4014.13,-1.0818081071466382e-06
4015.03,-1.0862843518993736e-06
4015.93,-1.0937327465403062e-06
4016.84,-1.0906683763897604e-06
4017.74,-1.0945006284682896e-06
4018.64,-1.1027874859265497e-06
4019.54,-1.1088810605411065e-06
4020.44,-1.1141542228156246e-06
4021.34,-1.1193568723937302e-06
4022.24,-1.1220489281205904e-06
4023.14,-1.1194214924647692e-06
4024.04,-1.1100259150217836e-06
4024.94,-1.1180502504980057e-06
4025.84,-1.118145205957654e-06
4026.74,-1.1275757459981148e-06
4027.64,-1.1296131165207064e-06
4028.54,-1.1262899339899394e-06
4029.44,-1.1163405731250705e-06
4030.34,-1.0938087443965168e-06
4031.24,-1.0716779433717867e-06
4032.14,-1.0524227887096643e-06
4033.04,-1.041256596762719e-06
4033.94,-1.0434880234511593e-06
4034.84,-1.052724095559013e-06
4035.74,-1.076935251067826e-06
4036.64,-1.104238442925421e-06
4037.54,-1.1340711706826566e-06
4038.44,-1.1557780402989105e-06
4039.34,-1.1632672964040607e-06
4040.24,-1.170787700501257e-06
4041.14,-1.1689432346386254e-06
4042.04,-1.1513052699297237e-06
4042.94,-1.1386139537141035e-06
4043.84,-1.111616264841121e-06
4044.74,-1.0897099297273178e-06
4045.64,-1.0725601184674824e-06
4046.54,-1.0601845746746365e-06
4047.44,-1.0683784768624713e-06
4048.34,-1.089078329709569e-06
4049.24,-1.1116629816900133e-06
4050.14,-1.1414370463042e-06
4051.04,-1.152647383465377e-06
4051.94,-1.1622708794363452e-06
4052.84,-1.1556787176855031e-06
4053.74,-1.1484533681018084e-06
4054.65,-1.1340738298071723e-06
4055.55,-1.1199426351635835e-06
4056.45,-1.1127134449343652e-06
4057.35,-1.1110599963935535e-06
4058.25,-1.1059448138916408e-06
4059.15,-1.1080682928812882e-06
4060.05,-1.1169521427850897e-06
4060.95,-1.115897338401323e-06
4061.85,-1.1139122754985528e-06
4062.75,-1.105834771971682e-06
4063.65,-1.095182252679496e-06
4064.55,-1.088017361477039e-06
4065.45,-1.0842658880391362e-06
4066.35,-1.0917900759636183e-06
4067.25,-1.102364536063282e-06
4068.15,-1.1173145741720534e-06
4069.05,-1.1300932458447715e-06
4069.95,-1.1363163045245752e-06
4070.85,-1.1390218704576618e-06
4071.75,-1.1333989552403462e-06
4072.65,-1.1297291323800793e-06
4073.55,-1.1265194308002019e-06
4074.45,-1.1156716424601867e-06
4075.35,-1.1093959941931813e-06
4076.25,-1.0912921334489717e-06
4077.15,-1.0756399145295837e-06
4078.05,-1.0708702669152976e-06
4078.95,-1.0667394149243998e-06
4079.85,-1.0805952036967601e-06
4080.75,-1.1008428200725416e-06
4081.65,-1.1172127166762963e-06
4082.55,-1.1359753505830938e-06
4083.45,-1.1419441370186796e-06
4084.35,-1.142700647544989e-06
4085.25,-1.1462382304685391e-06
4086.15,-1.148031956951716e-06
4087.05,-1.1550142235302864e-06
4087.95,-1.1647135656487885e-06
4088.85,-1.1746611230027646e-06
4089.75,-1.1736354688891222e-06
4090.65,-1.1762056315294829e-06
4091.55,-1.1673040781203854e-06
4092.45,-1.1526709411208038e-06
4093.36,-1.1365489318907938e-06
4094.26,-1.1119673086638247e-06
4095.16,-1.0841244326176812e-06
4096.06,-1.0457235967492318e-06
4096.96,-1.0183022457543687e-06
4097.86,-9.78365487697889e-07
4098.76,-9.35996434435718e-07
4099.66,-8.920859668290803e-07
4100.56,-8.488122783077255e-07
4101.46,-8.124165918878548e-07
4102.36,-7.94790296487663e-07
4103.26,-7.971080464255584e-07
4104.16,-8.181558853744876e-07
4105.06,-8.575127264797537e-07
4105.96,-9.047227493883264e-07
4106.86,-9.529441194077938e-07
4107.76,-9.940818316332473e-07
4108.66,-1.0292827923217013e-06
4109.56,-1.0526477571148376e-06
4110.46,-1.0715333775751276e-06
4111.36,-1.0924652657750674e-06
4112.26,-1.1158702220170859e-06
4113.16,-1.134747630907818e-06
4114.06,-1.149998466020208e-06
4114.96,-1.176256232006811e-06
4115.86,-1.1913298348098742e-06
4116.76,-1.1997383287847994e-06
4117.66,-1.2025356628190848e-06
4118.56,-1.1990271211640795e-06
4119.46,-1.2037876709605656e-06
4120.36,-1.1972228395279754e-06
4121.26,-1.200370871279027e-06
4122.16,-1.2016837073623102e-06
4123.06,-1.2079785786057149e-06
4123.96,-1.2115578579390602e-06
4124.86,-1.223360742249228e-06
4125.76,-1.2317906083766987e-06
4126.66,-1.2294689101523661e-06
4127.56,-1.2286623381949156e-06
4128.46,-1.2250413255670632e-06
4129.36,-1.2083870873274405e-06
4130.26,-1.2084534688940102e-06
4131.17,-1.1980622348186292e-06
4132.06,-1.194759857516972e-06
4132.97,-1.196882978522326e-06
4133.87,-1.197584932959586e-06
4134.77,-1.2098710501507076e-06
4135.67,-1.2214007305161806e-06
4136.57,-1.2548034159937158e-06
4137.47,-1.27791573687586e-06
4138.37,-1.3031463934886437e-06
4139.27,-1.3080104024946504e-06
4140.17,-1.317211808430671e-06
4141.07,-1.3119349105902952e-06
4141.97,-1.2946655895216961e-06
4142.87,-1.2782581964662993e-06
4143.77,-1.2548298937572195e-06
4144.67,-1.2492611867926635e-06
4145.57,-1.2515829567556036e-06
4146.47,-1.2566292409137092e-06
4147.37,-1.2744570908125812e-06
4148.27,-1.2872663324684234e-06
4149.17,-1.2944000274893077e-06
4150.07,-1.2965731687468403e-06
4150.97,-1.2951109709212829e-06
4151.87,-1.2871107181559771e-06
4152.77,-1.2857443899690461e-06
4153.67,-1.277083087461741e-06
4154.57,-1.270391673364768e-06
4155.47,-1.2729861512669128e-06
4156.37,-1.2712907501217029e-06
4157.27,-1.279744750389747e-06
4158.17,-1.2877549795218655e-06
4159.07,-1.3050035944748966e-06
4159.97,-1.322776096053281e-06
4160.87,-1.3386306383885757e-06
4161.77,-1.3534253718485445e-06
4162.67,-1.366656161637204e-06
4163.57,-1.372676317432413e-06
4164.47,-1.3719928217560572e-06
4165.37,-1.3742169700097803e-06
4166.27,-1.372591957808496e-06
4167.17,-1.3609469874193766e-06
4168.07,-1.355350301357962e-06
4168.98,-1.3445097567731014e-06
4169.88,-1.333233036390602e-06
4170.78,-1.3167326943847307e-06
4171.68,-1.2998337740700155e-06
4172.58,-1.2796274097453517e-06
4173.48,-1.266916122026681e-06
4174.38,-1.2556957510353806e-06
4175.28,-1.2542867135341934e-06
4176.18,-1.2588870048185227e-06
4177.08,-1.269434716930386e-06
4177.98,-1.2798545509487043e-06
4178.88,-1.2876387492248426e-06
4179.78,-1.2972856678383937e-06
4180.68,-1.3145137961709968e-06
4181.58,-1.3243022783457628e-06
4182.48,-1.3329655576453263e-06
4183.38,-1.3405164205883385e-06
4184.28,-1.3431691925199816e-06
4185.18,-1.350146739596762e-06
4186.08,-1.3534010756028982e-06
4186.98,-1.353746004292626e-06
4187.88,-1.3509456772561657e-06
4188.78,-1.3505927766870416e-06
4189.68,-1.36043933874451e-06
4190.58,-1.373448656984441e-06
4191.48,-1.3845968280471507e-06
4192.38,-1.39396354267479e-06
4193.28,-1.4067128345716297e-06
4194.18,-1.4087020527761469e-06
4195.08,-1.4024380128647454e-06
4195.98,-1.3903356910876385e-06
4196.88,-1.3723724996219717e-06
4197.78,-1.3537477346338373e-06
4198.68,-1.3347747332050564e-06
4199.58,-1.3246230537548072e-06
4200.48,-1.322552958484651e-06
4201.38,-1.3243684509639835e-06
4202.28,-1.330190435912684e-06
4203.18,-1.3392397684601444e-06
4204.08,-1.3518295562190984e-06
4204.98,-1.3728779096475696e-06
4205.88,-1.3855934379729884e-06
4206.79,-1.4073779411775745e-06
4207.69,-1.4205586146459156e-06
4208.59,-1.4408193793265703e-06
4209.49,-1.4535747953433593e-06
4210.39,-1.4579390998553374e-06
4211.29,-1.4635098413262136e-06
4212.19,-1.460774203860871e-06
4213.09,-1.45802949522998e-06
4213.99,-1.4468096777027402e-06
4214.89,-1.4404797407193694e-06
4215.79,-1.4313260566471635e-06
4216.69,-1.429763367281735e-06
4217.59,-1.4390846829261541e-06
4218.49,-1.4546024858556981e-06
4219.39,-1.4777508774950557e-06
4220.29,-1.4920521863553948e-06
4221.19,-1.4936839564474456e-06
4222.09,-1.4865165150243496e-06
4222.99,-1.4661181636682372e-06
4223.89,-1.4306542231410231e-06
4224.79,-1.3822521409438265e-06
4225.69,-1.337261027531951e-06
4226.59,-1.3036399782005925e-06
4227.49,-1.2916391316561175e-06
4228.39,-1.3047310887556577e-06
4229.29,-1.3400250412744401e-06
4230.19,-1.381964127501921e-06
4231.09,-1.423256963762191e-06
4231.99,-1.4593354232198885e-06
4232.89,-1.469515539998039e-06
4233.79,-1.4694027389543694e-06
4234.69,-1.4616549243469323e-06
4235.59,-1.4497581963539849e-06
4236.49,-1.4465557611786087e-06
4237.39,-1.4419143458570226e-06
4238.29,-1.4472722966997256e-06
4239.19,-1.451749372571861e-06
4240.09,-1.468511013890182e-06
4240.99,-1.4861537838147813e-06
4241.89,-1.5045690207511086e-06
4242.79,-1.5108569266634445e-06
4243.69,-1.5292362784931218e-06
4244.59,-1.5341814034365477e-06
4245.5,-1.5383337201299201e-06
4246.4,-1.5297085792004487e-06
4247.3,-1.5129649825280695e-06
4248.2,-1.5015657348889765e-06
4249.1,-1.4843030691449254e-06
4250.0,-1.4798995580551703e-06
4250.9,-1.4710169681197583e-06
4251.8,-1.4699907173105985e-06
4252.7,-1.4792231662643905e-06
4253.6,-1.4928849110100894e-06
4254.5,-1.500037237789776e-06
4255.4,-1.5049017127800719e-06
4256.3,-1.5170810913852706e-06
4257.2,-1.5162095700471054e-06
4258.1,-1.5197888887632082e-06
4259.0,-1.5090157874005389e-06
4259.9,-1.5005319999590164e-06
4260.8,-1.501142230091942e-06
4261.7,-1.5020787544323307e-06
4262.6,-1.5197799885291579e-06
4263.5,-1.5456972870116089e-06
4264.4,-1.573340325729824e-06
4265.3,-1.5929961788924173e-06
4266.2,-1.606761540258658e-06
4267.1,-1.6122493880783686e-06
4268.0,-1.5952262891792385e-06
4268.9,-1.5742709917822091e-06
4269.8,-1.532406759341252e-06
4270.7,-1.499369686226575e-06
4271.6,-1.4612312164068122e-06
4272.5,-1.4373040738807688e-06
4273.4,-1.4302844549115288e-06
4274.3,-1.433014533171697e-06
4275.2,-1.4563551970022929e-06
