wave,flux
3700.85,-5.802982064338402e-07
3701.75,-5.748926846069133e-07
3702.65,-5.648287239787121e-07
3703.55,-5.444971399427531e-07
3704.45,-5.224485323662925e-07
3705.35,-5.08991092353287e-07
3706.25,-5.024640172055536e-07
3707.15,-5.024561900281955e-07
3708.05,-5.073736472086874e-07
3708.96,-5.158550016048405e-07
3709.86,-5.213116655015387e-07
3710.76,-5.25486016779798e-07
3711.66,-5.329940403432383e-07
3712.56,-5.479881405305706e-07
3713.46,-5.627183211890744e-07
3714.36,-5.865183182251374e-07
3715.26,-6.026413333126656e-07
3716.16,-6.164612502707987e-07
3717.06,-6.2006538314979e-07
3717.96,-6.114209336930537e-07
3718.86,-5.881079483975069e-07
3719.76,-5.59616765569622e-07
3720.66,-5.286293858864132e-07
3721.56,-5.019175282374246e-07
3722.46,-4.922327838847687e-07
3723.36,-5.000607544260503e-07
3724.26,-5.21718434780968e-07
3725.16,-5.502514156654829e-07
3726.06,-5.780697094207602e-07
3726.96,-6.005244525765176e-07
3727.86,-6.120695475443667e-07
3728.76,-6.160647947667534e-07
3729.66,-6.174340364330734e-07
3730.56,-6.060182028997509e-07
3731.46,-5.851343142061236e-07
3732.36,-5.551026269023369e-07
3733.26,-5.220028839541627e-07
3734.16,-4.878800406025793e-07
3735.06,-4.641120764129675e-07
3735.96,-4.6117915188881565e-07
3736.86,-4.7112862382284247e-07
3737.76,-4.983273251344941e-07
3738.66,-5.381671145005054e-07
3739.56,-5.797945194153523e-07
3740.46,-6.146534859400347e-07
3741.36,-6.390263384495561e-07
3742.26,-6.483349701109914e-07
3743.16,-6.44330581779739e-07
3744.06,-6.346094629237528e-07
3744.96,-6.153268559162909e-07
3745.86,-5.905404594813376e-07
3746.76,-5.615203875497575e-07
3747.67,-5.299902835193442e-07
3748.57,-5.046925370949539e-07
3749.47,-4.834783750430085e-07
3750.37,-4.7570383243481116e-07
3751.27,-4.879454021969946e-07
3752.17,-5.196802458496602e-07
3753.07,-5.610748007250325e-07
3753.97,-6.022175602596305e-07
3754.87,-6.432558829126435e-07
3755.77,-6.682978611257012e-07
3756.67,-6.84607290504026e-07
3757.57,-6.81750681095522e-07
3758.47,-6.752936151644731e-07
3759.37,-6.679258960923104e-07
3760.27,-6.659344938663992e-07
3761.17,-6.689889508554309e-07
3762.07,-6.801506984012359e-07
3762.97,-6.899883581953018e-07
3763.87,-6.95896429258635e-07
3764.77,-6.96743046823026e-07
3765.67,-6.912575009993903e-07
3766.57,-6.75051531001717e-07
3767.47,-6.519406002696463e-07
3768.37,-6.298659472602089e-07
3769.27,-6.086801199741105e-07
3770.17,-5.872770011171218e-07
3771.07,-5.780230076548168e-07
3771.97,-5.878834151548023e-07
3772.87,-6.020325864411435e-07
3773.77,-6.316117780315171e-07
3774.67,-6.601088076481042e-07
3775.57,-6.926474444065131e-07
3776.47,-7.190931653793349e-07
3777.37,-7.469558361179081e-07
3778.27,-7.683100813814355e-07
3779.17,-7.966998712287326e-07
3780.07,-8.11623090202169e-07
3780.97,-8.355597180406258e-07
3781.87,-8.493149543762714e-07
3782.77,-8.56696355438727e-07
3783.67,-8.576647829675782e-07
3784.57,-8.532422905008939e-07
3785.47,-8.428275713312381e-07
3786.38,-8.292587232935208e-07
3787.28,-8.080200611827364e-07
3788.18,-7.949691811216988e-07
3789.08,-7.805444352363087e-07
3789.98,-7.701363277586686e-07
3790.88,-7.593927809795253e-07
3791.78,-7.462739985977372e-07
3792.68,-7.272432543759309e-07
3793.58,-7.055529961629449e-07
3794.48,-6.77588043857685e-07
3795.38,-6.429101830327293e-07
3796.28,-6.082558141440012e-07
3797.18,-5.768261425632411e-07
3798.08,-5.591522597030806e-07
3798.98,-5.58751899616832e-07
3799.88,-5.772386774635374e-07
3800.78,-6.121788145593188e-07
3801.68,-6.5761015327165e-07
3802.58,-7.06071365188979e-07
3803.48,-7.526621691511529e-07
3804.38,-7.881753618236036e-07
3805.28,-8.147696738406712e-07
3806.18,-8.24371294830274e-07
3807.08,-8.388396006022386e-07
3807.98,-8.563569317306555e-07
3808.88,-8.708587345847478e-07
3809.78,-8.83094741643595e-07
3810.68,-8.942076041786604e-07
3811.58,-8.979908056259138e-07
3812.48,-8.90657478353226e-07
3813.38,-8.851357513934468e-07
3814.28,-8.661738341430987e-07
3815.18,-8.572796412523275e-07
3816.08,-8.545312095278093e-07
3816.98,-8.55201785950098e-07
3817.88,-8.604109823180849e-07
3818.78,-8.593352108697704e-07
3819.68,-8.581664823479106e-07
3820.58,-8.58733170793888e-07
3821.48,-8.461434898967543e-07
3822.38,-8.407116501785019e-07
3823.28,-8.305346513423596e-07
3824.18,-8.164605278302939e-07
3825.09,-7.992614506670751e-07
3825.99,-7.825525297903031e-07
3826.89,-7.659665375496312e-07
3827.79,-7.50535434900588e-07
3828.69,-7.339443130564638e-07
3829.59,-7.141758228834741e-07
3830.49,-6.979742072904701e-07
3831.39,-6.659715372253639e-07
3832.29,-6.335294897271963e-07
3833.19,-5.988972291294495e-07
3834.09,-5.597319427083191e-07
3834.99,-5.357080634897998e-07
3835.89,-5.227093206419531e-07
3836.79,-5.211222386786439e-07
3837.69,-5.357891395257601e-07
3838.59,-5.610598271858735e-07
3839.49,-5.942155522894783e-07
3840.39,-6.355781605921009e-07
3841.29,-6.790256121753975e-07
3842.19,-7.227582778174701e-07
3843.09,-7.682721405585127e-07
3843.99,-8.071095125596038e-07
3844.89,-8.390433086729122e-07
3845.79,-8.678834707352578e-07
3846.69,-8.935263135752691e-07
3847.59,-9.076055871711945e-07
3848.49,-9.202297878476462e-07
3849.39,-9.271134575783611e-07
3850.29,-9.358754279126112e-07
3851.19,-9.48238410768582e-07
3852.09,-9.58238881241843e-07
3852.99,-9.656441255418156e-07
3853.89,-9.707070555839684e-07
3854.79,-9.737942337630094e-07
3855.69,-9.708270773473396e-07
3856.59,-9.655037444571345e-07
3857.49,-9.570636618714386e-07
3858.39,-9.455147039234884e-07
3859.29,-9.4374032960761e-07
3860.19,-9.463205473373966e-07
3861.09,-9.505875122653857e-07
3861.99,-9.67803327662335e-07
3862.9,-9.862835981864989e-07
3863.8,-1.0042436730742066e-06
3864.7,-1.016245646418367e-06
3865.6,-1.0211470129691934e-06
3866.5,-1.0222148067578576e-06
3867.4,-1.0195688468991805e-06
3868.3,-1.0171825783380791e-06
3869.2,-1.018456173709144e-06
3870.1,-1.009005681266874e-06
3871.0,-9.964499669685787e-07
3871.9,-9.770026975077195e-07
3872.8,-9.629959917240725e-07
3873.7,-9.521055747810509e-07
3874.6,-9.459003264322428e-07
3875.5,-9.464378778777316e-07
3876.4,-9.432936226284749e-07
3877.3,-9.358948198565282e-07
3878.2,-9.293277341018456e-07
3879.1,-9.169596719420997e-07
3880.0,-9.073117510641509e-07
3880.9,-8.984738737106305e-07
3881.8,-8.930699086120563e-07
3882.7,-8.795856191970614e-07
3883.6,-8.652511349226697e-07
3884.5,-8.332297749835785e-07
3885.4,-8.000588902858012e-07
3886.3,-7.622973079858265e-07
3887.2,-7.185210596019486e-07
3888.1,-6.803369439515384e-07
3889.0,-6.564276956310759e-07
3889.9,-6.489829427351955e-07
3890.8,-6.603597497167867e-07
3891.7,-6.940670165105015e-07
3892.6,-7.317523987586572e-07
3893.5,-7.721287154155299e-07
3894.4,-8.070730917421165e-07
3895.3,-8.41882062632467e-07
3896.2,-8.729936479953846e-07
3897.1,-8.885884624685223e-07
3898.0,-9.147503091040016e-07
3898.9,-9.329117273698922e-07
3899.8,-9.486700478761752e-07
3900.7,-9.582549655405853e-07
3901.6,-9.774264150770452e-07
3902.51,-9.81173755011055e-07
3903.41,-9.849559310543135e-07
3904.31,-9.8972590075512e-07
3905.21,-9.910823635217492e-07
3906.11,-9.977931326961104e-07
3907.01,-1.0093153580856361e-06
3907.91,-1.021747977669925e-06
3908.81,-1.039540120426859e-06
3909.71,-1.0641006212046427e-06
3910.61,-1.0935378953640543e-06
3911.51,-1.0987968399396749e-06
3912.41,-1.1071192747497116e-06
3913.31,-1.1120199529313858e-06
3914.21,-1.1063951202202618e-06
3915.11,-1.101120766239927e-06
3916.01,-1.096705907791347e-06
3916.91,-1.0883954913892469e-06
3917.81,-1.0762570288655315e-06
3918.71,-1.0687967322866233e-06
3919.61,-1.0628071124743672e-06
3920.51,-1.0553718044502813e-06
3921.41,-1.048122096489857e-06
3922.31,-1.0431681171669056e-06
3923.21,-1.047407607796737e-06
3924.11,-1.0398313794525284e-06
3925.01,-1.0294611394618e-06
3925.91,-1.0113687486963304e-06
3926.81,-9.83610504771179e-07
3927.71,-9.348480578769351e-07
3928.61,-8.817135502857108e-07
3929.51,-8.147008812505296e-07
3930.41,-7.418546517573635e-07
3931.31,-6.634443109310142e-07
3932.21,-5.831230462774226e-07
3933.11,-5.220963746624499e-07
3934.01,-4.818275519010563e-07
3934.91,-4.7526163429042116e-07
3935.81,-5.030620423736605e-07
3936.71,-5.575240398600987e-07
3937.61,-6.333510745780615e-07
3938.51,-7.17645910403032e-07
3939.42,-8.028862270510263e-07
3940.32,-8.743715255532653e-07
3941.22,-9.323135983162258e-07
3942.12,-9.670122281392847e-07
3943.02,-1.002445722634572e-06
3943.92,-1.0233778623343465e-06
3944.82,-1.0450133186010033e-06
3945.72,-1.05845975806271e-06
3946.62,-1.0750679894563309e-06
3947.52,-1.091799650906997e-06
3948.42,-1.097395766651346e-06
3949.32,-1.1021124448781566e-06
3950.22,-1.1100487314654842e-06
3951.12,-1.1193860940985868e-06
3952.02,-1.1181767227785302e-06
3952.92,-1.1201416109384253e-06
3953.82,-1.1266591217400965e-06
3954.72,-1.122071680805458e-06
3955.62,-1.1223103508304755e-06
3956.52,-1.1141886685386764e-06
3957.42,-1.1000156257694393e-06
3958.32,-1.0869029349541872e-06
3959.22,-1.0722084355486515e-06
3960.12,-1.052157206573416e-06
3961.02,-1.0203683757292381e-06
3961.92,-9.823698749722453e-07
3962.82,-9.283686177605404e-07
3963.72,-8.76811286473953e-07
3964.62,-8.122353631058423e-07
3965.52,-7.386508151534541e-07
3966.42,-6.599350349812153e-07
3967.32,-5.80266941942998e-07
3968.22,-5.147979212696151e-07
3969.12,-4.671113863928416e-07
3970.02,-4.490802328134084e-07
3970.92,-4.6343461780703296e-07
3971.82,-5.080167317933967e-07
3972.72,-5.729910463350737e-07
3973.62,-6.540011411954992e-07
3974.52,-7.315396492716022e-07
3975.42,-8.106723271856715e-07
3976.32,-8.830840994341378e-07
3977.22,-9.44430637982303e-07
3978.13,-1.0024961524109606e-06
3979.03,-1.0457540288064197e-06
3979.93,-1.0887617546012852e-06
3980.83,-1.114753557992947e-06
3981.73,-1.14005327992196e-06
3982.63,-1.1564220961165898e-06
3983.53,-1.1720958294949713e-06
3984.43,-1.1855363662425253e-06
3985.33,-1.1960225216478647e-06
3986.23,-1.214474442111794e-06
3987.13,-1.2280337259397212e-06
3988.03,-1.2454932309480408e-06
3988.93,-1.2601502760642903e-06
3989.83,-1.273855167172658e-06
3990.73,-1.2868961510487667e-06
3991.63,-1.3045739943715102e-06
3992.53,-1.3050593488781198e-06
3993.43,-1.316176656806387e-06
3994.33,-1.315230813307189e-06
3995.23,-1.3095165217113957e-06
3996.13,-1.303967618921307e-06
3997.03,-1.2950308715981524e-06
3997.93,-1.2962920949151857e-06
3998.83,-1.2977363895264999e-06
3999.73,-1.3129049109288923e-06
4000.63,-1.3267668459827694e-06
4001.53,-1.3428018435999989e-06
4002.43,-1.3509848428546073e-06
4003.33,-1.357017371821857e-06
4004.23,-1.3539198619340108e-06
4005.13,-1.3426429314796579e-06
4006.03,-1.3382568017463807e-06
4006.93,-1.3357625231134659e-06
4007.83,-1.3410013848490198e-06
4008.73,-1.3571524720886336e-06
4009.63,-1.3757361677304215e-06
4010.53,-1.390444492400196e-06
4011.43,-1.402348029643751e-06
4012.33,-1.4045956799987257e-06
4013.23,-1.4060604337832142e-06
4014.13,-1.4062528959780464e-06
4015.03,-1.4172069228813599e-06
4015.93,-1.419778997869661e-06
4016.84,-1.4249560968648629e-06
4017.74,-1.4269352823528423e-06
4018.64,-1.4321809928019658e-06
4019.54,-1.4400751003653218e-06
4020.44,-1.443149871472069e-06
4021.34,-1.4473768490598722e-06
4022.24,-1.4503475476436486e-06
4023.14,-1.444622666283266e-06
4024.04,-1.4502707463584077e-06
4024.94,-1.4510877319269268e-06
4025.84,-1.464381018774954e-06
4026.74,-1.4559985256404994e-06
4027.64,-1.4690674653556872e-06
4028.54,-1.4688650100311945e-06
4029.44,-1.4607593022425477e-06
4030.34,-1.4460475299213778e-06
4031.24,-1.422831949220377e-06
4032.14,-1.4098144863692569e-06
4033.04,-1.3978805582589047e-06
4033.94,-1.405051973904069e-06
4034.84,-1.4145747819935022e-06
4035.74,-1.4393421491001394e-06
4036.64,-1.4642404974138882e-06
4037.54,-1.4915903677206266e-06
4038.44,-1.5093785854614473e-06
4039.34,-1.5270410098280494e-06
4040.24,-1.525250992077935e-06
4041.14,-1.5201375685599036e-06
4042.04,-1.5060567973768038e-06
4042.94,-1.4910719472336636e-06
4043.84,-1.4690516374178471e-06
4044.74,-1.4581594138335968e-06
4045.64,-1.4312999603902846e-06
4046.54,-1.4292420183115067e-06
4047.44,-1.4350086216916095e-06
4048.34,-1.449138581873837e-06
4049.24,-1.4743122209985264e-06
4050.14,-1.4990596345232765e-06
4051.04,-1.50949059861135e-06
4051.94,-1.518042651662457e-06
4052.84,-1.5166725564113302e-06
4053.74,-1.5137319998637285e-06
4054.65,-1.501669403416205e-06
4055.55,-1.4986256509102157e-06
4056.45,-1.4928477162338986e-06
4057.35,-1.4879630191111275e-06
4058.25,-1.4905208018745053e-06
4059.15,-1.4980602086487385e-06
4060.05,-1.503470219347598e-06
4060.95,-1.5033836437167992e-06
4061.85,-1.4947628309852335e-06
4062.75,-1.4859454430774044e-06
4063.65,-1.474848222469874e-06
4064.55,-1.469008947888652e-06
4065.45,-1.4638492654369394e-06
4066.35,-1.4651698993477567e-06
4067.25,-1.470254290764044e-06
4068.15,-1.4885712786780107e-06
4069.05,-1.5009373341825479e-06
4069.95,-1.5111565384494663e-06
4070.85,-1.5132363005864491e-06
4071.75,-1.5084499017098775e-06
4072.65,-1.5031225726337293e-06
4073.55,-1.5036110858369683e-06
4074.45,-1.4920198598701243e-06
4075.35,-1.4785333905149843e-06
4076.25,-1.4568629922566417e-06
4077.15,-1.4401127725413103e-06
4078.05,-1.426050361482687e-06
4078.95,-1.4210163577453415e-06
4079.85,-1.4428934548220444e-06
4080.75,-1.4578678293451354e-06
4081.65,-1.4687348325765672e-06
4082.55,-1.4922241529434205e-06
4083.45,-1.4994374259211872e-06
4084.35,-1.5010541936092654e-06
4085.25,-1.5052786126424433e-06
4086.15,-1.5062891575982763e-06
4087.05,-1.5160582159164504e-06
4087.95,-1.5312598072485015e-06
4088.85,-1.5479608038708232e-06
4089.75,-1.5543172578120144e-06
4090.65,-1.5410253068867004e-06
4091.55,-1.5350163497862186e-06
4092.45,-1.5235723186386144e-06
4093.36,-1.5076237663562218e-06
4094.26,-1.4788087250127524e-06
4095.16,-1.4544258663647485e-06
4096.06,-1.4158480443384026e-06
4096.96,-1.3714599179434235e-06
4097.86,-1.3203299535849673e-06
4098.76,-1.2655042650496155e-06
4099.66,-1.2060830865628663e-06
4100.56,-1.147920318195499e-06
4101.46,-1.0982055652933359e-06
4102.36,-1.0724306743215627e-06
4103.26,-1.0718645892040873e-06
4104.16,-1.1001688710244885e-06
4105.06,-1.1530935468473098e-06
4105.96,-1.2085947815309768e-06
4106.86,-1.2676297287552324e-06
4107.76,-1.32623167225087e-06
4108.66,-1.3689080577242854e-06
4109.56,-1.4033404743742325e-06
4110.46,-1.4275663716044948e-06
4111.36,-1.4583942930601379e-06
4112.26,-1.486009176504178e-06
4113.16,-1.5082477398990944e-06
4114.06,-1.526206332315421e-06
4114.96,-1.5520087473387109e-06
4115.86,-1.5701171976761369e-06
4116.76,-1.5862942419253476e-06
4117.66,-1.585994848875899e-06
4118.56,-1.5888500506172772e-06
4119.46,-1.583485580455755e-06
4120.36,-1.5857774657543206e-06
4121.26,-1.583587718679433e-06
4122.16,-1.593841685394741e-06
4123.06,-1.5985457295380135e-06
4123.96,-1.610134544053557e-06
4124.86,-1.6196990003336502e-06
4125.76,-1.630582935220061e-06
4126.66,-1.6413569873080458e-06
4127.56,-1.6463574340788933e-06
4128.46,-1.6343842842699123e-06
4129.36,-1.6247693217313785e-06
4130.26,-1.6281566869636822e-06
4131.17,-1.619345101995506e-06
4132.06,-1.6169262731262266e-06
4132.97,-1.6057802814919736e-06
4133.87,-1.6148934896620515e-06
4134.77,-1.6192101043030664e-06
4135.67,-1.630387444880009e-06
4136.57,-1.6563274740812756e-06
4137.47,-1.6883760748343597e-06
4138.37,-1.703996720653412e-06
4139.27,-1.7201230943055068e-06
4140.17,-1.7318751209502804e-06
4141.07,-1.71653527765463e-06
4141.97,-1.7132933343058358e-06
4142.87,-1.6896081708806033e-06
4143.77,-1.6770880135435898e-06
4144.67,-1.6632848172588555e-06
4145.57,-1.6711779645108844e-06
4146.47,-1.6857676392559592e-06
4147.37,-1.6997513831845703e-06
4148.27,-1.7158608704808095e-06
4149.17,-1.7258078085785703e-06
4150.07,-1.7249257156903731e-06
4150.97,-1.7239831345327843e-06
4151.87,-1.7289524771785643e-06
4152.77,-1.7256497430843687e-06
4153.67,-1.7177822188807772e-06
4154.57,-1.7071902358735006e-06
4155.47,-1.7147474756413156e-06
4156.37,-1.7198384342160835e-06
4157.27,-1.7219733132469767e-06
4158.17,-1.7286663269500498e-06
4159.07,-1.7468751514584593e-06
4159.97,-1.7614408863380109e-06
4160.87,-1.781579473746088e-06
4161.77,-1.786610718905118e-06
4162.67,-1.7956386144390296e-06
4163.57,-1.8053714359701174e-06
4164.47,-1.8075052215437838e-06
4165.37,-1.8011819550281739e-06
4166.27,-1.8045130832426137e-06
4167.17,-1.801918857568479e-06
4168.07,-1.7911673197022676e-06
4168.98,-1.7926207627703855e-06
4169.88,-1.7729940412628014e-06
4170.78,-1.761753716392382e-06
4171.68,-1.7335251307761226e-06
4172.58,-1.7183315261866506e-06
4173.48,-1.7093996973264022e-06
4174.38,-1.7024402644318637e-06
4175.28,-1.6976347626135428e-06
4176.18,-1.7036405990814398e-06
4177.08,-1.708526214678458e-06
4177.98,-1.7331798328837568e-06
4178.88,-1.7420446653565879e-06
4179.78,-1.753497167914812e-06
4180.68,-1.7674012126876893e-06
4181.58,-1.7836492005974334e-06
4182.48,-1.7930545004754071e-06
4183.38,-1.788787775478342e-06
4184.28,-1.7986888944520202e-06
4185.18,-1.7999405818861657e-06
4186.08,-1.7994269432036834e-06
4186.98,-1.7953727366135326e-06
4187.88,-1.7964702878779664e-06
4188.78,-1.8011437994933562e-06
4189.68,-1.8110935638236476e-06
4190.58,-1.8144303637878892e-06
4191.48,-1.8220152838750314e-06
4192.38,-1.8367458134696753e-06
4193.28,-1.857221984301534e-06
4194.18,-1.8576776757088321e-06
4195.08,-1.8543751380958517e-06
4195.98,-1.8382536757791414e-06
4196.88,-1.8182318964994831e-06
4197.78,-1.8053996875592655e-06
4198.68,-1.7969376981880691e-06
4199.58,-1.7835899252349768e-06
4200.48,-1.778588797555131e-06
4201.38,-1.7759793508411614e-06
4202.28,-1.7794462257253382e-06
4203.18,-1.7863282999003304e-06
4204.08,-1.800142423248496e-06
4204.98,-1.8126289177594662e-06
4205.88,-1.8280523197206248e-06
4206.79,-1.8449343940169321e-06
4207.69,-1.8590381950165126e-06
4208.59,-1.8796815536473901e-06
4209.49,-1.8849431723942535e-06
4210.39,-1.900700487581287e-06
4211.29,-1.9021831351393681e-06
4212.19,-1.8950193143209573e-06
4213.09,-1.8989716958242394e-06
4213.99,-1.8944454246841225e-06
4214.89,-1.879106821035512e-06
4215.79,-1.8712206373689237e-06
4216.69,-1.8658027080255517e-06
4217.59,-1.87049999816989e-06
4218.49,-1.8690706642410695e-06
4219.39,-1.893601493396683e-06
4220.29,-1.9093206461444863e-06
4221.19,-1.9163485043013235e-06
4222.09,-1.9028727032743565e-06
4222.99,-1.893797500429254e-06
4223.89,-1.8594309663833822e-06
4224.79,-1.821860911247354e-06
4225.69,-1.787275290249649e-06
4226.59,-1.7575889570247636e-06
4227.49,-1.7418802733952191e-06
4228.39,-1.7514643010244099e-06
4229.29,-1.7794555109707688e-06
4230.19,-1.8309433587116359e-06
4231.09,-1.8627486437691124e-06
4231.99,-1.8895091795936918e-06
4232.89,-1.911834795211728e-06
4233.79,-1.8987830473746852e-06
4234.69,-1.9063697900025131e-06
4235.59,-1.9037965354679107e-06
4236.49,-1.8939034413829551e-06
4237.39,-1.8835066316093316e-06
4238.29,-1.8880883750147018e-06
4239.19,-1.8995420988481434e-06
4240.09,-1.913154582264802e-06
4240.99,-1.929826150087357e-06
4241.89,-1.9442421233750657e-06
4242.79,-1.9573197880169526e-06
4243.69,-1.963809258868646e-06
4244.59,-1.977773884704436e-06
4245.5,-1.9741022977528455e-06
4246.4,-1.95424074626482e-06
4247.3,-1.9453510238846284e-06
4248.2,-1.9342786990262358e-06
4249.1,-1.9204028524928614e-06
4250.0,-1.9143950325671153e-06
4250.9,-1.913959459115143e-06
4251.8,-1.928372415442947e-06
4252.7,-1.943014881595996e-06
4253.6,-1.961034648831286e-06
4254.5,-1.963148691753146e-06
4255.4,-1.9651354614567877e-06
4256.3,-1.986145873849589e-06
4257.2,-1.994130791762279e-06
4258.1,-1.9863937607204485e-06
4259.0,-1.981314976893961e-06
4259.9,-1.9708832344453924e-06
4260.8,-1.979206955862652e-06
4261.7,-1.9692319775414404e-06
4262.6,-1.990849725932796e-06
4263.5,-2.0075515287671124e-06
4264.4,-2.035598759716386e-06
4265.3,-2.0474806894349286e-06
4266.2,-2.0600519070525924e-06
4267.1,-2.0600801722523227e-06
4268.0,-2.0548709870585587e-06
4268.9,-2.0319632974427436e-06
4269.8,-2.010719808948053e-06
4270.7,-1.9730528065282795e-06
4271.6,-1.9453754096667857e-06
4272.5,-1.9307620319915624e-06
4273.4,-1.9246227418908537e-06
4274.3,-1.9185983342868183e-06
4275.2,-1.9353896488989225e-06
