wave,flux
3700.85,-7.769529366041049e-07
3701.75,-7.690514137401118e-07
3702.65,-7.427534736148337e-07
3703.55,-7.037623949116417e-07
3704.45,-6.587272918007171e-07
3705.35,-6.215843891977521e-07
3706.25,-5.888935416897191e-07
3707.15,-5.719058969372828e-07
3708.05,-5.725360373707294e-07
3708.96,-5.84772358130856e-07
3709.86,-6.114122801292923e-07
3710.76,-6.462029891755538e-07
3711.66,-6.921435225971461e-07
3712.56,-7.335369408356066e-07
3713.46,-7.766049091801542e-07
3714.36,-8.080782099741431e-07
3715.26,-8.206536749793825e-07
3716.16,-8.140833090053826e-07
3717.06,-7.902268391692821e-07
3717.96,-7.505972937251057e-07
3718.86,-6.944653378326e-07
3719.76,-6.353371586463502e-07
3720.66,-5.852454862504692e-07
3721.56,-5.551468923000641e-07
3722.46,-5.498704683278998e-07
3723.36,-5.780850157215775e-07
3724.26,-6.153598111872759e-07
3725.16,-6.624745766382517e-07
3726.06,-6.950424568017529e-07
3726.96,-7.163929491815706e-07
3727.86,-7.241569526439839e-07
3728.76,-7.251140438406099e-07
3729.66,-7.180635563629602e-07
3730.56,-7.036559764850004e-07
3731.46,-6.756471261408497e-07
3732.36,-6.369523299683363e-07
3733.26,-5.884472586073494e-07
3734.16,-5.405873416058309e-07
3735.06,-5.029266167132135e-07
3735.96,-4.871177353129973e-07
3736.86,-4.956826994551796e-07
3737.76,-5.276520036877828e-07
3738.66,-5.791530498594235e-07
3739.56,-6.330500063171861e-07
3740.46,-6.866515086141274e-07
3741.36,-7.1830985674722e-07
3742.26,-7.27097511586683e-07
3743.16,-7.137669861338393e-07
3744.06,-6.816712342640701e-07
3744.96,-6.444949874234958e-07
3745.86,-6.051527763991577e-07
3746.76,-5.706618945283867e-07
3747.67,-5.422394370105436e-07
3748.57,-5.255113288049422e-07
3749.47,-5.220633557447221e-07
3750.37,-5.421696351460196e-07
3751.27,-5.861805425314024e-07
3752.17,-6.462228230908488e-07
3753.07,-7.150515576984078e-07
3753.97,-7.836958557633055e-07
3754.87,-8.27059169233898e-07
3755.77,-8.488031278214496e-07
3756.67,-8.433563499307343e-07
3757.57,-8.139192736799104e-07
3758.47,-7.739422508790145e-07
3759.37,-7.443951400855399e-07
3760.27,-7.313924862699715e-07
3761.17,-7.356522122001195e-07
3762.07,-7.463596202321221e-07
3762.97,-7.599228600134699e-07
3763.87,-7.717026245156695e-07
3764.77,-7.779638352711682e-07
3765.67,-7.802583740621922e-07
3766.57,-7.790335936103014e-07
3767.47,-7.807440581320855e-07
3768.37,-7.774072930609436e-07
3769.27,-7.866032041027041e-07
3770.17,-7.9968276944828e-07
3771.07,-8.214479035902549e-07
3771.97,-8.500696360149059e-07
3772.87,-8.833164844451473e-07
3773.77,-9.151055706911884e-07
3774.67,-9.393947374932109e-07
3775.57,-9.636500146809786e-07
3776.47,-9.78665497263575e-07
3777.37,-9.953623304930545e-07
3778.27,-1.0120360718420987e-06
3779.17,-1.030131526637033e-06
3780.07,-1.0532282493954191e-06
3780.97,-1.0832132370274957e-06
3781.87,-1.0987844647661832e-06
3782.77,-1.11066964740949e-06
3783.67,-1.108857572690527e-06
3784.57,-1.0905739849537477e-06
3785.47,-1.0620860280899427e-06
3786.38,-1.0226570435909697e-06
3787.28,-9.719000018391025e-07
3788.18,-9.31999185618289e-07
3789.08,-9.021306289732274e-07
3789.98,-8.883047136390183e-07
3790.88,-8.79411849944752e-07
3791.78,-8.80468860309414e-07
3792.68,-8.762472038466435e-07
3793.58,-8.651892926330442e-07
3794.48,-8.419280598181395e-07
3795.38,-8.161295250830541e-07
3796.28,-7.867750714811941e-07
3797.18,-7.658966373534606e-07
3798.08,-7.556916542360153e-07
3798.98,-7.62406175267147e-07
3799.88,-7.829808787722629e-07
3800.78,-8.306274081381646e-07
3801.68,-8.905970091992968e-07
3802.58,-9.526995204557211e-07
3803.48,-1.012390068741088e-06
3804.38,-1.0530321792927745e-06
3805.28,-1.0733139159725028e-06
3806.18,-1.0810510639257835e-06
3807.08,-1.0825105437159983e-06
3807.98,-1.078307994791967e-06
3808.88,-1.0933702891204842e-06
3809.78,-1.1072254100189098e-06
3810.68,-1.1158706044843862e-06
3811.58,-1.1108225129823932e-06
3812.48,-1.0890597469502276e-06
3813.38,-1.0461019686387757e-06
3814.28,-9.961177330784833e-07
3815.18,-9.501997486141959e-07
3816.08,-9.200061248383812e-07
3816.98,-9.026031911280845e-07
3817.88,-8.982906815038237e-07
3818.78,-8.911107835670319e-07
3819.68,-8.81165212849188e-07
3820.58,-8.669088647823963e-07
3821.48,-8.533268323125199e-07
3822.38,-8.436130488935018e-07
3823.28,-8.376095149860382e-07
3824.18,-8.21754238189369e-07
3825.09,-7.988171807289601e-07
3825.99,-7.687493276736685e-07
3826.89,-7.502096642835149e-07
3827.79,-7.342169187696599e-07
3828.69,-7.309428982760019e-07
3829.59,-7.333212151823895e-07
3830.49,-7.300804916841238e-07
3831.39,-7.207124291243056e-07
3832.29,-7.052954276095445e-07
3833.19,-6.83447005276934e-07
3834.09,-6.676232272736861e-07
3834.99,-6.606522439626281e-07
3835.89,-6.586098229890458e-07
3836.79,-6.63889695399844e-07
3837.69,-6.739438629427857e-07
3838.59,-6.87054102771682e-07
3839.49,-7.091276556784177e-07
3840.39,-7.432826837922626e-07
3841.29,-7.901663297990204e-07
3842.19,-8.491416461934069e-07
3843.09,-9.176554732319315e-07
3843.99,-9.816415565378513e-07
3844.89,-1.0311191298888997e-06
3845.79,-1.0723534626100855e-06
3846.69,-1.1010653152373742e-06
3847.59,-1.113064111288588e-06
3848.49,-1.1239459934903184e-06
3849.39,-1.1258410374889188e-06
3850.29,-1.1259251935099398e-06
3851.19,-1.1278206707162416e-06
3852.09,-1.124105490792551e-06
3852.99,-1.1307756932206528e-06
3853.89,-1.1293599701344635e-06
3854.79,-1.1166016496687708e-06
3855.69,-1.094246865360293e-06
3856.59,-1.0635643185836333e-06
3857.49,-1.0366927014380023e-06
3858.39,-1.00936895776332e-06
3859.29,-9.886292888091018e-07
3860.19,-9.881485829160487e-07
3861.09,-1.0093343398230936e-06
3861.99,-1.0514356839639897e-06
3862.9,-1.1101668183853296e-06
3863.8,-1.1538929753957487e-06
3864.7,-1.1933355064233476e-06
3865.6,-1.2105636831177464e-06
3866.5,-1.2145731644487822e-06
3867.4,-1.2039189567048447e-06
3868.3,-1.1917132922685263e-06
3869.2,-1.16532929629597e-06
3870.1,-1.1424269785835336e-06
3871.0,-1.1104244306229856e-06
3871.9,-1.0929708221650052e-06
3872.8,-1.0904211580014616e-06
3873.7,-1.1001220183533401e-06
3874.6,-1.1298854735398146e-06
3875.5,-1.1671642283999673e-06
3876.4,-1.1811046355807681e-06
3877.3,-1.1920710907391753e-06
3878.2,-1.1722960792095266e-06
3879.1,-1.1606727587604361e-06
3880.0,-1.147126661173022e-06
3880.9,-1.1452110783751714e-06
3881.8,-1.1478380622198013e-06
3882.7,-1.1471368655826178e-06
3883.6,-1.1408218037874725e-06
3884.5,-1.1282966771200648e-06
3885.4,-1.1123234331768913e-06
3886.3,-1.0832175289098226e-06
3887.2,-1.0614872234548186e-06
3888.1,-1.0384349293735261e-06
3889.0,-1.0444589438572646e-06
3889.9,-1.0746570103802115e-06
3890.8,-1.129404597318854e-06
3891.7,-1.196615802636256e-06
3892.6,-1.2683869181672708e-06
3893.5,-1.3257072131266254e-06
3894.4,-1.3693323855120852e-06
3895.3,-1.389920204754851e-06
3896.2,-1.413297058185125e-06
3897.1,-1.4259028465018413e-06
3898.0,-1.445100361372358e-06
3898.9,-1.4622742353832671e-06
3899.8,-1.4678027300264568e-06
3900.7,-1.4791158149318728e-06
3901.6,-1.4860266261132054e-06
3902.51,-1.4762873233086584e-06
3903.41,-1.469917345602126e-06
3904.31,-1.4522496998470802e-06
3905.21,-1.4435736600266902e-06
3906.11,-1.4409531656635335e-06
3907.01,-1.4697487461361e-06
3907.91,-1.5138848303000179e-06
3908.81,-1.5706235353134557e-06
3909.71,-1.6346483193163291e-06
3910.61,-1.6921542754474917e-06
3911.51,-1.729255189123191e-06
3912.41,-1.754582289212504e-06
3913.31,-1.7722353987869809e-06
3914.21,-1.7706907108122887e-06
3915.11,-1.7583255674333173e-06
3916.01,-1.7439659150761619e-06
3916.91,-1.7134291228403322e-06
3917.81,-1.678510355613481e-06
3918.71,-1.6375969371796928e-06
3919.61,-1.5894953464959853e-06
3920.51,-1.5416176592336195e-06
3921.41,-1.5102883074275301e-06
3922.31,-1.4823852497033994e-06
3923.21,-1.4680588071203813e-06
3924.11,-1.4474020012971344e-06
3925.01,-1.42723348561098e-06
3925.91,-1.3835540408463408e-06
3926.81,-1.3131854359288457e-06
3927.71,-1.2238155486428498e-06
3928.61,-1.1068670438432354e-06
3929.51,-9.804947841664652e-07
3930.41,-8.610478000114417e-07
3931.31,-7.484463484409918e-07
3932.21,-6.478700692705767e-07
3933.11,-5.728755794921085e-07
3934.01,-5.320201376048375e-07
3934.91,-5.323575359998669e-07
3935.81,-5.69014410647996e-07
3936.71,-6.469397420004406e-07
3937.61,-7.525339657092132e-07
3938.51,-8.795717653784467e-07
3939.42,-1.0064853196770044e-06
3940.32,-1.1247525166491336e-06
3941.22,-1.2176072054436852e-06
3942.12,-1.298532046153061e-06
3943.02,-1.3554579538752953e-06
3943.92,-1.402726843648127e-06
3944.82,-1.468129389940924e-06
3945.72,-1.523481894639549e-06
3946.62,-1.6141304770022117e-06
3947.52,-1.675353901069686e-06
3948.42,-1.740902820884223e-06
3949.32,-1.8114942791457215e-06
3950.22,-1.8562470492726269e-06
3951.12,-1.892285414929279e-06
3952.02,-1.9293130315724815e-06
3952.92,-1.950358060907717e-06
3953.82,-1.9690555934557263e-06
3954.72,-1.9749153894561405e-06
3955.62,-1.96801661920854e-06
3956.52,-1.968312969846555e-06
3957.42,-1.9424814642581923e-06
3958.32,-1.9181743840717335e-06
3959.22,-1.8883864699876763e-06
3960.12,-1.8183622246966757e-06
3961.02,-1.730837350923122e-06
3961.92,-1.623728380344192e-06
3962.82,-1.502541702342857e-06
3963.72,-1.3782504326781697e-06
3964.62,-1.2510330965930977e-06
3965.52,-1.1251695498300559e-06
3966.42,-1.0001101549469144e-06
3967.32,-8.817118175738747e-07
3968.22,-7.876948575211737e-07
3969.12,-7.367666130532704e-07
3970.02,-7.308287220063843e-07
3970.92,-7.820766276851599e-07
3971.82,-8.774084935344328e-07
3972.72,-1.0132944510187721e-06
3973.62,-1.1612704793424505e-06
3974.52,-1.3246907807884117e-06
3975.42,-1.479999181687883e-06
3976.32,-1.6408356974430785e-06
3977.22,-1.7863377777608775e-06
3978.13,-1.9274476217355327e-06
3979.03,-2.054329739179753e-06
3979.93,-2.157541023952339e-06
3980.83,-2.232428053907165e-06
3981.73,-2.291401600447574e-06
3982.63,-2.333767426369217e-06
3983.53,-2.358932467662888e-06
3984.43,-2.3738442140196314e-06
3985.33,-2.3913529927493597e-06
3986.23,-2.4415300496977416e-06
3987.13,-2.467048819235396e-06
3988.03,-2.5048895628160773e-06
3988.93,-2.553945263473583e-06
3989.83,-2.597491864569136e-06
3990.73,-2.6333522943404145e-06
3991.63,-2.661453254025717e-06
3992.53,-2.6902707441600855e-06
3993.43,-2.7052531265600914e-06
3994.33,-2.717250345413467e-06
3995.23,-2.7069287680544444e-06
3996.13,-2.696405522471715e-06
3997.03,-2.6700234155309365e-06
3997.93,-2.6896500414490094e-06
3998.83,-2.7048927459138875e-06
3999.73,-2.7611599472546406e-06
4000.63,-2.8243544133355594e-06
4001.53,-2.8723682700327862e-06
4002.43,-2.9164685009991724e-06
4003.33,-2.9172498858831163e-06
4004.23,-2.890590216131748e-06
4005.13,-2.833173415801518e-06
4006.03,-2.801195173826388e-06
4006.93,-2.782121849024463e-06
4007.83,-2.782484861427909e-06
4008.73,-2.833421073536188e-06
4009.63,-2.9067487947284668e-06
4010.53,-2.965660914741459e-06
4011.43,-3.0248008311864023e-06
4012.33,-3.067290829740021e-06
4013.23,-3.1017999895770157e-06
4014.13,-3.1449942888120988e-06
4015.03,-3.1601990979448647e-06
4015.93,-3.177793116886889e-06
4016.84,-3.2013410224064074e-06
4017.74,-3.224406978825449e-06
4018.64,-3.233539395726829e-06
4019.54,-3.2537076190933685e-06
4020.44,-3.2763331029571094e-06
4021.34,-3.3066655834524103e-06
4022.24,-3.292968506671016e-06
4023.14,-3.286669933694716e-06
4024.04,-3.290730672300552e-06
4024.94,-3.299074065441145e-06
4025.84,-3.3126261177686037e-06
4026.74,-3.3625133479474307e-06
4027.64,-3.37235216833596e-06
4028.54,-3.365629309498982e-06
4029.44,-3.312603359958868e-06
4030.34,-3.235570265251238e-06
4031.24,-3.132754650614762e-06
4032.14,-3.0279600993423384e-06
4033.04,-2.9720162051344397e-06
4033.94,-2.9713806355563226e-06
4034.84,-2.9996949464214026e-06
4035.74,-3.1115854742898805e-06
4036.64,-3.242297263471953e-06
4037.54,-3.38594570003422e-06
4038.44,-3.504175013270684e-06
4039.34,-3.5618503847655117e-06
4040.24,-3.5899237490468394e-06
4041.14,-3.5883753105033847e-06
4042.04,-3.5224986676164745e-06
4042.94,-3.4448802211583176e-06
4043.84,-3.3374809530810073e-06
4044.74,-3.22719606272273e-06
4045.64,-3.1207837329450407e-06
4046.54,-3.072996507034429e-06
4047.44,-3.1001061477751225e-06
4048.34,-3.2054412174318e-06
4049.24,-3.3438596957498184e-06
4050.14,-3.4828674872568674e-06
4051.04,-3.5906554532885476e-06
4051.94,-3.6438837496994038e-06
4052.84,-3.6425772860628702e-06
4053.74,-3.599891820810324e-06
4054.65,-3.5550636312766634e-06
4055.55,-3.498537673605113e-06
4056.45,-3.4414726634911517e-06
4057.35,-3.4270156737478043e-06
4058.25,-3.3990919914528772e-06
4059.15,-3.410115429545259e-06
4060.05,-3.443751447353008e-06
4060.95,-3.431855231962613e-06
4061.85,-3.4215761170941952e-06
4062.75,-3.385233289525132e-06
4063.65,-3.3338613990373125e-06
4064.55,-3.308114566283621e-06
4065.45,-3.3102837236592765e-06
4066.35,-3.345026494029936e-06
4067.25,-3.426589767416015e-06
4068.15,-3.5289532454384176e-06
4069.05,-3.6000768560650597e-06
4069.95,-3.6443900097748465e-06
4070.85,-3.66935241779655e-06
4071.75,-3.679095125693673e-06
4072.65,-3.655527171917352e-06
4073.55,-3.6533714169350893e-06
4074.45,-3.6456000329721575e-06
4075.35,-3.6155501121770862e-06
4076.25,-3.5764845646079976e-06
4077.15,-3.5350024888024334e-06
4078.05,-3.524929399260939e-06
4078.95,-3.5673789838965048e-06
4079.85,-3.6562689245956945e-06
4080.75,-3.7743481277099294e-06
4081.65,-3.89981111304859e-06
4082.55,-3.996925718176118e-06
4083.45,-4.037109191506269e-06
4084.35,-4.068159463612763e-06
4085.25,-4.129584615506557e-06
4086.15,-4.150704525818668e-06
4087.05,-4.228958268838737e-06
4087.95,-4.324918237179864e-06
4088.85,-4.400220085574089e-06
4089.75,-4.4602259269788435e-06
4090.65,-4.485945362363146e-06
4091.55,-4.475916402052774e-06
4092.45,-4.443925380481249e-06
4093.36,-4.387013856394958e-06
4094.26,-4.348770574494954e-06
4095.16,-4.257812197873148e-06
4096.06,-4.153510798823791e-06
4096.96,-4.050766689447407e-06
4097.86,-3.937960680384602e-06
4098.76,-3.811542286598372e-06
4099.66,-3.685734364659063e-06
4100.56,-3.561539908510575e-06
4101.46,-3.4707025794083573e-06
4102.36,-3.4237232793219896e-06
4103.26,-3.455818541702111e-06
4104.16,-3.554021678217759e-06
4105.06,-3.7114167053412764e-06
4105.96,-3.894310492499725e-06
4106.86,-4.053987309507458e-06
4107.76,-4.1812005881963955e-06
4108.66,-4.264023581499093e-06
4109.56,-4.343422503386183e-06
4110.46,-4.347418979032957e-06
4111.36,-4.391539996637533e-06
4112.26,-4.432802659799618e-06
4113.16,-4.502566657098293e-06
4114.06,-4.5605740068985655e-06
4114.96,-4.636907778281457e-06
4115.86,-4.694614979370578e-06
4116.76,-4.73596725166396e-06
4117.66,-4.729057945424451e-06
4118.56,-4.7123259161776145e-06
4119.46,-4.701472215713993e-06
4120.36,-4.649890165104398e-06
4121.26,-4.653496858846896e-06
4122.16,-4.6540346933831666e-06
4123.06,-4.6973506286366225e-06
4123.96,-4.728637250767141e-06
4124.86,-4.764073312944347e-06
4125.76,-4.776803615878045e-06
4126.66,-4.777721192829635e-06
4127.56,-4.7793305279221e-06
4128.46,-4.7225290550404095e-06
4129.36,-4.694584832157835e-06
4130.26,-4.645708083862394e-06
4131.17,-4.590323351677286e-06
4132.06,-4.546269478531665e-06
4132.97,-4.505202020043264e-06
4133.87,-4.5226477571966176e-06
4134.77,-4.576066133897194e-06
4135.67,-4.684491222316285e-06
4136.57,-4.830313575830267e-06
4137.47,-4.95676047706847e-06
4138.37,-5.068584331592425e-06
4139.27,-5.1381075399643855e-06
4140.17,-5.167390741110454e-06
4141.07,-5.1248468752847305e-06
4141.97,-5.031179041276544e-06
4142.87,-4.9199692413648646e-06
4143.77,-4.828174211627759e-06
4144.67,-4.763797778283646e-06
4145.57,-4.7707702353076846e-06
4146.47,-4.834108854564144e-06
4147.37,-4.899801395964238e-06
4148.27,-4.994761930680507e-06
4149.17,-5.040718258229399e-06
4150.07,-5.071409452482565e-06
4150.97,-5.048324504132571e-06
4151.87,-5.030042894037212e-06
4152.77,-5.013999941719061e-06
4153.67,-4.989321533452146e-06
4154.57,-4.97495464544212e-06
4155.47,-4.989292678615398e-06
4156.37,-5.001844012619425e-06
4157.27,-5.063734729178726e-06
4158.17,-5.145089346282645e-06
4159.07,-5.254550988907848e-06
4159.97,-5.36098973982815e-06
4160.87,-5.473081862269642e-06
4161.77,-5.589009438067494e-06
4162.67,-5.671221841586389e-06
4163.57,-5.681862853432065e-06
4164.47,-5.729523728894245e-06
4165.37,-5.729985809849654e-06
4166.27,-5.698215467894162e-06
4167.17,-5.650024835835727e-06
4168.07,-5.596329685870562e-06
4168.98,-5.572150778306803e-06
4169.88,-5.5116908006027425e-06
4170.78,-5.453557927166507e-06
4171.68,-5.384811580246321e-06
4172.58,-5.255467457839448e-06
4173.48,-5.220268947589388e-06
4174.38,-5.164030691179158e-06
4175.28,-5.159717394655726e-06
4176.18,-5.193797452298068e-06
4177.08,-5.245930508818393e-06
4177.98,-5.29195059667673e-06
4178.88,-5.414210046861468e-06
4179.78,-5.469717092225209e-06
4180.68,-5.531144967687841e-06
4181.58,-5.59945144686543e-06
4182.48,-5.6442988002495336e-06
4183.38,-5.695727976088768e-06
4184.28,-5.727043248621308e-06
4185.18,-5.7801382556455495e-06
4186.08,-5.82189527709493e-06
4186.98,-5.812089204043272e-06
4187.88,-5.786976758596983e-06
4188.78,-5.849783658025714e-06
4189.68,-5.900230962169053e-06
4190.58,-5.965143708514108e-06
4191.48,-6.059595503038021e-06
4192.38,-6.135923298313808e-06
4193.28,-6.219529615185085e-06
4194.18,-6.229194952258298e-06
4195.08,-6.181877264671432e-06
4195.98,-6.121588504096773e-06
4196.88,-6.006287352368363e-06
4197.78,-5.879842246955083e-06
4198.68,-5.786978115361699e-06
4199.58,-5.736232220301002e-06
4200.48,-5.699557924808082e-06
4201.38,-5.743252820294249e-06
4202.28,-5.802269122592809e-06
4203.18,-5.896774737231796e-06
4204.08,-6.0291000190712174e-06
4204.98,-6.146811288955456e-06
4205.88,-6.327915710076834e-06
4206.79,-6.488952031369541e-06
4207.69,-6.6433550103385665e-06
4208.59,-6.721025865194344e-06
4209.49,-6.807925023616265e-06
4210.39,-6.8501932441200065e-06
4211.29,-6.8669997193994345e-06
4212.19,-6.884357231002338e-06
4213.09,-6.829484952998854e-06
4213.99,-6.7985850159307655e-06
4214.89,-6.773524019666371e-06
4215.79,-6.718995066097777e-06
4216.69,-6.736027110466817e-06
4217.59,-6.842932278234236e-06
4218.49,-6.965803641913315e-06
4219.39,-7.121443754717561e-06
4220.29,-7.237676354231203e-06
4221.19,-7.293658795767265e-06
4222.09,-7.218077337218965e-06
4222.99,-7.06516120331741e-06
4223.89,-6.795462072983786e-06
4224.79,-6.459518624979783e-06
4225.69,-6.103531604832128e-06
4226.59,-5.866082260184321e-06
4227.49,-5.7860151250864015e-06
4228.39,-5.857744499415699e-06
4229.29,-6.116405263761368e-06
4230.19,-6.450074271689496e-06
4231.09,-6.7838743632883485e-06
4231.99,-7.069173301928021e-06
4232.89,-7.196610145150391e-06
4233.79,-7.275358195392268e-06
4234.69,-7.252710836631132e-06
4235.59,-7.202391690669461e-06
4236.49,-7.163312958149088e-06
4237.39,-7.140899094696064e-06
4238.29,-7.194702636790236e-06
4239.19,-7.280010330903005e-06
4240.09,-7.380234777936614e-06
4240.99,-7.543373143435381e-06
4241.89,-7.686292127756757e-06
4242.79,-7.901143598791415e-06
4243.69,-8.036762601749121e-06
4244.59,-8.166949873931726e-06
4245.5,-8.197444491405357e-06
4246.4,-8.16295296076954e-06
4247.3,-8.084582636773226e-06
4248.2,-7.915543156941092e-06
4249.1,-7.739059013000172e-06
4250.0,-7.656869546189565e-06
4250.9,-7.579302968532512e-06
4251.8,-7.5563564202582325e-06
4252.7,-7.579428698512281e-06
4253.6,-7.651399737450065e-06
4254.5,-7.72888394055087e-06
4255.4,-7.802944395020566e-06
4256.3,-7.87986045508301e-06
4257.2,-7.9291605480542e-06
4258.1,-7.960241273700753e-06
4259.0,-7.929103087878796e-06
4259.9,-7.878113022237816e-06
4260.8,-7.866187230820378e-06
4261.7,-7.953711628476363e-06
4262.6,-8.098872614528856e-06
4263.5,-8.369193335428464e-06
4264.4,-8.600974371693666e-06
4265.3,-8.873651337893403e-06
4266.2,-8.991660298433281e-06
4267.1,-9.018354183721096e-06
4268.0,-8.903218666918539e-06
4268.9,-8.650719848653213e-06
4269.8,-8.398506407379534e-06
4270.7,-8.075489793914875e-06
4271.6,-7.7593046714653e-06
4272.5,-7.549276617577933e-06
4273.4,-7.406285967493971e-06
4274.3,-7.4498021581484025e-06
4275.2,-7.651676134975148e-06
4276.1,-7.92826166063203e-06
4277.0,-8.213322058766865e-06
4277.9,-8.576861057957747e-06
