wave,flux
3700.85,-4.887991683470094e-07
3701.75,-4.775614809049142e-07
3702.65,-4.559602657966735e-07
3703.55,-4.273023335677449e-07
3704.45,-3.8871594561462925e-07
3705.35,-3.572877797916297e-07
3706.25,-3.2989376958494514e-07
3707.15,-3.1427976269258746e-07
3708.05,-3.129230808644104e-07
3708.96,-3.2171695991245553e-07
3709.86,-3.4513632829599386e-07
3710.76,-3.795684482912197e-07
3711.66,-4.204288508706694e-07
3712.56,-4.5991130231778977e-07
3713.46,-4.922374204923211e-07
3714.36,-5.131365169951151e-07
3715.26,-5.085224407502061e-07
3716.16,-4.914481925294284e-07
3717.06,-4.5874637697131776e-07
3717.96,-4.1609680255892583e-07
3718.86,-3.684035434370683e-07
3719.76,-3.231198162905285e-07
3720.66,-2.881316252489696e-07
3721.56,-2.7019536785063903e-07
3722.46,-2.729017703369611e-07
3723.36,-2.934501965582925e-07
3724.26,-3.24294547918428e-07
3725.16,-3.5478817266374254e-07
3726.06,-3.784344022716558e-07
3726.96,-3.8934115005546743e-07
3727.86,-3.9421249180274193e-07
3728.76,-3.926194159841761e-07
3729.66,-3.8472258310519855e-07
3730.56,-3.771116666661391e-07
3731.46,-3.551660925738808e-07
3732.36,-3.2729222023159667e-07
3733.26,-2.950170916488433e-07
3734.16,-2.6132676232258485e-07
3735.06,-2.3606385677745165e-07
3735.96,-2.223477543560536e-07
3736.86,-2.2406896681507773e-07
3737.76,-2.4340317585599027e-07
3738.66,-2.7530985337471117e-07
3739.56,-3.1220164239013335e-07
3740.46,-3.4444302348320576e-07
3741.36,-3.640078065102638e-07
3742.26,-3.689065073882853e-07
3743.16,-3.5419377035732317e-07
3744.06,-3.3123135556868143e-07
3744.96,-3.020947955566842e-07
3745.86,-2.753227979364111e-07
3746.76,-2.542825845053128e-07
3747.67,-2.4343639473788974e-07
3748.57,-2.394167495297781e-07
3749.47,-2.478483380540524e-07
3750.37,-2.693751886247101e-07
3751.27,-3.0413789180114096e-07
3752.17,-3.47695046022465e-07
3753.07,-3.9486421048712013e-07
3753.97,-4.324366942454871e-07
3754.87,-4.58499400715827e-07
3755.77,-4.6586095641412006e-07
3756.67,-4.5535916645258274e-07
3757.57,-4.301562213361536e-07
3758.47,-4.0189235971016226e-07
3759.37,-3.799901087197944e-07
3760.27,-3.7127989538169625e-07
3761.17,-3.7079522495699466e-07
3762.07,-3.7682913314835104e-07
3762.97,-3.832614241342454e-07
3763.87,-3.8758375670856127e-07
3764.77,-3.890617468734823e-07
3765.67,-3.92015115933122e-07
3766.57,-3.9759164816618214e-07
3767.47,-4.094371149512082e-07
3768.37,-4.2843861947338115e-07
3769.27,-4.53984693859717e-07
3770.17,-4.791416041312449e-07
3771.07,-5.046694834926196e-07
3771.97,-5.323140676384584e-07
3772.87,-5.512372130567654e-07
3773.77,-5.652724975873956e-07
3774.67,-5.742102761373544e-07
3775.57,-5.767720572585346e-07
3776.47,-5.748629481644827e-07
3777.37,-5.778058563956215e-07
3778.27,-5.858344107314136e-07
3779.17,-5.950853422784327e-07
3780.07,-6.057624420775173e-07
3780.97,-6.178776191519781e-07
3781.87,-6.278469171543984e-07
3782.77,-6.289679494457699e-07
3783.67,-6.299988988194691e-07
3784.57,-6.14249922680548e-07
3785.47,-5.850183856250548e-07
3786.38,-5.54623951861234e-07
3787.28,-5.186182714347968e-07
3788.18,-4.867267180835119e-07
3789.08,-4.628391127043683e-07
3789.98,-4.528276282297758e-07
3790.88,-4.540895080270474e-07
3791.78,-4.567141071699885e-07
3792.68,-4.6189782959149945e-07
3793.58,-4.5894509513063854e-07
3794.48,-4.5077720019842813e-07
3795.38,-4.396917988006184e-07
3796.28,-4.2924721093614065e-07
3797.18,-4.184877407411433e-07
3798.08,-4.121472762200256e-07
3798.98,-4.1810772149780827e-07
3799.88,-4.29965651026702e-07
3800.78,-4.5448104216819427e-07
3801.68,-4.887632863118358e-07
3802.58,-5.219911448881433e-07
3803.48,-5.513229273204513e-07
3804.38,-5.722370523760679e-07
3805.28,-5.82404420332314e-07
3806.18,-5.815345935937219e-07
3807.08,-5.737611651037521e-07
3807.98,-5.702543987465211e-07
3808.88,-5.696168979679533e-07
3809.78,-5.737119333347321e-07
3810.68,-5.778891536479401e-07
3811.58,-5.687527119578802e-07
3812.48,-5.522684004808705e-07
3813.38,-5.234898663659322e-07
3814.28,-4.874500266668818e-07
3815.18,-4.5477497399185496e-07
3816.08,-4.286590392820364e-07
3816.98,-4.0947938259070714e-07
3817.88,-3.9719370492380326e-07
3818.78,-3.872155617564551e-07
3819.68,-3.7771932676305526e-07
3820.58,-3.6520131225160776e-07
3821.48,-3.5626951021550866e-07
3822.38,-3.506687510260785e-07
3823.28,-3.45020129791384e-07
3824.18,-3.369532135213279e-07
3825.09,-3.24422053008109e-07
3825.99,-3.1375462090441047e-07
3826.89,-3.038818706503205e-07
3827.79,-3.0070581289978256e-07
3828.69,-3.0502867354948126e-07
3829.59,-3.111863876582732e-07
3830.49,-3.1748442857695435e-07
3831.39,-3.186573761170201e-07
3832.29,-3.194182146348322e-07
3833.19,-3.1704069247975423e-07
3834.09,-3.1720191992089214e-07
3834.99,-3.2141525460687477e-07
3835.89,-3.272278713402101e-07
3836.79,-3.338627438736819e-07
3837.69,-3.3319030887762194e-07
3838.59,-3.326075709312027e-07
3839.49,-3.349762596832133e-07
3840.39,-3.4419834385835566e-07
3841.29,-3.633079431435104e-07
3842.19,-3.9284896373573676e-07
3843.09,-4.3026814878954896e-07
3843.99,-4.6546002289888684e-07
3844.89,-4.966408089829754e-07
3845.79,-5.186091090564299e-07
3846.69,-5.292002131034642e-07
3847.59,-5.334534409087084e-07
3848.49,-5.298829646181637e-07
3849.39,-5.236605302754793e-07
3850.29,-5.16315470541103e-07
3851.19,-5.100236060092517e-07
3852.09,-5.07143813413122e-07
3852.99,-5.07275109911059e-07
3853.89,-5.024176257750784e-07
3854.79,-4.926287613630417e-07
3855.69,-4.7525635787553995e-07
3856.59,-4.5540915100033497e-07
3857.49,-4.361566173195005e-07
3858.39,-4.1384890531222494e-07
3859.29,-4.0159936988663876e-07
3860.19,-4.008354024945829e-07
3861.09,-4.148740840174307e-07
3861.99,-4.4236631499906523e-07
3862.9,-4.778816736341421e-07
3863.8,-5.076797996090416e-07
3864.7,-5.323658510942767e-07
3865.6,-5.447686310647205e-07
3866.5,-5.454098000283568e-07
3867.4,-5.346821851000123e-07
3868.3,-5.255032954905388e-07
3869.2,-5.118739223444711e-07
3870.1,-4.935118906286771e-07
3871.0,-4.789839117255365e-07
3871.9,-4.761022145222192e-07
3872.8,-4.817824151258749e-07
3873.7,-5.020489727592525e-07
3874.6,-5.287677485430159e-07
3875.5,-5.561353853536014e-07
3876.4,-5.680756286087409e-07
3877.3,-5.644666216230284e-07
3878.2,-5.558245959533634e-07
3879.1,-5.420893262497456e-07
3880.0,-5.328820165246636e-07
3880.9,-5.313908830854213e-07
3881.8,-5.337226764033166e-07
3882.7,-5.448826074997201e-07
3883.6,-5.537705308177613e-07
3884.5,-5.623726398483974e-07
3885.4,-5.655428664925306e-07
3886.3,-5.64049694815604e-07
3887.2,-5.630575695246404e-07
3888.1,-5.721921432494674e-07
3889.0,-5.945502036700885e-07
3889.9,-6.343024700090052e-07
3890.8,-6.808883358868422e-07
3891.7,-7.333894199070433e-07
3892.6,-7.76318386542608e-07
3893.5,-8.057659811489086e-07
3894.4,-8.197513383899023e-07
3895.3,-8.19026696399099e-07
3896.2,-8.175300660423547e-07
3897.1,-8.135777366086743e-07
3898.0,-8.054492750053019e-07
3898.9,-8.127651128528894e-07
3899.8,-8.017254078697529e-07
3900.7,-8.039875254232231e-07
3901.6,-8.0209465248252e-07
3902.51,-7.918439986090841e-07
3903.41,-7.848558275575141e-07
3904.31,-7.728885403789862e-07
3905.21,-7.707695798613787e-07
3906.11,-7.732848654901663e-07
3907.01,-7.958320790487564e-07
3907.91,-8.30572075801202e-07
3908.81,-8.726948518399697e-07
3909.71,-9.171935788738419e-07
3910.61,-9.611020285252116e-07
3911.51,-9.913862658439017e-07
3912.41,-1.0173731108613602e-06
3913.31,-1.0281072290744504e-06
3914.21,-1.0304800322212254e-06
3915.11,-1.025138493342392e-06
3916.01,-1.0137808982112512e-06
3916.91,-9.90944316697891e-07
3917.81,-9.554402364413896e-07
3918.71,-9.145941117009347e-07
3919.61,-8.694857852163017e-07
3920.51,-8.277774753936531e-07
3921.41,-7.906712136310365e-07
3922.31,-7.670936937050546e-07
3923.21,-7.52550020813852e-07
3924.11,-7.455603998784736e-07
3925.01,-7.358623200723043e-07
3925.91,-7.188257400963806e-07
3926.81,-6.845951575498607e-07
3927.71,-6.364531649722327e-07
3928.61,-5.782946760337812e-07
3929.51,-5.131930406826811e-07
3930.41,-4.5507685029840127e-07
3931.31,-3.9835343561186053e-07
3932.21,-3.527253744566398e-07
3933.11,-3.196432434632187e-07
3934.01,-3.0408680588387557e-07
3934.91,-3.076671943748754e-07
3935.81,-3.287453671796663e-07
3936.71,-3.678599851613472e-07
3937.61,-4.2190537297198613e-07
3938.51,-4.862307561587748e-07
3939.42,-5.49719996941205e-07
3940.32,-6.049230669390615e-07
3941.22,-6.496239129688316e-07
3942.12,-6.803085342087914e-07
3943.02,-7.082903449318522e-07
3943.92,-7.316988925141465e-07
3944.82,-7.643614738982078e-07
3945.72,-8.071244103159694e-07
3946.62,-8.604127425033661e-07
3947.52,-9.197020806460013e-07
3948.42,-9.706510313756737e-07
3949.32,-1.0221220785635399e-06
3950.22,-1.0697936048101705e-06
3951.12,-1.1024649143467277e-06
3952.02,-1.1303373557999617e-06
3952.92,-1.1568701065553881e-06
3953.82,-1.1597560667445462e-06
3954.72,-1.1659745846566505e-06
3955.62,-1.1635121690043852e-06
3956.52,-1.1534238355669924e-06
3957.42,-1.1321828110402827e-06
3958.32,-1.1053563519039406e-06
3959.22,-1.0646898431218025e-06
3960.12,-1.014981195849617e-06
3961.02,-9.458353207633134e-07
3961.92,-8.678105071833251e-07
3962.82,-7.926523792533532e-07
3963.72,-7.189143504553111e-07
3964.62,-6.514252032601008e-07
3965.52,-5.945088516853712e-07
3966.42,-5.363971140865864e-07
3967.32,-4.833269742941987e-07
3968.22,-4.41865716109753e-07
3969.12,-4.2073550972280165e-07
3970.02,-4.2469003389874895e-07
3970.92,-4.5766774401953736e-07
3971.82,-5.140000305209674e-07
3972.72,-5.902392133981047e-07
3973.62,-6.824209159567076e-07
3974.52,-7.800845508930639e-07
3975.42,-8.756666102705869e-07
3976.32,-9.7962292334229e-07
3977.22,-1.0761877753082867e-06
3978.13,-1.1681457734515008e-06
3979.03,-1.2574101253848585e-06
3979.93,-1.3277812696738104e-06
3980.83,-1.3809535661687693e-06
3981.73,-1.423395121634135e-06
3982.63,-1.4482648456756627e-06
3983.53,-1.4645822346277904e-06
3984.43,-1.4728467974408933e-06
3985.33,-1.4883339099564229e-06
3986.23,-1.516251381225288e-06
3987.13,-1.5434524262586995e-06
3988.03,-1.5833467131008815e-06
3988.93,-1.6025637491923555e-06
3989.83,-1.6218648749969016e-06
3990.73,-1.6546339648538676e-06
3991.63,-1.6634652808033096e-06
3992.53,-1.686906593593828e-06
3993.43,-1.6921611448275183e-06
3994.33,-1.6993737191795886e-06
3995.23,-1.693486239923863e-06
3996.13,-1.6874314496871294e-06
3997.03,-1.6786678031284895e-06
3997.93,-1.6840249802561968e-06
3998.83,-1.703401621190454e-06
3999.73,-1.7388350772855815e-06
4000.63,-1.7886118959144707e-06
4001.53,-1.8324609907174263e-06
4002.43,-1.859045637023037e-06
4003.33,-1.854433252774247e-06
4004.23,-1.8323319358897382e-06
4005.13,-1.7947820885037182e-06
4006.03,-1.7585673468509968e-06
4006.93,-1.7351112866476138e-06
4007.83,-1.7511297154916422e-06
4008.73,-1.7887176494748275e-06
4009.63,-1.8371937241156133e-06
4010.53,-1.8959028114825645e-06
4011.43,-1.937764140184167e-06
4012.33,-1.9715647401197335e-06
4013.23,-2.008866905224271e-06
4014.13,-2.0281558379863403e-06
4015.03,-2.053902662862875e-06
4015.93,-2.063090372398514e-06
4016.84,-2.0824063699818292e-06
4017.74,-2.0934361946561214e-06
4018.64,-2.108840971556612e-06
4019.54,-2.108289919307579e-06
4020.44,-2.118163238890578e-06
4021.34,-2.1317348047057647e-06
4022.24,-2.1389344591620015e-06
4023.14,-2.131274750559637e-06
4024.04,-2.1218828687839977e-06
4024.94,-2.129141732907141e-06
4025.84,-2.141996654029255e-06
4026.74,-2.1554838759365203e-06
4027.64,-2.1654582219557084e-06
4028.54,-2.1619179093785967e-06
4029.44,-2.122436630174222e-06
4030.34,-2.0384465386475494e-06
4031.24,-1.954769390497252e-06
4032.14,-1.8718848860047292e-06
4033.04,-1.803817906481672e-06
4033.94,-1.7868967485220038e-06
4034.84,-1.811793349242816e-06
4035.74,-1.8954884919002037e-06
4036.64,-2.0072629168236967e-06
4037.54,-2.1136098365068167e-06
4038.44,-2.2186252777061937e-06
4039.34,-2.286815705623814e-06
4040.24,-2.3157627585159495e-06
4041.14,-2.2985830198124615e-06
4042.04,-2.249465905093363e-06
4042.94,-2.1722951445194596e-06
4043.84,-2.071363224091243e-06
4044.74,-1.960143499518417e-06
4045.64,-1.860331110954694e-06
4046.54,-1.8179262320373854e-06
4047.44,-1.8290321600417125e-06
4048.34,-1.916336492269674e-06
4049.24,-2.029145085705619e-06
4050.14,-2.1611823672563306e-06
4051.04,-2.2554568054171724e-06
4051.94,-2.3138907451015586e-06
4052.84,-2.3495561831554245e-06
4053.74,-2.3355869775781133e-06
4054.65,-2.295572545597717e-06
4055.55,-2.244794324911646e-06
4056.45,-2.1940411942942637e-06
4057.35,-2.169556181269941e-06
4058.25,-2.155076524336687e-06
4059.15,-2.150700028747484e-06
4060.05,-2.143014731898077e-06
4060.95,-2.1206837158909645e-06
4061.85,-2.103375994964842e-06
4062.75,-2.0539189586662595e-06
4063.65,-2.0104345512656002e-06
4064.55,-1.973810865752769e-06
4065.45,-1.9802467183592266e-06
4066.35,-2.0218228503116013e-06
4067.25,-2.093144338160226e-06
4068.15,-2.1643115829855945e-06
4069.05,-2.231411284036004e-06
4069.95,-2.2725860419253248e-06
4070.85,-2.2811935050113794e-06
4071.75,-2.2757139821365923e-06
4072.65,-2.258873766162649e-06
4073.55,-2.2674893764641684e-06
4074.45,-2.2732884271871066e-06
4075.35,-2.268397127451249e-06
4076.25,-2.2643175101526267e-06
4077.15,-2.269946098472804e-06
4078.05,-2.2639080175867658e-06
4078.95,-2.3105539721994846e-06
4079.85,-2.395952110279492e-06
4080.75,-2.48292328829972e-06
4081.65,-2.5790987350683773e-06
4082.55,-2.6491622497489526e-06
4083.45,-2.6793562592343054e-06
4084.35,-2.7326127086186147e-06
4085.25,-2.7593387450670836e-06
4086.15,-2.7949826913807713e-06
4087.05,-2.8529548452029174e-06
4087.95,-2.9093815913880125e-06
4088.85,-2.9865113630209403e-06
4089.75,-3.0415559304018526e-06
4090.65,-3.0604058340460216e-06
4091.55,-3.04916411047981e-06
4092.45,-3.023151339333957e-06
4093.36,-2.9721141022996265e-06
4094.26,-2.9203376395921002e-06
4095.16,-2.849475444611887e-06
4096.06,-2.7851523013817308e-06
4096.96,-2.7022034526512116e-06
4097.86,-2.6383183452597394e-06
4098.76,-2.5710038997093963e-06
4099.66,-2.5102124794869836e-06
4100.56,-2.4618795672266637e-06
4101.46,-2.421663586418357e-06
4102.36,-2.408354365421538e-06
4103.26,-2.4508689090141055e-06
4104.16,-2.5097401735157755e-06
4105.06,-2.604092532637577e-06
4105.96,-2.70630625440418e-06
4106.86,-2.8015448349349816e-06
4107.76,-2.867847738091954e-06
4108.66,-2.901206067684634e-06
4109.56,-2.9170481375513217e-06
4110.46,-2.9177869313153787e-06
4111.36,-2.908325230792805e-06
4112.26,-2.930640367959084e-06
4113.16,-2.9468937403028057e-06
4114.06,-2.987934386215254e-06
4114.96,-3.0423085589582933e-06
4115.86,-3.09198529064289e-06
4116.76,-3.1041921626758675e-06
4117.66,-3.106249046962107e-06
4118.56,-3.0846102535484914e-06
4119.46,-3.0538651289787646e-06
4120.36,-3.0289807440927786e-06
4121.26,-3.0361918232180046e-06
4122.16,-3.03677431510583e-06
4123.06,-3.061263192798444e-06
4123.96,-3.090703919039533e-06
4124.86,-3.1161802486597373e-06
4125.76,-3.147202219939293e-06
4126.66,-3.1407771832726468e-06
4127.56,-3.1187012716581683e-06
4128.46,-3.096297392160109e-06
4129.36,-3.0393847411586307e-06
4130.26,-2.9902661594521184e-06
4131.17,-2.920727981526927e-06
4132.06,-2.8696884907633357e-06
4132.97,-2.8158684266936396e-06
4133.87,-2.818628245397709e-06
4134.77,-2.8522728524576316e-06
4135.67,-2.9485343975496045e-06
4136.57,-3.0379401333230113e-06
4137.47,-3.1671703015865835e-06
4138.37,-3.234928762601454e-06
4139.27,-3.2866455822566717e-06
4140.17,-3.2611398831573884e-06
4141.07,-3.2222602471745654e-06
4141.97,-3.131763600650086e-06
4142.87,-3.025549570508474e-06
4143.77,-2.9400857601429267e-06
4144.67,-2.880830134193699e-06
4145.57,-2.892777160510019e-06
4146.47,-2.9416544977876997e-06
4147.37,-3.010339361841285e-06
4148.27,-3.084092029896964e-06
4149.17,-3.1397692199414105e-06
4150.07,-3.1478722462516335e-06
4150.97,-3.1434696841990614e-06
4151.87,-3.132515902711284e-06
4152.77,-3.111995357033892e-06
4153.67,-3.0920850511141526e-06
4154.57,-3.08714226156785e-06
4155.47,-3.0928517919150363e-06
4156.37,-3.1333200948589727e-06
4157.27,-3.1666180581166715e-06
4158.17,-3.2389872464684574e-06
4159.07,-3.3321194920853265e-06
4159.97,-3.4365873038985593e-06
4160.87,-3.530586248965992e-06
4161.77,-3.6012510794461825e-06
4162.67,-3.655143015699292e-06
4163.57,-3.685090855011644e-06
4164.47,-3.686223714841603e-06
4165.37,-3.650297723164639e-06
4166.27,-3.614476623148191e-06
4167.17,-3.5875429424569176e-06
4168.07,-3.5396426569694103e-06
4168.98,-3.5014402588466024e-06
4169.88,-3.484523774893227e-06
4170.78,-3.4687274927472674e-06
4171.68,-3.4097981746433447e-06
4172.58,-3.3673392464535487e-06
4173.48,-3.3042624908287023e-06
4174.38,-3.26850317882982e-06
4175.28,-3.271943847031122e-06
4176.18,-3.2871477743358936e-06
4177.08,-3.330721210290173e-06
4177.98,-3.3638794101278094e-06
4178.88,-3.414057052340078e-06
4179.78,-3.457058289790396e-06
4180.68,-3.496313972561119e-06
4181.58,-3.5417004456330836e-06
4182.48,-3.5801196145672156e-06
4183.38,-3.6171116309806373e-06
4184.28,-3.6455499421797194e-06
4185.18,-3.6832291928472563e-06
4186.08,-3.702627587488798e-06
4186.98,-3.700801519485e-06
4187.88,-3.706087556013565e-06
4188.78,-3.72053289978083e-06
4189.68,-3.7425357065861374e-06
4190.58,-3.790670453468154e-06
4191.48,-3.8416166572935015e-06
4192.38,-3.8947353452157215e-06
4193.28,-3.946510527312915e-06
4194.18,-3.946658674031651e-06
4195.08,-3.904025303209652e-06
4195.98,-3.836759302674546e-06
4196.88,-3.7373830059284155e-06
4197.78,-3.650746826073943e-06
4198.68,-3.5570252912518626e-06
4199.58,-3.5172701430843924e-06
4200.48,-3.5138155145991317e-06
4201.38,-3.5316059816778294e-06
4202.28,-3.5958080925363515e-06
4203.18,-3.674228699511815e-06
4204.08,-3.8017023495378476e-06
4204.98,-3.9278787564472865e-06
4205.88,-4.104784813837669e-06
4206.79,-4.2168750250954985e-06
4207.69,-4.347792471362159e-06
4208.59,-4.442457138374105e-06
4209.49,-4.463990725617127e-06
4210.39,-4.487671581504247e-06
4211.29,-4.466265113026104e-06
4212.19,-4.4422434473784486e-06
4213.09,-4.39581118088227e-06
4213.99,-4.367807610120034e-06
4214.89,-4.31362299839743e-06
4215.79,-4.302200654826633e-06
4216.69,-4.317924052175958e-06
4217.59,-4.411929439312016e-06
4218.49,-4.522945875889289e-06
4219.39,-4.6442733143981e-06
4220.29,-4.732963486411989e-06
4221.19,-4.768902036265542e-06
4222.09,-4.68737171579927e-06
4222.99,-4.522429301743169e-06
4223.89,-4.271954566406978e-06
4224.79,-3.9382332671800524e-06
4225.69,-3.644452611778901e-06
4226.59,-3.4227717689562635e-06
4227.49,-3.3356189175452167e-06
4228.39,-3.387007318490893e-06
4229.29,-3.5809434407542535e-06
4230.19,-3.870043682724081e-06
4231.09,-4.16088065080583e-06
4231.99,-4.414610688053213e-06
4232.89,-4.567517471876938e-06
4233.79,-4.636207094700804e-06
4234.69,-4.6317421062151685e-06
4235.59,-4.600697231420154e-06
4236.49,-4.580131021286831e-06
4237.39,-4.586963651136907e-06
4238.29,-4.619437476119614e-06
4239.19,-4.715969849043124e-06
4240.09,-4.83294023049594e-06
4240.99,-4.962558735137703e-06
4241.89,-5.1246672034069095e-06
4242.79,-5.287183745990439e-06
4243.69,-5.439687142618066e-06
4244.59,-5.509036252679599e-06
4245.5,-5.601324497285021e-06
4246.4,-5.576775421076847e-06
4247.3,-5.477402527616872e-06
4248.2,-5.341755275693017e-06
4249.1,-5.148153366645822e-06
4250.0,-4.973995749231291e-06
4250.9,-4.851728207662772e-06
4251.8,-4.774460616242875e-06
4252.7,-4.749440106518278e-06
4253.6,-4.788677745559138e-06
4254.5,-4.8276588266114145e-06
4255.4,-4.8982778951292455e-06
4256.3,-4.975962669862587e-06
4257.2,-5.0300715515343865e-06
4258.1,-5.104983864430723e-06
4259.0,-5.092208214250436e-06
4259.9,-5.106730965741889e-06
4260.8,-5.08621405978913e-06
4261.7,-5.141862673359901e-06
4262.6,-5.312418699167768e-06
4263.5,-5.5041846536066085e-06
4264.4,-5.73167478895342e-06
4265.3,-5.9369532752426666e-06
4266.2,-6.080985779735764e-06
4267.1,-6.0594248969496e-06
4268.0,-5.955142760772796e-06
4268.9,-5.730928624923928e-06
4269.8,-5.4451857769023154e-06
4270.7,-5.132725093496799e-06
4271.6,-4.846961313815397e-06
4272.5,-4.603612415227652e-06
4273.4,-4.482544281834642e-06
4274.3,-4.517275456945879e-06
4275.2,-4.672331997006214e-06
4276.1,-4.891099902783952e-06
