wave,flux
3700.85,-5.021762341315688e-07
3701.75,-4.971663746392765e-07
3702.65,-4.823429552769018e-07
3703.55,-4.624321537359502e-07
3704.45,-4.4095019077939275e-07
3705.35,-4.212415916123192e-07
3706.25,-4.1224630365051557e-07
3707.15,-4.081454434787005e-07
3708.05,-4.10488285207186e-07
3708.96,-4.165022658976597e-07
3709.86,-4.2486891888670994e-07
3710.76,-4.3665360197538567e-07
3711.66,-4.497880223104768e-07
3712.56,-4.6752170803501205e-07
3713.46,-4.8708178365509e-07
3714.36,-5.05899629734664e-07
3715.26,-5.170807914984618e-07
3716.16,-5.22690935090066e-07
3717.06,-5.203723686083506e-07
3717.96,-5.04789176799551e-07
3718.86,-4.805844269602049e-07
3719.76,-4.4977542977477626e-07
3720.66,-4.200981737984499e-07
3721.56,-4.0148430982108534e-07
3722.46,-3.955321899301312e-07
3723.36,-4.0360064343066886e-07
3724.26,-4.259843391536432e-07
3725.16,-4.498469834747205e-07
3726.06,-4.716179671752128e-07
3726.96,-4.881235073068147e-07
3727.86,-4.928122782525379e-07
3728.76,-4.966280533718549e-07
3729.66,-4.953958012099105e-07
3730.56,-4.87549313193829e-07
3731.46,-4.730660617128667e-07
3732.36,-4.4881840685224925e-07
3733.26,-4.1999108471203803e-07
3734.16,-3.902364022001159e-07
3735.06,-3.7078987151433165e-07
3735.96,-3.590688498288506e-07
3736.86,-3.663917901623867e-07
3737.76,-3.858174753496911e-07
3738.66,-4.156825423551418e-07
3739.56,-4.4841286827110936e-07
3740.46,-4.772960601481508e-07
3741.36,-4.960377888416072e-07
3742.26,-5.024978817297213e-07
3743.16,-5.000068519844674e-07
3744.06,-4.863957118734079e-07
3744.96,-4.6818972877913154e-07
3745.86,-4.458808449571867e-07
3746.76,-4.2524281276249413e-07
3747.67,-4.03827475264383e-07
3748.57,-3.8762080546948827e-07
3749.47,-3.7715603928399633e-07
3750.37,-3.7928818396852524e-07
3751.27,-3.9542335051988035e-07
3752.17,-4.2450084198985065e-07
3753.07,-4.6175529513810153e-07
3753.97,-4.988095005218313e-07
3754.87,-5.270767649096687e-07
3755.77,-5.429857604092734e-07
3756.67,-5.449215803228838e-07
3757.57,-5.375017114525635e-07
3758.47,-5.200636343847659e-07
3759.37,-5.088964654825676e-07
3760.27,-5.031027182671197e-07
3761.17,-5.050586800402006e-07
3762.07,-5.148773432015869e-07
3762.97,-5.250638020971026e-07
3763.87,-5.329937054168655e-07
3764.77,-5.376482695842126e-07
3765.67,-5.35777313479846e-07
3766.57,-5.31035274140099e-07
3767.47,-5.231514181391839e-07
3768.37,-5.12724337219234e-07
3769.27,-5.042192492491979e-07
3770.17,-4.9642123570467e-07
3771.07,-4.978352964172139e-07
3771.97,-5.082891136166887e-07
3772.87,-5.241073000200623e-07
3773.77,-5.411592497214663e-07
3774.67,-5.622573800998039e-07
3775.57,-5.780441112834819e-07
3776.47,-5.938078972239359e-07
3777.37,-6.053804548339625e-07
3778.27,-6.191536343711196e-07
3779.17,-6.30457093576672e-07
3780.07,-6.457328210675916e-07
3780.97,-6.580352129518048e-07
3781.87,-6.679444048179361e-07
3782.77,-6.722008918539201e-07
3783.67,-6.735962085195691e-07
3784.57,-6.687136406352942e-07
3785.47,-6.566120732704761e-07
3786.38,-6.406597455496252e-07
3787.28,-6.199943406169497e-07
3788.18,-6.033282039422698e-07
3789.08,-5.915989093910025e-07
3789.98,-5.830039403062498e-07
3790.88,-5.832882106192442e-07
3791.78,-5.760080252610198e-07
3792.68,-5.713146527040508e-07
3793.58,-5.600168198103664e-07
3794.48,-5.432917790087782e-07
3795.38,-5.214211377789667e-07
3796.28,-5.016645917434563e-07
3797.18,-4.835478276706898e-07
3798.08,-4.7262267657489124e-07
3798.98,-4.6994014157218936e-07
3799.88,-4.849246237881816e-07
3800.78,-5.125257847452055e-07
3801.68,-5.466099537978722e-07
3802.58,-5.845923327253153e-07
3803.48,-6.198090077071011e-07
3804.38,-6.432861797677161e-07
3805.28,-6.576296584191344e-07
3806.18,-6.620462044291446e-07
3807.08,-6.638804305479284e-07
3807.98,-6.684962264230064e-07
3808.88,-6.751391809491773e-07
3809.78,-6.817968263005972e-07
3810.68,-6.849462793431016e-07
3811.58,-6.810176424008593e-07
3812.48,-6.717978736885423e-07
3813.38,-6.577604181557412e-07
3814.28,-6.359339893472051e-07
3815.18,-6.221597820712667e-07
3816.08,-6.114685481792333e-07
3816.98,-6.069903402044008e-07
3817.88,-6.077264991985325e-07
3818.78,-6.073183612085702e-07
3819.68,-6.050801184925377e-07
3820.58,-5.945516400494888e-07
3821.48,-5.928822490968413e-07
3822.38,-5.859524599885842e-07
3823.28,-5.800956698085926e-07
3824.18,-5.720425579660184e-07
3825.09,-5.58266122593625e-07
3825.99,-5.444808241978308e-07
3826.89,-5.317576743676721e-07
3827.79,-5.231382900842778e-07
3828.69,-5.129305142540678e-07
3829.59,-5.096672226365933e-07
3830.49,-4.980045530672295e-07
3831.39,-4.849611646729496e-07
3832.29,-4.6835868692751303e-07
3833.19,-4.462608957851652e-07
3834.09,-4.2963659444851766e-07
3834.99,-4.155967601560036e-07
3835.89,-4.071254518167093e-07
3836.79,-4.089316612574975e-07
3837.69,-4.185770825638242e-07
3838.59,-4.3297675888485656e-07
3839.49,-4.482999408090835e-07
3840.39,-4.7317676473070834e-07
3841.29,-5.030831428151697e-07
3842.19,-5.38387630366376e-07
3843.09,-5.764895375541342e-07
3843.99,-6.061405757720837e-07
3844.89,-6.325302705077283e-07
3845.79,-6.560958823446231e-07
3846.69,-6.72398243128606e-07
3847.59,-6.800300397629508e-07
3848.49,-6.843010701610362e-07
3849.39,-6.896442425412198e-07
3850.29,-6.896785944373542e-07
3851.19,-6.911327643332843e-07
3852.09,-6.966944489633504e-07
3852.99,-6.990001036026432e-07
3853.89,-7.009216359236629e-07
3854.79,-6.997979678623896e-07
3855.69,-6.905849532082127e-07
3856.59,-6.778707799447161e-07
3857.49,-6.651910912342429e-07
3858.39,-6.50786288237356e-07
3859.29,-6.405883527543875e-07
3860.19,-6.409164739400768e-07
3861.09,-6.462482559726159e-07
3861.99,-6.643283792836397e-07
3862.9,-6.826559129208106e-07
3863.8,-7.053492662505334e-07
3864.7,-7.206365553812703e-07
3865.6,-7.288863162567389e-07
3866.5,-7.33268357431741e-07
3867.4,-7.304386231866803e-07
3868.3,-7.302424378421787e-07
3869.2,-7.213854515102669e-07
3870.1,-7.11712614258226e-07
3871.0,-6.938000414451009e-07
3871.9,-6.806539062697463e-07
3872.8,-6.68106951098134e-07
3873.7,-6.634424169049226e-07
3874.6,-6.644580701522327e-07
3875.5,-6.693078103776398e-07
3876.4,-6.734342386846663e-07
3877.3,-6.726258555461822e-07
3878.2,-6.705439610837474e-07
3879.1,-6.618267516450587e-07
3880.0,-6.624074975791717e-07
3880.9,-6.599011540321621e-07
3881.8,-6.601771106682297e-07
3882.7,-6.573243131140695e-07
3883.6,-6.510285282906462e-07
3884.5,-6.364554059537097e-07
3885.4,-6.170529892784664e-07
3886.3,-5.919929552184177e-07
3887.2,-5.711368906982491e-07
3888.1,-5.492821065483085e-07
3889.0,-5.351768278747507e-07
3889.9,-5.381541218222915e-07
3890.8,-5.512023925172729e-07
3891.7,-5.766722961387304e-07
3892.6,-6.02031557625624e-07
3893.5,-6.297024182871683e-07
3894.4,-6.537486067550485e-07
3895.3,-6.702921001634832e-07
3896.2,-6.833469495209655e-07
3897.1,-6.930721032783543e-07
3898.0,-7.036090743240957e-07
3898.9,-7.131392978053329e-07
3899.8,-7.193882683645621e-07
3900.7,-7.247900818728019e-07
3901.6,-7.292382303629379e-07
3902.51,-7.272831359552263e-07
3903.41,-7.268686501430991e-07
3904.31,-7.226103459467456e-07
3905.21,-7.199351742574586e-07
3906.11,-7.182242879875413e-07
3907.01,-7.250189465621445e-07
3907.91,-7.37602084781582e-07
3908.81,-7.56203271325926e-07
3909.71,-7.759634726998431e-07
3910.61,-7.955953874558399e-07
3911.51,-8.089483863349461e-07
3912.41,-8.167346476308704e-07
3913.31,-8.188291371497043e-07
3914.21,-8.15632295525479e-07
3915.11,-8.115491342633562e-07
3916.01,-8.004599397527029e-07
3916.91,-7.875836344518522e-07
3917.81,-7.774241368494217e-07
3918.71,-7.62900218439197e-07
3919.61,-7.541333346054205e-07
3920.51,-7.394036689654604e-07
3921.41,-7.308692646717386e-07
3922.31,-7.238378656492974e-07
3923.21,-7.170727458605028e-07
3924.11,-7.065242030215281e-07
3925.01,-7.014637073622741e-07
3925.91,-6.783323080016422e-07
3926.81,-6.488329453751973e-07
3927.71,-6.064092541291568e-07
3928.61,-5.569129088866449e-07
3929.51,-5.01607024270621e-07
3930.41,-4.4369569002599557e-07
3931.31,-3.8399483354793534e-07
3932.21,-3.309853942685059e-07
3933.11,-2.902438588463939e-07
3934.01,-2.66293315528923e-07
3934.91,-2.609569694663584e-07
3935.81,-2.793327574479386e-07
3936.71,-3.1510330769078574e-07
3937.61,-3.68092415031246e-07
3938.51,-4.296004415094334e-07
3939.42,-4.912985494771899e-07
3940.32,-5.469300937519341e-07
3941.22,-5.934616399549697e-07
3942.12,-6.30532647460534e-07
3943.02,-6.577080292036802e-07
3943.92,-6.814092722106298e-07
3944.82,-7.026464737491359e-07
3945.72,-7.252139122341628e-07
3946.62,-7.475419262715558e-07
3947.52,-7.668435847521966e-07
3948.42,-7.835116047519925e-07
3949.32,-7.940455334240421e-07
3950.22,-8.046039260838763e-07
3951.12,-8.152236698737205e-07
3952.02,-8.239134851773188e-07
3952.92,-8.293740391171315e-07
3953.82,-8.322960162116831e-07
3954.72,-8.363344541857473e-07
3955.62,-8.333037560931649e-07
3956.52,-8.319714624169729e-07
3957.42,-8.233914025075186e-07
3958.32,-8.164632834852436e-07
3959.22,-8.026287655367157e-07
3960.12,-7.820492639595315e-07
3961.02,-7.592915248891919e-07
3961.92,-7.235473965261724e-07
3962.82,-6.755182166028351e-07
3963.72,-6.272971790239272e-07
3964.62,-5.734452344941933e-07
3965.52,-5.163830318950755e-07
3966.42,-4.547831883327041e-07
3967.32,-3.9687331831381326e-07
3968.22,-3.5030279411484356e-07
3969.12,-3.206184513377206e-07
3970.02,-3.129140991318143e-07
3970.92,-3.302579376827302e-07
3971.82,-3.687303978851467e-07
3972.72,-4.245633692109335e-07
3973.62,-4.899955437825147e-07
3974.52,-5.552817709222052e-07
3975.42,-6.206115685432991e-07
3976.32,-6.770690441575984e-07
3977.22,-7.303820324876673e-07
3978.13,-7.769208991023595e-07
3979.03,-8.182464843363305e-07
3979.93,-8.477257596454713e-07
3980.83,-8.723305659271368e-07
3981.73,-8.906613358954976e-07
3982.63,-9.007353266368717e-07
3983.53,-9.051001307760154e-07
3984.43,-9.150985119770137e-07
3985.33,-9.236160032131023e-07
3986.23,-9.34315541399739e-07
3987.13,-9.446920664695117e-07
3988.03,-9.57995873663659e-07
3988.93,-9.7082712349146e-07
3989.83,-9.805842598084211e-07
3990.73,-9.88926559042337e-07
3991.63,-9.971713266506356e-07
3992.53,-1.0053181774272825e-06
3993.43,-1.009194566034425e-06
3994.33,-1.0066767088443905e-06
3995.23,-1.007356672403898e-06
3996.13,-9.94105072159192e-07
3997.03,-9.871675414377127e-07
3997.93,-9.841349491883408e-07
3998.83,-9.855322340829785e-07
3999.73,-9.950329704255567e-07
4000.63,-1.0074694299614197e-06
4001.53,-1.0280560849984317e-06
4002.43,-1.035232391492973e-06
4003.33,-1.0353906766441911e-06
4004.23,-1.0307209394817978e-06
4005.13,-1.0185116290344084e-06
4006.03,-1.0117448421095847e-06
4006.93,-1.0062707965268938e-06
4007.83,-1.0125911422331739e-06
4008.73,-1.024499092543746e-06
4009.63,-1.0374314386483966e-06
4010.53,-1.0524294849242384e-06
4011.43,-1.0637471181001471e-06
4012.33,-1.069330512960296e-06
4013.23,-1.0767687943204731e-06
4014.13,-1.0772060045537472e-06
4015.03,-1.086074943801263e-06
4015.93,-1.085959234991435e-06
4016.84,-1.0887950661384793e-06
4017.74,-1.0887200872740617e-06
4018.64,-1.0976820225008899e-06
4019.54,-1.0947063824887572e-06
4020.44,-1.10401865460616e-06
4021.34,-1.1033492752106548e-06
4022.24,-1.1052314813816914e-06
4023.14,-1.1092280981354867e-06
4024.04,-1.1064043022542277e-06
4024.94,-1.1054036474091781e-06
4025.84,-1.118457336816145e-06
4026.74,-1.117343976283635e-06
4027.64,-1.1270513837847313e-06
4028.54,-1.1279471935666248e-06
4029.44,-1.1104577006139133e-06
4030.34,-1.0943587714964222e-06
4031.24,-1.0789988071004102e-06
4032.14,-1.058708722885278e-06
4033.04,-1.0464329735184527e-06
4033.94,-1.0515952835581726e-06
4034.84,-1.0579241240194798e-06
4035.74,-1.086116844767762e-06
4036.64,-1.1103664282638702e-06
4037.54,-1.1335151578897906e-06
4038.44,-1.1584608279914359e-06
4039.34,-1.1670711554794392e-06
4040.24,-1.1686363164385707e-06
4041.14,-1.166001291437094e-06
4042.04,-1.155484295265095e-06
4042.94,-1.1353041829664539e-06
4043.84,-1.113819860194085e-06
4044.74,-1.0861758868490587e-06
4045.64,-1.0690966576630694e-06
4046.54,-1.0591840503137437e-06
4047.44,-1.068930254548026e-06
4048.34,-1.085381002617161e-06
4049.24,-1.1083086948674738e-06
4050.14,-1.1412339029931185e-06
4051.04,-1.1552584338330265e-06
4051.94,-1.1618834896083263e-06
4052.84,-1.1676778584120174e-06
4053.74,-1.1635360660593367e-06
4054.65,-1.1554986878447656e-06
4055.55,-1.1422459648999286e-06
4056.45,-1.1413249442604083e-06
4057.35,-1.1377622927581965e-06
4058.25,-1.133465196180912e-06
4059.15,-1.1397766646963525e-06
4060.05,-1.145547226639578e-06
4060.95,-1.14235130854983e-06
4061.85,-1.141457900433064e-06
4062.75,-1.1331022976220982e-06
4063.65,-1.1173854490402056e-06
4064.55,-1.1027024411509278e-06
4065.45,-1.1013624328887538e-06
4066.35,-1.1077288409443467e-06
4067.25,-1.1185954918625515e-06
4068.15,-1.1350156212238833e-06
4069.05,-1.1477566062940096e-06
4069.95,-1.1577571100671325e-06
4070.85,-1.1604987143310223e-06
4071.75,-1.1628550993089487e-06
4072.65,-1.1556991604668491e-06
4073.55,-1.1551809263173267e-06
4074.45,-1.1462521435719254e-06
4075.35,-1.137343288691997e-06
4076.25,-1.1189338592247101e-06
4077.15,-1.1072110605780056e-06
4078.05,-1.0956765353657845e-06
4078.95,-1.0977448952241846e-06
4079.85,-1.1080246443469435e-06
4080.75,-1.1332262628901535e-06
4081.65,-1.1523733618114332e-06
4082.55,-1.1752675318380722e-06
4083.45,-1.1873221711170251e-06
4084.35,-1.1950772391289905e-06
4085.25,-1.1994452078747977e-06
4086.15,-1.2093571166636242e-06
4087.05,-1.2262080222946356e-06
4087.95,-1.248026514941328e-06
4088.85,-1.2662093448675672e-06
4089.75,-1.2760259895646318e-06
4090.65,-1.2779796111478019e-06
4091.55,-1.2813640311869569e-06
4092.45,-1.275018271033262e-06
4093.36,-1.2615618628824494e-06
4094.26,-1.2448731195809233e-06
4095.16,-1.2297549899832864e-06
4096.06,-1.2020281036296954e-06
4096.96,-1.1744998182086131e-06
4097.86,-1.1389354411725247e-06
4098.76,-1.10386612623955e-06
4099.66,-1.0557139620731476e-06
4100.56,-1.0161126712792983e-06
4101.46,-9.855921657347316e-07
4102.36,-9.588883307950824e-07
4103.26,-9.63674898796083e-07
4104.16,-9.846800761681193e-07
4105.06,-1.0203285404444805e-06
4105.96,-1.067580471572879e-06
4106.86,-1.1092535148708848e-06
4107.76,-1.1474253634302972e-06
4108.66,-1.1741789478243563e-06
4109.56,-1.1958751253493377e-06
4110.46,-1.2102504410267332e-06
4111.36,-1.2212210239823873e-06
4112.26,-1.2356155305291287e-06
4113.16,-1.251929702158484e-06
4114.06,-1.2647389232874214e-06
4114.96,-1.2855063827320642e-06
4115.86,-1.2906341141986327e-06
4116.76,-1.2982220948851585e-06
4117.66,-1.2987490399097403e-06
4118.56,-1.2894551246996974e-06
4119.46,-1.2877427070974545e-06
4120.36,-1.281008773623719e-06
4121.26,-1.2743491939564565e-06
4122.16,-1.2767498994133938e-06
4123.06,-1.2825114270571545e-06
4123.96,-1.2857187399137496e-06
4124.86,-1.2960828718862626e-06
4125.76,-1.300856355235803e-06
4126.66,-1.306717861203365e-06
4127.56,-1.3001139867786636e-06
4128.46,-1.2984237032401212e-06
4129.36,-1.2925417544519056e-06
4130.26,-1.285183459236495e-06
4131.17,-1.2721647939236299e-06
4132.06,-1.2652129192485666e-06
4132.97,-1.2656515356793548e-06
4133.87,-1.252062184158492e-06
4134.77,-1.2615155801681404e-06
4135.67,-1.2777766593976259e-06
4136.57,-1.300348671101051e-06
4137.47,-1.322548159212112e-06
4138.37,-1.344802295445251e-06
4139.27,-1.3563807204422105e-06
4140.17,-1.3577202164478428e-06
4141.07,-1.350789856323786e-06
4141.97,-1.3344091825149828e-06
4142.87,-1.312568644193981e-06
4143.77,-1.2971021633172536e-06
4144.67,-1.2859677357314877e-06
4145.57,-1.291884745993912e-06
4146.47,-1.302440213358211e-06
4147.37,-1.317700052362633e-06
4148.27,-1.3337215359362227e-06
4149.17,-1.3450909747571798e-06
4150.07,-1.3454954897092375e-06
4150.97,-1.3476447553012738e-06
4151.87,-1.3473704038732218e-06
4152.77,-1.3423785573127545e-06
4153.67,-1.3359121211056248e-06
4154.57,-1.3306945085345424e-06
4155.47,-1.3295606198833515e-06
4156.37,-1.3361415158593254e-06
4157.27,-1.3422482732370391e-06
4158.17,-1.355324274971007e-06
4159.07,-1.3716688153447308e-06
4159.97,-1.3901649026159814e-06
4160.87,-1.4010359820456187e-06
4161.77,-1.4123761010591388e-06
4162.67,-1.4203912869082778e-06
4163.57,-1.4216136815929767e-06
4164.47,-1.4288667339913004e-06
4165.37,-1.4310890595334355e-06
4166.27,-1.4245452588507992e-06
4167.17,-1.4114341885170195e-06
4168.07,-1.4102592637962567e-06
4168.98,-1.4065130887871526e-06
4169.88,-1.3892389285450055e-06
4170.78,-1.3703728413436543e-06
4171.68,-1.3471126983578813e-06
4172.58,-1.3369395913403635e-06
4173.48,-1.3169773258031656e-06
4174.38,-1.3045305907601102e-06
4175.28,-1.3036934701297963e-06
4176.18,-1.3184804840094657e-06
4177.08,-1.3237438123115627e-06
4177.98,-1.34372980587081e-06
4178.88,-1.3564509005492425e-06
4179.78,-1.369253385949334e-06
4180.68,-1.3839076173604657e-06
4181.58,-1.3922678051025297e-06
4182.48,-1.4021180569910103e-06
4183.38,-1.4000102580330284e-06
4184.28,-1.3995218874259337e-06
4185.18,-1.4064108712485565e-06
4186.08,-1.4014917925857825e-06
4186.98,-1.3972215970312274e-06
4187.88,-1.3969240748184494e-06
4188.78,-1.3965216092515318e-06
4189.68,-1.3985239689207593e-06
4190.58,-1.4084288960286476e-06
4191.48,-1.4309406725838593e-06
4192.38,-1.4377207440523613e-06
4193.28,-1.4480178666834247e-06
4194.18,-1.4443671917754055e-06
4195.08,-1.4465904526935054e-06
4195.98,-1.4418908227553586e-06
4196.88,-1.4155938646186115e-06
4197.78,-1.3994367049091281e-06
4198.68,-1.3860381320609243e-06
4199.58,-1.3667836860478134e-06
4200.48,-1.361420684017499e-06
4201.38,-1.3591155116594379e-06
4202.28,-1.3664001213273023e-06
4203.18,-1.374015104838639e-06
4204.08,-1.3830599213724528e-06
4204.98,-1.4065261440085006e-06
4205.88,-1.4212428171545999e-06
4206.79,-1.433286329125103e-06
4207.69,-1.451383876915258e-06
4208.59,-1.4766847461591383e-06
4209.49,-1.4874502995817676e-06
4210.39,-1.4961836482220308e-06
4211.29,-1.498279770053279e-06
4212.19,-1.4977867932028287e-06
4213.09,-1.500416168698118e-06
4213.99,-1.4874549025210888e-06
4214.89,-1.4687216459141684e-06
4215.79,-1.4628081735098254e-06
4216.69,-1.4529899598874794e-06
4217.59,-1.456421330944275e-06
4218.49,-1.467814847891839e-06
4219.39,-1.4849561869108394e-06
4220.29,-1.4979112361752348e-06
4221.19,-1.498838185719116e-06
4222.09,-1.4914469031934047e-06
4222.99,-1.4788217773331076e-06
4223.89,-1.443131967140149e-06
4224.79,-1.3861733012870804e-06
4225.69,-1.3461660812665437e-06
4226.59,-1.3131833129792853e-06
4227.49,-1.2983948121111002e-06
4228.39,-1.3135700701942484e-06
4229.29,-1.3444553688293502e-06
4230.19,-1.388940012249519e-06
4231.09,-1.431255127328822e-06
4231.99,-1.463062496264426e-06
4232.89,-1.4860652714056853e-06
4233.79,-1.4898034387589787e-06
4234.69,-1.4830556223638938e-06
4235.59,-1.4837856347250067e-06
4236.49,-1.4662680035391368e-06
4237.39,-1.4692235901778658e-06
4238.29,-1.4677896501967961e-06
4239.19,-1.4734465307289156e-06
4240.09,-1.4961922235183518e-06
4240.99,-1.5070264702866756e-06
4241.89,-1.5267786880401074e-06
4242.79,-1.538119534204169e-06
4243.69,-1.544449039395697e-06
4244.59,-1.5514028793869097e-06
4245.5,-1.5493459565738752e-06
4246.4,-1.544868533331971e-06
4247.3,-1.5312484436527983e-06
4248.2,-1.5133546133094165e-06
4249.1,-1.5003230508642942e-06
4250.0,-1.495078819458292e-06
4250.9,-1.4923367885307461e-06
4251.8,-1.4942919447986966e-06
4252.7,-1.5075828472327588e-06
4253.6,-1.5146710071024578e-06
4254.5,-1.5241381559780823e-06
4255.4,-1.5328958428080943e-06
4256.3,-1.5387981435528276e-06
4257.2,-1.5417773120911813e-06
4258.1,-1.5509256156151224e-06
4259.0,-1.5350133346054274e-06
4259.9,-1.5284683075373988e-06
4260.8,-1.52831878948681e-06
4261.7,-1.527370958940852e-06
4262.6,-1.5498686051957647e-06
4263.5,-1.5692317007979785e-06
4264.4,-1.5921817476274235e-06
4265.3,-1.6162756920327563e-06
4266.2,-1.6283006711274593e-06
4267.1,-1.627349546592118e-06
4268.0,-1.6113057688029395e-06
4268.9,-1.5895305327219029e-06
4269.8,-1.5605057546275265e-06
4270.7,-1.527831384290548e-06
4271.6,-1.4951264054328553e-06
4272.5,-1.4704177003016443e-06
4273.4,-1.4591724275485629e-06
4274.3,-1.4596490648826128e-06
4275.2,-1.4787931850886463e-06
