wave,flux
3700.85,-8.600131078790136e-05
3701.75,-8.525118385290626e-05
3702.65,-8.292791803968644e-05
3703.55,-8.010329349947451e-05
3704.45,-7.636810343507669e-05
3705.35,-7.33533936045758e-05
3706.25,-7.124636123576224e-05
3707.15,-7.079818979387968e-05
3708.05,-7.154080864112541e-05
3708.96,-7.312553659920745e-05
3709.86,-7.479993538009948e-05
3710.76,-7.726265954762339e-05
3711.66,-8.058021448029896e-05
3712.56,-8.405208532550171e-05
3713.46,-8.759931902221606e-05
3714.36,-9.181865882944499e-05
3715.26,-9.413087129965928e-05
3716.16,-9.548569907919438e-05
3717.06,-9.485500862529689e-05
3717.96,-9.250205542240612e-05
3718.86,-8.778600111961856e-05
3719.76,-8.268540645813675e-05
3720.66,-7.748773980418898e-05
3721.56,-7.398931888604038e-05
3722.46,-7.313929228142018e-05
3723.36,-7.536046872223984e-05
3724.26,-7.947205215415736e-05
3725.16,-8.479702562246229e-05
3726.06,-8.951969490919179e-05
3726.96,-9.245879794107908e-05
3727.86,-9.406755985259558e-05
3728.76,-9.509167811206283e-05
3729.66,-9.482715613407418e-05
3730.56,-9.365304295394152e-05
3731.46,-9.073103520348585e-05
3732.36,-8.639949803216123e-05
3733.26,-8.077061460899876e-05
3734.16,-7.560934773793761e-05
3735.06,-7.153371957183842e-05
3735.96,-6.977815240805328e-05
3736.86,-7.126190579677134e-05
3737.76,-7.591216864619816e-05
3738.66,-8.200596964679824e-05
3739.56,-8.955998664664339e-05
3740.46,-9.553856970989167e-05
3741.36,-0.00010017626539161423
3742.26,-0.00010153511820081088
3743.16,-0.00010126039370122839
3744.06,-9.882652210127923e-05
3744.96,-9.537971320502533e-05
3745.86,-9.092000922717759e-05
3746.76,-8.644874543534538e-05
3747.67,-8.308020240948006e-05
3748.57,-7.949931267240773e-05
3749.47,-7.76421577095007e-05
3750.37,-7.853620339667668e-05
3751.27,-8.25134027899779e-05
3752.17,-8.950451741819422e-05
3753.07,-9.75762351963477e-05
3753.97,-0.00010593714909513688
3754.87,-0.00011278505819053285
3755.77,-0.00011618351961653629
3756.67,-0.00011762128216058105
3757.57,-0.00011601444208077938
3758.47,-0.00011296742808326068
3759.37,-0.00011073572777435883
3760.27,-0.00010976450455089145
3761.17,-0.00011063612630347601
3762.07,-0.00011287512437214269
3762.97,-0.00011505588904438287
3763.87,-0.00011766398736264621
3764.77,-0.00011870958635379719
3765.67,-0.00011932882129441871
3766.57,-0.0001187449882232964
3767.47,-0.00011733215584115706
3768.37,-0.00011528070677854095
3769.27,-0.00011380058875229548
3770.17,-0.00011309443937816448
3771.07,-0.00011412973210684096
3771.97,-0.00011666099830844359
3772.87,-0.00012075917692471124
3773.77,-0.0001256220210473621
3774.67,-0.00013082169653471374
3775.57,-0.00013565505940537183
3776.47,-0.0001398057665269809
3777.37,-0.0001435012997221365
3778.27,-0.00014690637082246085
3779.17,-0.0001506835487828825
3780.07,-0.00015566459906237161
3780.97,-0.00015892091591068077
3781.87,-0.0001625905877775109
3782.77,-0.0001645156354692986
3783.67,-0.00016545487567803824
3784.57,-0.0001647422848233453
3785.47,-0.00016153773834141688
3786.38,-0.0001580921781896127
3787.28,-0.00015363831843633302
3788.18,-0.00014930310499728522
3789.08,-0.00014685620424848835
3789.98,-0.00014535387933055214
3790.88,-0.00014482450706058335
3791.78,-0.0001446451930606876
3792.68,-0.00014275571721465648
3793.58,-0.00014040592965537652
3794.48,-0.00013636574748332898
3795.38,-0.0001317088294080515
3796.28,-0.00012762061801724312
3797.18,-0.00012284744448261164
3798.08,-0.00012038752895960051
3798.98,-0.00012131876149044558
3799.88,-0.00012486547232799517
3800.78,-0.00013257688380399757
3801.68,-0.0001423482047179645
3802.58,-0.0001537299405202188
3803.48,-0.0001634271845988709
3804.38,-0.00017025897772988683
3805.28,-0.00017592846793011938
3806.18,-0.000178505360835251
3807.08,-0.00018069068267578386
3807.98,-0.00018122676625151402
3808.88,-0.00018422112674765063
3809.78,-0.0001863852585192602
3810.68,-0.0001889770320964767
3811.58,-0.00018949149501763012
3812.48,-0.00018691794996524092
3813.38,-0.00018335996945431787
3814.28,-0.00017798901945550267
3815.18,-0.00017360960898855142
3816.08,-0.00017164341393248537
3816.98,-0.00017158172154181257
3817.88,-0.00017111922295048155
3818.78,-0.0001723642901152089
3819.68,-0.000171963020326774
3820.58,-0.00017013313950974294
3821.48,-0.00016919914479186326
3822.38,-0.0001685059213440629
3823.28,-0.0001669670793005865
3824.18,-0.00016539920934139165
3825.09,-0.00016222316713101185
3825.99,-0.0001588353237363247
3826.89,-0.00015492303606634775
3827.79,-0.00015274361983010052
3828.69,-0.0001512902971092213
3829.59,-0.00015000878373094983
3830.49,-0.0001481902123510179
3831.39,-0.00014516070982627588
3832.29,-0.00013977457255136416
3833.19,-0.00013438532816914737
3834.09,-0.0001289762366566489
3834.99,-0.00012564725935049195
3835.89,-0.00012479650734665082
3836.79,-0.0001250468643156201
3837.69,-0.00012801755030208186
3838.59,-0.0001322492191446221
3839.49,-0.0001386204535460936
3840.39,-0.00014722855836039046
3841.29,-0.00015796696651925975
3842.19,-0.00016972827473969767
3843.09,-0.00018243818715592662
3843.99,-0.00019373855128854175
3844.89,-0.00020378783929586415
3845.79,-0.00021207718710964882
3846.69,-0.0002178463185640803
3847.59,-0.00022145236115587088
3848.49,-0.00022530766308084447
3849.39,-0.0002276586051052218
3850.29,-0.00022971785990214054
3851.19,-0.00023034950883800922
3852.09,-0.0002330844625943969
3852.99,-0.0002366798006057159
3853.89,-0.0002369076670953359
3854.79,-0.00023591716196102533
3855.69,-0.00023494836129301036
3856.59,-0.00023218395817074463
3857.49,-0.0002280681974736663
3858.39,-0.00022458572102197904
3859.29,-0.00022199732494930765
3860.19,-0.0002225389225563304
3861.09,-0.00022672824148615737
3861.99,-0.00023356999020202371
3862.9,-0.00024217339469224285
3863.8,-0.00025118142240661664
3864.7,-0.00025613003611117506
3865.6,-0.0002598909232913438
3866.5,-0.0002627571390835032
3867.4,-0.0002635886929747098
3868.3,-0.0002633972556018642
3869.2,-0.0002621122908269829
3870.1,-0.00025859291505143554
3871.0,-0.00025449975821773707
3871.9,-0.0002504720220643955
3872.8,-0.00024707652892561516
3873.7,-0.0002476810529547616
3874.6,-0.00024958313808627733
3875.5,-0.00025203081306918564
3876.4,-0.0002553335374783629
3877.3,-0.00025543454179223024
3878.2,-0.0002539210889183769
3879.1,-0.00025392177129384156
3880.0,-0.00025412017689234115
3880.9,-0.00025360435028416213
3881.8,-0.00025476714063933165
3882.7,-0.00025370246009217645
3883.6,-0.00025295599063450533
3884.5,-0.0002477687658986556
3885.4,-0.0002409843085271587
3886.3,-0.0002335110312084137
3887.2,-0.00022471837037273124
3888.1,-0.00021783023012019324
3889.0,-0.0002133862498778881
3889.9,-0.000215730578741341
3890.8,-0.00022381119881356284
3891.7,-0.00023417287843057526
3892.6,-0.0002491350376389369
3893.5,-0.00026025878136420953
3894.4,-0.00027111755646194903
3895.3,-0.00027986207655470704
3896.2,-0.00028708543534151633
3897.1,-0.00029316646705939217
3898.0,-0.00029858240585261425
3898.9,-0.00030368058073522084
3899.8,-0.0003099914135783593
3900.7,-0.0003136528350767402
3901.6,-0.0003161723748131124
3902.51,-0.00031858825898283054
3903.41,-0.00031935056082812774
3904.31,-0.0003191155392264078
3905.21,-0.00031975088948685005
3906.11,-0.00032082814600448254
3907.01,-0.00032565571063802493
3907.91,-0.00033312930001545995
3908.81,-0.0003417622157393798
3909.71,-0.0003537631623236655
3910.61,-0.0003642194965040176
3911.51,-0.0003723925673223524
3912.41,-0.0003790958472040547
3913.31,-0.0003808920439857239
3914.21,-0.00038313764240796236
3915.11,-0.0003795802205077744
3916.01,-0.0003768013491132697
3916.91,-0.00037441118017154257
3917.81,-0.0003709654440263517
3918.71,-0.0003666354604731515
3919.61,-0.0003621842835867839
3920.51,-0.00035660554655007795
3921.41,-0.0003536545479691064
3922.31,-0.0003525265126868469
3923.21,-0.0003498554298170429
3924.11,-0.00034895732615943757
3925.01,-0.0003444158562570213
3925.91,-0.0003366252662443897
3926.81,-0.0003232793261573256
3927.71,-0.0003037060213846205
3928.61,-0.000280132759927267
3929.51,-0.0002545591725581525
3930.41,-0.00022507459412336777
3931.31,-0.00019738672018024158
3932.21,-0.00017177006781309668
3933.11,-0.0001516303073884055
3934.01,-0.00013972276566381612
3934.91,-0.0001380278092183815
3935.81,-0.0001480618417656829
3936.71,-0.00016846130445401925
3937.61,-0.0001961016836663717
3938.51,-0.00022958066298239507
3939.42,-0.0002624204632618159
3940.32,-0.00029391594662144655
3941.22,-0.00031969862059500934
3942.12,-0.00034007107343097056
3943.02,-0.0003575577179964674
3943.92,-0.0003719833138917909
3944.82,-0.00038500982576619627
3945.72,-0.0003968375699815381
3946.62,-0.00041162726022054457
3947.52,-0.00042624846459371946
3948.42,-0.0004379209321839997
3949.32,-0.0004465535629061484
3950.22,-0.000455836025897516
3951.12,-0.00046333305290961746
3952.02,-0.00047079783579549066
3952.92,-0.0004757159929514571
3953.82,-0.00048067933237655035
3954.72,-0.0004844069740504015
3955.62,-0.0004844655686282361
3956.52,-0.0004867086899731604
3957.42,-0.00048489726224044293
3958.32,-0.0004806690092976326
3959.22,-0.0004731944622258771
3960.12,-0.0004669800148040703
3961.02,-0.00045177598856844603
3961.92,-0.00043065419143685903
3962.82,-0.00040421291847805266
3963.72,-0.00037786476975720616
3964.62,-0.00034605093341423835
3965.52,-0.00031321053962940043
3966.42,-0.0002778189869631523
3967.32,-0.00024485173160209903
3968.22,-0.00021806423114613795
3969.12,-0.00019996464290852387
3970.02,-0.0001972073393094143
3970.92,-0.00020944402149596024
3971.82,-0.0002327360051413116
3972.72,-0.0002690014380299265
3973.62,-0.00031010963977005354
3974.52,-0.0003537228048455902
3975.42,-0.00039605224245840284
3976.32,-0.0004368109985775315
3977.22,-0.00047293078054549037
3978.13,-0.0005076053528880411
3979.03,-0.0005374424471927887
3979.93,-0.0005620936948119802
3980.83,-0.0005820360990202233
3981.73,-0.0005966414054315379
3982.63,-0.000607382247754991
3983.53,-0.0006133006724944721
3984.43,-0.0006259744603620205
3985.33,-0.0006336266965361037
3986.23,-0.0006446783407774672
3987.13,-0.0006575440656470842
3988.03,-0.00066772233548894
3988.93,-0.0006805479105006747
3989.83,-0.0006937975792348154
3990.73,-0.000701617302950406
3991.63,-0.0007122938841267524
3992.53,-0.0007202108505557707
3993.43,-0.0007280826803953996
3994.33,-0.0007304825133277225
3995.23,-0.0007305511982736387
3996.13,-0.0007287141507214062
3997.03,-0.0007275753523281946
3997.93,-0.000728427093469781
3998.83,-0.0007347645001007924
3999.73,-0.0007471757129261253
4000.63,-0.000766032830274315
4001.53,-0.0007807337577487724
4002.43,-0.0007923094253020562
4003.33,-0.0007954353662047135
4004.23,-0.0007930409881456371
4005.13,-0.0007888720790609492
4006.03,-0.0007868521208278755
4006.93,-0.000783815525947294
4007.83,-0.0007913928931402511
4008.73,-0.0008074892752753736
4009.63,-0.0008238206191192328
4010.53,-0.0008422278641108782
4011.43,-0.000856537462306771
4012.33,-0.0008705582210752804
4013.23,-0.0008800594273658429
4014.13,-0.0008840504072219466
4015.03,-0.0008909802709933484
4015.93,-0.0009005069986069857
4016.84,-0.000904736689717805
4017.74,-0.0009146447991044512
4018.64,-0.0009225552835216106
4019.54,-0.0009311508385114788
4020.44,-0.0009384696893039524
4021.34,-0.0009461767595699506
4022.24,-0.000952129175207072
4023.14,-0.0009533761684649627
4024.04,-0.00096295448228672
4024.94,-0.0009693957211387651
4025.84,-0.0009808829266839353
4026.74,-0.0009857898880015455
4027.64,-0.0009997950420767565
4028.54,-0.0010014421190430987
4029.44,-0.000998572850871767
4030.34,-0.0009924913984993295
4031.24,-0.0009733112317556924
4032.14,-0.000960516621271425
4033.04,-0.0009579862985984089
4033.94,-0.0009616975425242219
4034.84,-0.0009786532425525682
4035.74,-0.0009977109343258337
4036.64,-0.0010371318879321368
4037.54,-0.0010691902976685415
4038.44,-0.0010944067259614013
4039.34,-0.0011162970807340404
4040.24,-0.00112354303311274
4041.14,-0.0011210290960035117
4042.04,-0.0011165726882190546
4042.94,-0.0011018577952121458
4043.84,-0.0010786036786301452
4044.74,-0.0010633122716180749
4045.64,-0.0010483405836944088
4046.54,-0.0010485591016277244
4047.44,-0.0010635583993896783
4048.34,-0.0010890036415264106
4049.24,-0.0011230639433089486
4050.14,-0.0011543502238503924
4051.04,-0.0011777028139622295
4051.94,-0.0011960444402967024
4052.84,-0.001203951588699884
4053.74,-0.00120384903905177
4054.65,-0.0011976371039060186
4055.55,-0.0011968969916136354
4056.45,-0.0011950215201966359
4057.35,-0.0011959018615656186
4058.25,-0.0012022483026649627
4059.15,-0.0012153125458676055
4060.05,-0.0012206758545120443
4060.95,-0.0012302856885778105
4061.85,-0.0012319584731006856
4062.75,-0.0012307784498756878
4063.65,-0.0012257923750202066
4064.55,-0.0012151208846477887
4065.45,-0.0012194613451290642
4066.35,-0.0012295395401350705
4067.25,-0.001255419535493523
4068.15,-0.001282112423353807
4069.05,-0.0013093779606169593
4069.95,-0.0013282661155916183
4070.85,-0.001331511419873876
4071.75,-0.001342576598736536
4072.65,-0.0013443761980282516
4073.55,-0.001343031463998006
4074.45,-0.0013477514582895503
4075.35,-0.001337405215171027
4076.25,-0.0013299934867683516
4077.15,-0.0013207088983836787
4078.05,-0.0013171880454774872
4078.95,-0.00133222081213098
4079.85,-0.0013527972711596368
4080.75,-0.001382464224247607
4081.65,-0.0014301905713307262
4082.55,-0.0014566147650592251
4083.45,-0.0014803670753800308
4084.35,-0.0015016264303152713
4085.25,-0.001512748639113231
4086.15,-0.001532719054074947
4087.05,-0.0015634778366548309
4087.95,-0.0015918595881367252
4088.85,-0.0016276908377870554
4089.75,-0.001651374564256961
4090.65,-0.0016691616733082075
4091.55,-0.0016814788327483737
4092.45,-0.0016757051239100135
4093.36,-0.0016636122707858962
4094.26,-0.0016560381322180597
4095.16,-0.001637951549318378
4096.06,-0.00161399168967814
4096.96,-0.0015790846436626843
4097.86,-0.0015423343342728713
4098.76,-0.0014959062502826225
4099.66,-0.0014476144262947977
4100.56,-0.001388158117746092
4101.46,-0.001351744967779972
4102.36,-0.0013348125929983706
4103.26,-0.0013386732423220085
4104.16,-0.0013789493230550636
4105.06,-0.0014485090374728377
4105.96,-0.0015245581957055673
4106.86,-0.0016006179015863725
4107.76,-0.0016633610878296807
4108.66,-0.0017087877076938445
4109.56,-0.0017491503426074714
4110.46,-0.0017815756946711393
4111.36,-0.0018162260489270484
4112.26,-0.0018395160394376997
4113.16,-0.0018857861629282232
4114.06,-0.0019218989429470963
4114.96,-0.001954804076346038
4115.86,-0.0019844879464497567
4116.76,-0.0020139620639931426
4117.66,-0.002025621411713756
4118.56,-0.0020233293213769927
4119.46,-0.00203012269694228
4120.36,-0.002024401620231058
4121.26,-0.002036110631953557
4122.16,-0.0020500918929546525
4123.06,-0.0020673692369649038
4123.96,-0.0020964582417963918
4124.86,-0.0021272004216140003
4125.76,-0.0021438851111260453
4126.66,-0.0021585764402890914
4127.56,-0.002160441161743383
4128.46,-0.0021595835453108985
4129.36,-0.002161690822781746
4130.26,-0.002163245280405098
4131.17,-0.002161704800110411
4132.06,-0.0021519829405784886
4132.97,-0.0021549906284417694
4133.87,-0.0021865249760868724
4134.77,-0.0022064078321396684
4135.67,-0.002250779509612108
4136.57,-0.0023034109764718744
4137.47,-0.002365068066541006
4138.37,-0.002419137174154379
4139.27,-0.002451770114286417
4140.17,-0.0024741505438082706
4141.07,-0.002483704436285102
4141.97,-0.002456204647285367
4142.87,-0.002437354676505919
4143.77,-0.0024130086816056195
4144.67,-0.0024074490364433786
4145.57,-0.0024291737887246856
4146.47,-0.0024674442428971673
4147.37,-0.002516036607923023
4148.27,-0.0025523500443202316
4149.17,-0.0025832813333293027
4150.07,-0.002613745469647183
4150.97,-0.0026362693846726983
4151.87,-0.0026523186640071326
4152.77,-0.0026536693564278803
4153.67,-0.0026632944094743347
4154.57,-0.0026813850008550223
4155.47,-0.002679864749715616
4156.37,-0.002707018251564124
4157.27,-0.0027319477898475704
4158.17,-0.0027784742458604405
4159.07,-0.002833308826680767
4159.97,-0.0028969919613090127
4160.87,-0.002952867469438171
4161.77,-0.002992656785080583
4162.67,-0.003029471660472067
4163.57,-0.0030464440988803108
4164.47,-0.0030938781979809203
4165.37,-0.0031071341516859456
4166.27,-0.003116513952814372
4167.17,-0.003114864573651205
4168.07,-0.003116728572307864
4168.98,-0.0031047678915177472
4169.88,-0.003102207513379568
4170.78,-0.003088759756007033
4171.68,-0.0030779736715258036
4172.58,-0.003040707854192078
4173.48,-0.00301870507373678
4174.38,-0.0030237597716662955
4175.28,-0.003042171446564453
4176.18,-0.003081588144264664
4177.08,-0.0031252647116091973
4177.98,-0.003199778212597865
4178.88,-0.003239753795552258
4179.78,-0.00329038735565882
4180.68,-0.0033464194837869343
4181.58,-0.00337925096865049
4182.48,-0.0034135021896852156
4183.38,-0.0034654747094605472
4184.28,-0.0034920691132272388
4185.18,-0.003523200059747352
4186.08,-0.0035474185331705547
4186.98,-0.0035642182402753323
4187.88,-0.0035777075593223374
4188.78,-0.003614548234466682
4189.68,-0.0036496063941460067
4190.58,-0.0036904663211211994
4191.48,-0.0037423930725261853
4192.38,-0.0038098798332983634
4193.28,-0.003869840281700994
4194.18,-0.0038949717191157592
4195.08,-0.003917887817620423
4195.98,-0.0038916819272656828
4196.88,-0.0038889359295680172
4197.78,-0.003857925837438665
4198.68,-0.003821839485066087
4199.58,-0.003815538726529009
4200.48,-0.0038352106022799984
4201.38,-0.0038583019517920885
4202.28,-0.003909947755983208
4203.18,-0.003964164516776237
4204.08,-0.004032761522670478
4204.98,-0.004105552016192893
4205.88,-0.004181434326755047
4206.79,-0.004283484762718803
4207.69,-0.004364052921659332
4208.59,-0.004439990533822426
4209.49,-0.004516521109651043
4210.39,-0.004581196867667236
4211.29,-0.004612368980164558
4212.19,-0.004642104481815097
4213.09,-0.00467022180072748
4213.99,-0.004671222933453557
4214.89,-0.004678743839428768
4215.79,-0.004662706879422253
4216.69,-0.004690256046194994
4217.59,-0.004722573925059492
4218.49,-0.004792723499842354
4219.39,-0.004890077902482239
4220.29,-0.004970137398134379
4221.19,-0.005044373365075195
4222.09,-0.005045259199142631
4222.99,-0.00499813166706583
4223.89,-0.004905381131240993
4224.79,-0.0047699705042566955
4225.69,-0.004641375804389575
4226.59,-0.004537162148324662
4227.49,-0.0045356484033095175
4228.39,-0.004615599733627818
4229.29,-0.004756504442977235
4230.19,-0.004968558289321262
4231.09,-0.005156933281637971
4231.99,-0.005334181289356298
4232.89,-0.005442649279285989
4233.79,-0.005481397610303636
4234.69,-0.005526722416182095
4235.59,-0.005531694213559538
4236.49,-0.005534994307800759
4237.39,-0.00557237861960578
4238.29,-0.0055920976452109444
4239.19,-0.005681202959882166
4240.09,-0.005755963962020142
4240.99,-0.005895075643883305
4241.89,-0.005985661238714276
4242.79,-0.00612621211505509
4243.69,-0.006198260217626698
4244.59,-0.006286249266353352
4245.5,-0.0063149633266252145
4246.4,-0.006316940706629686
4247.3,-0.006316783057330969
4248.2,-0.006256532923854558
4249.1,-0.0062982827394282665
4250.0,-0.006255693565628438
4250.9,-0.0063056749949510485
4251.8,-0.006357357305091269
4252.7,-0.006505342817072134
4253.6,-0.006550128440189445
4254.5,-0.006638988322496926
4255.4,-0.006739379509264836
4256.3,-0.0067750232210797064
4257.2,-0.006893283951940217
4258.1,-0.006936566704030155
4259.0,-0.006947653754564695
4259.9,-0.006975760463024997
4260.8,-0.0069947368551137225
4261.7,-0.007046745841193257
4262.6,-0.007235327808524521
4263.5,-0.00738640006232101
4264.4,-0.007558699329736298
4265.3,-0.007729858192316158
4266.2,-0.007877873744409
4267.1,-0.007928293592142473
4268.0,-0.007899340284948608
4268.9,-0.007842899412866615
4269.8,-0.007779510096511521
4270.7,-0.007618426012538692
4271.6,-0.007543774486917994
4272.5,-0.00742928690373176
4273.4,-0.007425288837390195
4274.3,-0.007504638019257132
4275.2,-0.007618750162485731
4276.1,-0.007854311444355118
4277.0,-0.008107598620472058
4277.9,-0.008325437262517138
4278.8,-0.008487243687070982
4279.7,-0.008641168398871414
4280.6,-0.008719844619969096
4281.5,-0.008739880573007213
4282.4,-0.008798013924491758
4283.31,-0.008824686151252968
