wave,flux
3700.85,-6.252204351552862e-05
3701.75,-6.173994397704071e-05
3702.65,-5.962714535384928e-05
3703.55,-5.6269889459303966e-05
3704.45,-5.263589719582291e-05
3705.35,-4.9074702734925994e-05
3706.25,-4.636388950198891e-05
3707.15,-4.478121685141864e-05
3708.05,-4.483855470368278e-05
3708.96,-4.6267853933873824e-05
3709.86,-4.8427949259202976e-05
3710.76,-5.239273657109836e-05
3711.66,-5.622591802444321e-05
3712.56,-6.073922985507312e-05
3713.46,-6.480227639727437e-05
3714.36,-6.747108164296762e-05
3715.26,-6.80343805632132e-05
3716.16,-6.739714992224807e-05
3717.06,-6.483867720940482e-05
3717.96,-6.034306489724089e-05
3718.86,-5.5117259524910616e-05
3719.76,-4.9632067914691356e-05
3720.66,-4.523889508659335e-05
3721.56,-4.2777229039771606e-05
3722.46,-4.300470856157492e-05
3723.36,-4.558073841896228e-05
3724.26,-4.956169556250451e-05
3725.16,-5.383492934420701e-05
3726.06,-5.685858775743464e-05
3726.96,-5.910281893839972e-05
3727.86,-6.0192743370195975e-05
3728.76,-5.998199861194107e-05
3729.66,-5.9637570221992446e-05
3730.56,-5.835734301459074e-05
3731.46,-5.611493069921914e-05
3732.36,-5.2580558149624495e-05
3733.26,-4.811668466346488e-05
3734.16,-4.37823727470084e-05
3735.06,-4.026713660606726e-05
3735.96,-3.831827450923415e-05
3736.86,-3.8651475686941036e-05
3737.76,-4.1566207315237305e-05
3738.66,-4.6134727949636126e-05
3739.56,-5.138906205127565e-05
3740.46,-5.6139619076451004e-05
3741.36,-5.952157934725161e-05
3742.26,-6.0525665353715646e-05
3743.16,-5.889275222960298e-05
3744.06,-5.617630333141005e-05
3744.96,-5.2604251986777656e-05
3745.86,-4.893763244742475e-05
3746.76,-4.592945447714255e-05
3747.67,-4.3547708865842376e-05
3748.57,-4.25937379168535e-05
3749.47,-4.331327667669977e-05
3750.37,-4.565852070963918e-05
3751.27,-5.060184687007588e-05
3752.17,-5.65403993475447e-05
3753.07,-6.301560192920298e-05
3753.97,-6.92910583541293e-05
3754.87,-7.340832197542942e-05
3755.77,-7.49955215058204e-05
3756.67,-7.383321749364446e-05
3757.57,-7.102339231782401e-05
3758.47,-6.740279478939618e-05
3759.37,-6.448930551112578e-05
3760.27,-6.367436652007946e-05
3761.17,-6.39975295179103e-05
3762.07,-6.527336416247816e-05
3762.97,-6.687156447884095e-05
3763.87,-6.79411465769335e-05
3764.77,-6.896133816727495e-05
3765.67,-6.918922954951356e-05
3766.57,-7.014148464901602e-05
3767.47,-7.104323219031768e-05
3768.37,-7.257209566866765e-05
3769.27,-7.487835676969656e-05
3770.17,-7.746670860980158e-05
3771.07,-8.060354823776874e-05
3771.97,-8.408541891540194e-05
3772.87,-8.64463514347743e-05
3773.77,-8.95112653605017e-05
3774.67,-9.202748440986588e-05
3775.57,-9.31464324387841e-05
3776.47,-9.450037047920632e-05
3777.37,-9.601589470356011e-05
3778.27,-9.731507350992068e-05
3779.17,-9.928398090305367e-05
3780.07,-0.0001013967850989715
3780.97,-0.00010397496704693421
3781.87,-0.00010551486075306533
3782.77,-0.00010731642766365683
3783.67,-0.00010719150574046039
3784.57,-0.0001055749711409638
3785.47,-0.00010280546388041824
3786.38,-9.805249888547037e-05
3787.28,-9.309767154817947e-05
3788.18,-8.938178656652924e-05
3789.08,-8.617749430956802e-05
3789.98,-8.50619694775444e-05
3790.88,-8.522628706383048e-05
3791.78,-8.549138784850891e-05
3792.68,-8.591713253333854e-05
3793.58,-8.548929892998051e-05
3794.48,-8.438210500762422e-05
3795.38,-8.237438760107082e-05
3796.28,-7.998230360972451e-05
3797.18,-7.835435724130335e-05
3798.08,-7.760026017708608e-05
3798.98,-7.785125986988746e-05
3799.88,-8.069643201935532e-05
3800.78,-8.50656761142167e-05
3801.68,-9.184490254892633e-05
3802.58,-9.80587082669392e-05
3803.48,-0.0001043317848485023
3804.38,-0.00010881125757274552
3805.28,-0.00011109768850203752
3806.18,-0.00011120632436438776
3807.08,-0.00011099067287176881
3807.98,-0.00011084865466047482
3808.88,-0.00011183921639921071
3809.78,-0.00011255916386916514
3810.68,-0.00011352139510905488
3811.58,-0.00011326781720788212
3812.48,-0.00011030172011878363
3813.38,-0.0001058788050375075
3814.28,-0.00010084118670758882
3815.18,-9.576317568165246e-05
3816.08,-9.164495273773051e-05
3816.98,-8.921902500375676e-05
3817.88,-8.824250772829975e-05
3818.78,-8.726177349851626e-05
3819.68,-8.582679541341438e-05
3820.58,-8.409862494133523e-05
3821.48,-8.255404834160457e-05
3822.38,-8.187573939618252e-05
3823.28,-8.061927392284619e-05
3824.18,-7.915986520719328e-05
3825.09,-7.722207286142969e-05
3825.99,-7.41605539952289e-05
3826.89,-7.210113200470263e-05
3827.79,-7.102384565248863e-05
3828.69,-7.148807894316067e-05
3829.59,-7.239641010224312e-05
3830.49,-7.302049658732076e-05
3831.39,-7.278946236992011e-05
3832.29,-7.188725218840308e-05
3833.19,-7.089413086454746e-05
3834.09,-6.99517598250677e-05
3834.99,-6.98763889703721e-05
3835.89,-7.075000327590868e-05
3836.79,-7.17122797568001e-05
3837.69,-7.270611718145507e-05
3838.59,-7.346393300052829e-05
3839.49,-7.474264601270486e-05
3840.39,-7.750276978798104e-05
3841.29,-8.278259103144034e-05
3842.19,-9.028640370690156e-05
3843.09,-9.88259916332032e-05
3843.99,-0.00010672164401912528
3844.89,-0.00011413862329851951
3845.79,-0.00011936142335769142
3846.69,-0.00012270663073161913
3847.59,-0.00012412507629506626
3848.49,-0.00012442854077447326
3849.39,-0.0001241520326563965
3850.29,-0.00012371799117838527
3851.19,-0.00012360259398449476
3852.09,-0.00012356962645871603
3852.99,-0.0001240600175852288
3853.89,-0.00012404771062399984
3854.79,-0.00012233170179621055
3855.69,-0.00011949191593938915
3856.59,-0.000115790900381003
3857.49,-0.0001112400543391368
3858.39,-0.00010781179142785523
3859.29,-0.00010503492052838834
3860.19,-0.00010455228056268197
3861.09,-0.00010782389171992933
3861.99,-0.00011377765867946318
3862.9,-0.00012055622592483407
3863.8,-0.00012838011195559935
3864.7,-0.0001335998954631863
3865.6,-0.00013724941983264064
3866.5,-0.00013790926351628596
3867.4,-0.00013757159935876516
3868.3,-0.0001350924595119098
3869.2,-0.00013322997069172457
3870.1,-0.00012980487303715932
3871.0,-0.00012633495118543912
3871.9,-0.0001245137763159522
3872.8,-0.0001245176511937364
3873.7,-0.00012720632896620542
3874.6,-0.0001315494155965531
3875.5,-0.00013614868260630687
3876.4,-0.00013931268591337332
3877.3,-0.00014002316480281394
3878.2,-0.00013828363287946723
3879.1,-0.00013677496765712526
3880.0,-0.00013555639454270585
3880.9,-0.00013570255251338934
3881.8,-0.0001369221899925821
3882.7,-0.00013809385374287243
3883.6,-0.00014058000533063712
3884.5,-0.00014086728656077568
3885.4,-0.00013927912654427147
3886.3,-0.0001375935532031259
3887.2,-0.00013613065946948262
3888.1,-0.00013612154600503552
3889.0,-0.00013901211097495778
3889.9,-0.00014402233157061477
3890.8,-0.00015346816904711415
3891.7,-0.00016314764953947786
3892.6,-0.00017206960185096336
3893.5,-0.0001794252995153603
3894.4,-0.0001836065774796603
3895.3,-0.0001868849390474117
3896.2,-0.00018864241872286155
3897.1,-0.0001899279073689984
3898.0,-0.00019144410617144027
3898.9,-0.00019214716588835905
3899.8,-0.00019386589612406267
3900.7,-0.00019551442917246204
3901.6,-0.00019567930847393152
3902.51,-0.00019494938923814135
3903.41,-0.00019448535834271457
3904.31,-0.00019294452928343863
3905.21,-0.00019173620868034614
3906.11,-0.0001921276362731586
3907.01,-0.00019690398641005106
3907.91,-0.00020379113750733125
3908.81,-0.00021258879624407558
3909.71,-0.00022252934129869326
3910.61,-0.0002310938485086428
3911.51,-0.0002395324335791018
3912.41,-0.00024546157513215695
3913.31,-0.00024654629351579863
3914.21,-0.00024825789359392877
3915.11,-0.000246992583267475
3916.01,-0.00024570467900279964
3916.91,-0.0002409242317230979
3917.81,-0.00023570559768697015
3918.71,-0.000229169718451932
3919.61,-0.00022152093119916238
3920.51,-0.00021375159250983615
3921.41,-0.00020790963803895364
3922.31,-0.00020272483764294713
3923.21,-0.00020076630777281045
3924.11,-0.0001989417837031058
3925.01,-0.00019698973925408764
3925.91,-0.00019112203246135376
3926.81,-0.00018210756269329155
3927.71,-0.0001691931004082821
3928.61,-0.0001533999817857183
3929.51,-0.0001365271207247312
3930.41,-0.00012038796693815054
3931.31,-0.00010496483778581261
3932.21,-9.201273432320157e-05
3933.11,-8.2549454910342e-05
3934.01,-7.778591691296431e-05
3934.91,-7.820305605765186e-05
3935.81,-8.333694287573787e-05
3936.71,-9.43670606279054e-05
3937.61,-0.00010926810517081715
3938.51,-0.00012709610974972528
3939.42,-0.00014629889932707744
3940.32,-0.00016301002883591616
3941.22,-0.00017800463076386085
3942.12,-0.00019006766543135618
3943.02,-0.00019901894037651792
3943.92,-0.000208022076015433
3944.82,-0.0002178721794012184
3945.72,-0.00022944261268480881
3946.62,-0.00024409773411693717
3947.52,-0.00025661198869655915
3948.42,-0.000269435129887826
3949.32,-0.0002809757769739269
3950.22,-0.00029091952942230547
3951.12,-0.0002992357797773656
3952.02,-0.00030558676852464534
3952.92,-0.0003137826441375361
3953.82,-0.00031668412550637376
3954.72,-0.00031819486956169554
3955.62,-0.0003192493838741635
3956.52,-0.0003186511379088192
3957.42,-0.00031540387967914324
3958.32,-0.000310792782002849
3959.22,-0.0003024368314268085
3960.12,-0.0002913402938228636
3961.02,-0.00027677859126675906
3961.92,-0.00025745517173849205
3962.82,-0.0002372979906434229
3963.72,-0.00021759718063387497
3964.62,-0.00019728556769133573
3965.52,-0.0001784965599856374
3966.42,-0.00015940183202448456
3967.32,-0.00014151980471880862
3968.22,-0.00012825889177375642
3969.12,-0.00012040192435365696
3970.02,-0.0001203979985262554
3970.92,-0.00012910267278634213
3971.82,-0.00014652015722690134
3972.72,-0.00017071859905902484
3973.62,-0.00019647530262598928
3974.52,-0.00022566869233882884
3975.42,-0.0002555566551914862
3976.32,-0.00028439955115703024
3977.22,-0.00031245042021178706
3978.13,-0.000340254140125489
3979.03,-0.0003646626210528712
3979.93,-0.0003836664524864956
3980.83,-0.00039921188533003927
3981.73,-0.0004123450928369495
3982.63,-0.0004203168511976436
3983.53,-0.00042602179636487677
3984.43,-0.00043117021016615583
3985.33,-0.0004392906693800377
3986.23,-0.00044784568635804277
3987.13,-0.0004574519359905454
3988.03,-0.0004671654485849601
3988.93,-0.0004779568337638852
3989.83,-0.0004843908166613831
3990.73,-0.0004943720532088698
3991.63,-0.000500960576527943
3992.53,-0.0005068930022074735
3993.43,-0.000513020562606983
3994.33,-0.0005150418696516053
3995.23,-0.000513660465001863
3996.13,-0.0005125676422755396
3997.03,-0.0005105553941168936
3997.93,-0.0005135265194980027
3998.83,-0.0005202538789977089
3999.73,-0.0005313813848354772
4000.63,-0.0005442153978538121
4001.53,-0.0005575343759377707
4002.43,-0.0005640184042455433
4003.33,-0.0005693943273988218
4004.23,-0.0005633647310769165
4005.13,-0.0005568896005786969
4006.03,-0.0005520030316614129
4006.93,-0.0005504413850314655
4007.83,-0.0005539355734149421
4008.73,-0.0005669528366634318
4009.63,-0.0005808870373449321
4010.53,-0.0006001800537643216
4011.43,-0.0006112624664394317
4012.33,-0.0006228853463409376
4013.23,-0.0006346384192824917
4014.13,-0.0006429840981004258
4015.03,-0.0006482792551638634
4015.93,-0.0006567244386034214
4016.84,-0.0006603490334528438
4017.74,-0.000661996182320265
4018.64,-0.0006683351724777033
4019.54,-0.0006762719107009914
4020.44,-0.0006792551733334812
4021.34,-0.0006848139417725867
4022.24,-0.0006879547675039212
4023.14,-0.0006912808138523958
4024.04,-0.0006993392859810748
4024.94,-0.0007009037918198026
4025.84,-0.0007079304402291104
4026.74,-0.0007193696132620391
4027.64,-0.0007283682208305534
4028.54,-0.0007268322450145777
4029.44,-0.0007211695650696981
4030.34,-0.0007045143236708271
4031.24,-0.0006856316480174537
4032.14,-0.0006652024220924374
4033.04,-0.000655339350364423
4033.94,-0.0006556466885269013
4034.84,-0.000664485061033634
4035.74,-0.0006936096795341191
4036.64,-0.0007234751562966601
4037.54,-0.0007566671256683078
4038.44,-0.0007875614116740412
4039.34,-0.000808217678286085
4040.24,-0.0008171435170303776
4041.14,-0.0008126150455097801
4042.04,-0.0008064997925610766
4042.94,-0.0007856266149277226
4043.84,-0.0007569353589157987
4044.74,-0.0007321963959466202
4045.64,-0.0007074911714884313
4046.54,-0.0007015631504126268
4047.44,-0.0007079693151670092
4048.34,-0.0007396271879215222
4049.24,-0.0007731290268128646
4050.14,-0.0008144447956096436
4051.04,-0.0008430221114561603
4051.94,-0.0008663609093841159
4052.84,-0.0008730782281871346
4053.74,-0.0008694967563909789
4054.65,-0.0008638969040744857
4055.55,-0.0008598438818394531
4056.45,-0.000847155420710045
4057.35,-0.0008435899021047436
4058.25,-0.0008442722740314381
4059.15,-0.0008464821301058964
4060.05,-0.000857322402731759
4060.95,-0.0008559866292100315
4061.85,-0.000850446539728796
4062.75,-0.000840007059102378
4063.65,-0.0008273216714816573
4064.55,-0.0008195107212572374
4065.45,-0.0008259105041050457
4066.35,-0.0008386157220822742
4067.25,-0.0008653101055165592
4068.15,-0.0008972539547152878
4069.05,-0.0009204341033779314
4069.95,-0.0009343415560468237
4070.85,-0.0009472727696042166
4071.75,-0.0009452758011262884
4072.65,-0.0009430470419987485
4073.55,-0.0009470255331757572
4074.45,-0.0009506875041111098
4075.35,-0.0009521829250254449
4076.25,-0.0009502846429288062
4077.15,-0.0009471298311838181
4078.05,-0.0009490237143459751
4078.95,-0.0009612437447569347
4079.85,-0.0009909508586516509
4080.75,-0.0010229601378566728
4081.65,-0.001061189238817486
4082.55,-0.0010911424536585732
4083.45,-0.0011168339999669246
4084.35,-0.0011263031046751645
4085.25,-0.0011381222102383151
4086.15,-0.0011636469593344994
4087.05,-0.0011942617299917804
4087.95,-0.0012207313261082928
4088.85,-0.0012562832461591811
4089.75,-0.0012788752829701233
4090.65,-0.0012945551349910595
4091.55,-0.001302505280076091
4092.45,-0.0013007364001760792
4093.36,-0.0012858583654707925
4094.26,-0.00127731346142867
4095.16,-0.0012561506275842722
4096.06,-0.001236500412221351
4096.96,-0.0012121392581584004
4097.86,-0.001187871570869409
4098.76,-0.0011597718247021466
4099.66,-0.0011285725326847912
4100.56,-0.0011077090148579316
4101.46,-0.00108340206936028
4102.36,-0.0010798578653535525
4103.26,-0.001094397605679552
4104.16,-0.001126469484664466
4105.06,-0.0011742282900429322
4105.96,-0.001227759611446223
4106.86,-0.0012796525019985437
4107.76,-0.0013180511792754035
4108.66,-0.001347565131469369
4109.56,-0.0013619459295663506
4110.46,-0.0013730420049950386
4111.36,-0.0013828995074571422
4112.26,-0.0014011569503438596
4113.16,-0.0014242619822905486
4114.06,-0.0014501522283750568
4114.96,-0.0014771627903295548
4115.86,-0.0015014952134519558
4116.76,-0.001510375856638516
4117.66,-0.0015320054151511503
4118.56,-0.0015233515946075612
4119.46,-0.0015155708253117193
4120.36,-0.00151324826800488
4121.26,-0.0015226781315365965
4122.16,-0.001538759746401167
4123.06,-0.001550465139709083
4123.96,-0.0015694483768351278
4124.86,-0.0015840295619872359
4125.76,-0.001604656388643417
4126.66,-0.0016181783464945107
4127.56,-0.0016171676692071167
4128.46,-0.0016107992008209918
4129.36,-0.0015970120638494284
4130.26,-0.001575640355278993
4131.17,-0.0015635882960569054
4132.06,-0.0015454584764291208
4132.97,-0.0015399064947242969
4133.87,-0.0015520669874010695
4134.77,-0.0015757066292016913
4135.67,-0.0016128575338232346
4136.57,-0.001676191002068227
4137.47,-0.0017308525325292455
4138.37,-0.0017730085564314224
4139.27,-0.001811081601277044
4140.17,-0.0018180615512762505
4141.07,-0.0018032229330535588
4141.97,-0.0017680793424302182
4142.87,-0.0017415836639389567
4143.77,-0.001697658093430065
4144.67,-0.001699613032318094
4145.57,-0.001696324403391792
4146.47,-0.001735925070488643
4147.37,-0.0017814682633155836
4148.27,-0.0018333889035969996
4149.17,-0.001856669422613803
4150.07,-0.0018759031098178945
4150.97,-0.0018846289305699676
4151.87,-0.0018872938584184697
4152.77,-0.0018828106942028928
4153.67,-0.0018964306358990569
4154.57,-0.0018943169869956814
4155.47,-0.0019127238192503655
4156.37,-0.0019296937337540526
4157.27,-0.0019732087358040958
4158.17,-0.002006403910985179
4159.07,-0.0020518298737054494
4159.97,-0.0021129548194419173
4160.87,-0.0021693509512739637
4161.77,-0.0022065897750978987
4162.67,-0.0022582045487001584
4163.57,-0.002288193933428988
4164.47,-0.0022960412215533594
4165.37,-0.002303364680079776
4166.27,-0.002296512235160568
4167.17,-0.002281396834145981
4168.07,-0.0022695205102933203
4168.98,-0.00226932250708499
4169.88,-0.0022499706924835592
4170.78,-0.0022401415609104827
4171.68,-0.0022266939632447393
4172.58,-0.002200371900740435
4173.48,-0.0021850215349781456
4174.38,-0.0021666465336984443
4175.28,-0.0021850488402803425
4176.18,-0.0022078785328622664
4177.08,-0.0022473143057445038
4177.98,-0.0022949170809728873
4178.88,-0.0023332653550888335
4179.78,-0.0023794835726388187
4180.68,-0.002416262408551593
4181.58,-0.002459582397853875
4182.48,-0.0024764970446553344
4183.38,-0.002511467367390642
4184.28,-0.002538560265099805
4185.18,-0.00256260309181672
4186.08,-0.0025681162661454647
4186.98,-0.0025829349900664818
4187.88,-0.0025969933382640033
4188.78,-0.002617620375396012
4189.68,-0.002645846199562412
4190.58,-0.0026893226093414697
4191.48,-0.002739116418863716
4192.38,-0.002792696310100183
4193.28,-0.002828538328433162
4194.18,-0.0028559576875083234
4195.08,-0.002858956030125412
4195.98,-0.0028318550052125985
4196.88,-0.0027913562030198193
4197.78,-0.0027340871764353876
4198.68,-0.002711884780180526
4199.58,-0.0026946418231351605
4200.48,-0.0026940201346082647
4201.38,-0.002716734441097513
4202.28,-0.0027648298722867623
4203.18,-0.002823169624862231
4204.08,-0.002892000792575244
4204.98,-0.002990606048692145
4205.88,-0.0031038094004515256
4206.79,-0.0032085775920583127
4207.69,-0.003287661533697939
4208.59,-0.003360626958022362
4209.49,-0.003415561490519688
4210.39,-0.003465688221399325
4211.29,-0.003501323009831059
4212.19,-0.0034931891431488893
4213.09,-0.0035022526889991372
4213.99,-0.003476697184121657
4214.89,-0.0034719084050096783
4215.79,-0.0034695979427214587
4216.69,-0.003487412777497629
4217.59,-0.003544157860025271
4218.49,-0.003624357135717628
4219.39,-0.003740332238143788
4220.29,-0.0038072514691352933
4221.19,-0.003849462394897453
4222.09,-0.003817885027837246
4222.99,-0.003727801267461077
4223.89,-0.0035896664307291347
4224.79,-0.0034094959749005165
4225.69,-0.0032278479754077587
4226.59,-0.0030808638135686526
4227.49,-0.0030406475839268557
4228.39,-0.0031164560865431894
4229.29,-0.0032654683932914754
4230.19,-0.0034903841602734902
4231.09,-0.0037055420219996283
4231.99,-0.0038913015562866103
4232.89,-0.004004907032822695
4233.79,-0.004082506310745148
4234.69,-0.004101636699661677
4235.59,-0.0040817907799813825
4236.49,-0.004086924802054934
4237.39,-0.0041156581061014596
4238.29,-0.004161414355441857
4239.19,-0.004228089895212988
4240.09,-0.004328423869876365
4240.99,-0.0044457085845121085
4241.89,-0.004567603693745484
4242.79,-0.004693136038254955
4243.69,-0.004807221486306227
4244.59,-0.004916452984725396
4245.5,-0.004939627485868991
4246.4,-0.004961660710204371
4247.3,-0.004906751757134424
4248.2,-0.004815850708452661
4249.1,-0.004775140197852777
4250.0,-0.004697309649553326
4250.9,-0.004676253777860979
4251.8,-0.004667403601064852
4252.7,-0.004719571717746576
4253.6,-0.004758439065310941
4254.5,-0.004849840936596006
4255.4,-0.004915839585685001
4256.3,-0.005011281458553012
4257.2,-0.005066481496586288
4258.1,-0.005117758868021334
4259.0,-0.00514024765370636
4259.9,-0.005141204878168044
4260.8,-0.0051712978184534665
4261.7,-0.0052270076544636765
4262.6,-0.005376425786871575
4263.5,-0.005587861900576378
4264.4,-0.005769994470746748
4265.3,-0.005989000221066139
4266.2,-0.006114656305414263
4267.1,-0.0061334524622150555
4268.0,-0.006127373661751267
4268.9,-0.005970654051432199
4269.8,-0.00577931635642587
4270.7,-0.00558216833959851
4271.6,-0.005371475694700063
4272.5,-0.00524925231227691
4273.4,-0.005187436952936025
4274.3,-0.005259173453190761
4275.2,-0.005399029122772783
4276.1,-0.005630808936025721
4277.0,-0.005922325255798173
4277.9,-0.00619801949093321
4278.8,-0.006438431679262801
4279.7,-0.006580978465611295
4280.6,-0.006677687292778605
4281.5,-0.006699853247285241
4282.4,-0.006738429457216019
4283.31,-0.0067435825705852125
