wave,flux
3700.85,-0.0025686737259933744
3701.75,-0.002571050714107555
3702.65,-0.0025510478800952908
3703.55,-0.0025008466271500053
3704.45,-0.0024423896002674574
3705.35,-0.002402976508892818
3706.25,-0.0024013880156433585
3707.15,-0.0024499476175422114
3708.05,-0.0025042877347874453
3708.96,-0.0025789004863283047
3709.86,-0.0026311187938881887
3710.76,-0.0026847372053492254
3711.66,-0.002742113274155721
3712.56,-0.0028358445618856002
3713.46,-0.0029480015992353827
3714.36,-0.0030954963713860366
3715.26,-0.0032359525549758676
3716.16,-0.003331587396394205
3717.06,-0.003415575312911155
3717.96,-0.003419226611274202
3718.86,-0.0033506475368573515
3719.76,-0.00323640425899015
3720.66,-0.0030859843615911897
3721.56,-0.0029843557803372494
3722.46,-0.0029657354741397337
3723.36,-0.003052522462897025
3724.26,-0.0032064129403641707
3725.16,-0.0034224016231001937
3726.06,-0.003652329745472314
3726.96,-0.003819154001014065
3727.86,-0.0039571691139035905
3728.76,-0.004065272507537355
3729.66,-0.004115608387176074
3730.56,-0.004081661226059187
3731.46,-0.004011630786635921
3732.36,-0.0038588703438368357
3733.26,-0.0036501950291103575
3734.16,-0.003485112006511476
3735.06,-0.0033671765161160964
3735.96,-0.0033888951638896977
3736.86,-0.0035176512702923706
3737.76,-0.003789413523733656
3738.66,-0.0041454141193003995
3739.56,-0.004487133885213952
3740.46,-0.004817517676321338
3741.36,-0.005069280486211454
3742.26,-0.005240407885154497
3743.16,-0.0052753278645155935
3744.06,-0.005242785451310034
3744.96,-0.005173395269690066
3745.86,-0.005033013231703792
3746.76,-0.004885758529990878
3747.67,-0.004672792723058072
3748.57,-0.004492791678004231
3749.47,-0.0043409073245459515
3750.37,-0.004346579702648118
3751.27,-0.0045209266031955376
3752.17,-0.004840036568796344
3753.07,-0.005290724801945312
3753.97,-0.005784722809314272
3754.87,-0.006236994065664961
3755.77,-0.006592033504551032
3756.67,-0.006829615921783447
3757.57,-0.006938357354454814
3758.47,-0.006970284748090849
3759.37,-0.007038783052883398
3760.27,-0.007147898824783783
3761.17,-0.007324783155675629
3762.07,-0.007475715792635272
3762.97,-0.007694380634782376
3763.87,-0.007870042646110539
3764.77,-0.007936212579493892
3765.67,-0.007988085735720038
3766.57,-0.007929689331435655
3767.47,-0.007790458136886211
3768.37,-0.007583443842569437
3769.27,-0.007422301046816789
3770.17,-0.007265427961493186
3771.07,-0.007267565031435904
3771.97,-0.007419352795160729
3772.87,-0.007800070770638247
3773.77,-0.008258081350218632
3774.67,-0.008788248620819101
3775.57,-0.009356435837306285
3776.47,-0.009892028431878756
3777.37,-0.010429628029757906
3778.27,-0.010912254223530926
3779.17,-0.011433475056357953
3780.07,-0.011951761288641541
3780.97,-0.012367570517108083
3781.87,-0.012782373977293364
3782.77,-0.013139548406974668
3783.67,-0.013393982148554097
3784.57,-0.013525580855615666
3785.47,-0.013576707468926067
3786.38,-0.01348263392635737
3787.28,-0.01343488296968462
3788.18,-0.013460382218937826
3789.08,-0.013436348578839893
3789.98,-0.013448950354667026
3790.88,-0.013486438351912669
3791.78,-0.013442416123726923
3792.68,-0.01335333333730349
3793.58,-0.013107960302104116
3794.48,-0.01276246454190348
3795.38,-0.012272273011590153
3796.28,-0.011830273436096137
3797.18,-0.011413477775309855
3798.08,-0.011181025101668298
3798.98,-0.011364595206968484
3799.88,-0.011896864878530816
3800.78,-0.01277367032738285
3801.68,-0.014007194417610499
3802.58,-0.015249557030882733
3803.48,-0.01654366969410471
3804.38,-0.017634172558537612
3805.28,-0.018547163624499374
3806.18,-0.019304307908541915
3807.08,-0.019933505536275188
3807.98,-0.02059698357612351
3808.88,-0.021321739961560823
3809.78,-0.022027087861846508
3810.68,-0.02266483104996766
3811.58,-0.02313232455708897
3812.48,-0.023322137700571587
3813.38,-0.023602499718167816
3814.28,-0.02368806120717453
3815.18,-0.023880838591059213
3816.08,-0.024270877188685154
3816.98,-0.024685349843774917
3817.88,-0.025419232460047694
3818.78,-0.025798164026849955
3819.68,-0.026262875053136885
3820.58,-0.026673327431705023
3821.48,-0.02697801229678826
3822.38,-0.027042608209148694
3823.28,-0.02731540501021456
3824.18,-0.02739042748954819
3825.09,-0.027307997370331356
3825.99,-0.0272903561742858
3826.89,-0.027180380561753044
3827.79,-0.027117040119783494
3828.69,-0.02700167950520128
3829.59,-0.027073612635830323
3830.49,-0.026561555952019655
3831.39,-0.025767873295611223
3832.29,-0.02499803257452033
3833.19,-0.02409535522160558
3834.09,-0.023009801332011175
3834.99,-0.022315091068351653
3835.89,-0.022204445523197187
3836.79,-0.02248029654652962
3837.69,-0.02362885449550502
3838.59,-0.02526032860408227
3839.49,-0.027310926278327312
3840.39,-0.02976482345804305
3841.29,-0.032389092987019974
3842.19,-0.035121171542064254
3843.09,-0.038099767540192654
3843.99,-0.040667970854409666
3844.89,-0.04310759834151797
3845.79,-0.0452324093058352
3846.69,-0.04727573772741934
3847.59,-0.0491631014715834
3848.49,-0.05096359719279142
3849.39,-0.05263363832598238
3850.29,-0.05428867794874917
3851.19,-0.05610589293094839
3852.09,-0.05753777715530202
3852.99,-0.05946670815077543
3853.89,-0.06141547745608618
3854.79,-0.06276674987761961
3855.69,-0.06416469968193193
3856.59,-0.0648741455518273
3857.49,-0.06608192107917091
3858.39,-0.06675178775695002
3859.29,-0.06818073661209748
3860.19,-0.06985854502979374
3861.09,-0.07184822920283687
3861.99,-0.07451438392319709
3862.9,-0.07763838429055293
3863.8,-0.08041395545615745
3864.7,-0.0827271947393754
3865.6,-0.08566339988823511
3866.5,-0.088187319504641
3867.4,-0.08978899765181124
3868.3,-0.09191187751766888
3869.2,-0.09347981651117909
3870.1,-0.09498205947430119
3871.0,-0.09608384593662918
3871.9,-0.09694665858916275
3872.8,-0.09780833386447844
3873.7,-0.0991728066452781
3874.6,-0.10109009091230285
3875.5,-0.10322353047133717
3876.4,-0.10529114249206774
3877.3,-0.10681139451907802
3878.2,-0.10862544188663233
3879.1,-0.11009749019356849
3880.0,-0.11147353311703319
3880.9,-0.11378195023024712
3881.8,-0.11635412804918005
3882.7,-0.11729223900982035
3883.6,-0.11795035916788367
3884.5,-0.11709692173438689
3885.4,-0.114912080672163
3886.3,-0.1115030154816681
3887.2,-0.10860406809896671
3888.1,-0.10545994396819
3889.0,-0.10454709089707734
3889.9,-0.10608975220998602
3890.8,-0.11135794576536778
3891.7,-0.11989562390643871
3892.6,-0.12994851797584897
3893.5,-0.1413857593983992
3894.4,-0.1527984977432944
3895.3,-0.16479116096874546
3896.2,-0.17486451282601517
3897.1,-0.18515419454527332
3898.0,-0.1962235842565131
3898.9,-0.20609900107428641
3899.8,-0.217763042920932
3900.7,-0.22747617643236165
3901.6,-0.2375429118898004
3902.51,-0.2497924731691836
3903.41,-0.25913653067484693
3904.31,-0.26951171318693246
3905.21,-0.279655376073737
3906.11,-0.29118211986731163
3907.01,-0.3050606722901226
3907.91,-0.3216070897017334
3908.81,-0.33964399199316403
3909.71,-0.3600760068494969
3910.61,-0.3804338671944926
3911.51,-0.4003581388023036
3912.41,-0.42066601099964956
3913.31,-0.43883212721673814
3914.21,-0.45505518562924824
3915.11,-0.47210036090590735
3916.01,-0.49000274498552565
3916.91,-0.508718448245691
3917.81,-0.5286348327615846
3918.71,-0.5481872909226052
3919.61,-0.5729893055807606
3920.51,-0.5975270703312264
3921.41,-0.626725369568372
3922.31,-0.6595239589834344
3923.21,-0.6943457666524985
3924.11,-0.7281389037534622
3925.01,-0.7659196518720874
3925.91,-0.7968116848643253
3926.81,-0.8230521564450145
3927.71,-0.8419631482522154
3928.61,-0.8540438848636975
3929.51,-0.8509094758364055
3930.41,-0.834792372299347
3931.31,-0.8097466360486819
3932.21,-0.7805092625204327
3933.11,-0.7609332048205094
3934.01,-0.7714875243456033
3934.91,-0.8433013546067928
3935.81,-0.9886605357974964
3936.71,-1.230206979928293
3937.61,-1.5870350440067589
3938.51,-2.0832027231167185
3939.42,-2.719877987770567
3940.32,-3.600608189121683
3941.22,-4.81847360732846
3942.12,-6.760947514750095
3943.02,-10.525571321191265
3943.92,-21.53740178847765
3944.82,-1128.2966874648966
3945.72,23.6963370225548
3946.62,12.057210967319863
3947.52,8.148355402776872
3948.42,6.2598527163594015
3949.32,5.092037825438954
3950.22,4.2981664881331625
3951.12,3.7296027522853614
3952.02,3.3195454824527038
3952.92,2.997568414995624
3953.82,2.7393137317330836
3954.72,2.5174552785056163
3955.62,2.3270997980933754
3956.52,2.1685455507591525
3957.42,2.0143528998958575
3958.32,1.8784616945545105
3959.22,1.7614737236150306
3960.12,1.6459077045338892
3961.02,1.534919252709554
3961.92,1.4178706308467526
3962.82,1.3012281484188277
3963.72,1.176886469597038
3964.62,1.0554634245269217
3965.52,0.9269123425518784
3966.42,0.8068424265120171
3967.32,0.6915674385145941
3968.22,0.5949827719867204
3969.12,0.5272002173410506
3970.02,0.494524652279242
3970.92,0.4969937440130243
3971.82,0.5339770783880288
3972.72,0.5887308877121662
3973.62,0.6553807792181956
3974.52,0.7250941475649813
3975.42,0.7861348789503967
3976.32,0.8387756526765128
3977.22,0.8859395455898486
3978.13,0.9218394871069923
3979.03,0.9512765602051813
3979.93,0.9719634578401399
3980.83,0.9834225792925152
3981.73,0.9906133935675571
3982.63,0.9967353154919736
3983.53,0.9949642916736113
3984.43,0.9926828945254889
3985.33,0.9992879282417884
3986.23,1.0027845361150836
3987.13,1.0011872450573471
3988.03,1.0069780575943748
3988.93,1.0082020594609298
3989.83,1.0095613454299743
3990.73,1.0127928854455432
3991.63,1.012551693296001
3992.53,1.0175409305367737
3993.43,1.0129100011372454
3994.33,1.0055695165741836
3995.23,1.0037019809035357
3996.13,0.9933622683751967
3997.03,0.9797085339578345
3997.93,0.9736451922337324
3998.83,0.97592937710644
3999.73,0.9736415417508197
4000.63,0.9801785816475028
4001.53,0.9878618679393317
4002.43,0.9932075960710451
4003.33,0.9909367641839284
4004.23,0.9852532291556275
4005.13,0.9798893098095175
4006.03,0.9713130057778567
4006.93,0.9684596067399943
4007.83,0.9644949086686014
4008.73,0.9744468977566203
4009.63,0.9787554830214348
4010.53,0.9882911371231439
4011.43,0.9970318739212909
4012.33,1.0019045006442577
4013.23,0.9990248638951327
4014.13,0.997622620926057
4015.03,0.9979856928473704
4015.93,0.9952201937591746
4016.84,0.9993245803208333
4017.74,0.9981367114162495
4018.64,1.0023842312575044
4019.54,1.0072440328513637
4020.44,1.012694516112399
4021.34,1.011210340118647
4022.24,1.0135023230727316
4023.14,1.0130873789651347
4024.04,1.0105875583247046
4024.94,1.011339846369469
4025.84,1.0130825705602915
4026.74,1.015818784620865
4027.64,1.0209729672926984
4028.54,1.016062274173241
4029.44,1.0094240088988815
4030.34,0.9984857940114031
4031.24,0.9917779021556351
4032.14,0.9763751908236243
4033.04,0.9716587633372797
4033.94,0.9731264803951073
4034.84,0.983857405195425
4035.74,0.9927273752959571
4036.64,1.0109389853837378
4037.54,1.0324967288711122
4038.44,1.0408642417357563
4039.34,1.0477789909512905
4040.24,1.0504847506387827
4041.14,1.0448551216467983
4042.04,1.0431334985141856
4042.94,1.0298818607271372
4043.84,1.015682139297228
4044.74,1.007329417668948
4045.64,0.9930828162366685
4046.54,0.9919260172700317
4047.44,0.9908144225118729
4048.34,1.0058943844358643
4049.24,1.020592884375204
4050.14,1.0359208500536237
4051.04,1.0436988169411756
4051.94,1.049324952271174
4052.84,1.0473206429884623
4053.74,1.0470677219483304
4054.65,1.0436396173710594
4055.55,1.0335374087838187
4056.45,1.0341106361325325
4057.35,1.0292324187706998
4058.25,1.0335050026414883
4059.15,1.0379165054731803
4060.05,1.0395917827410646
4060.95,1.040353068835318
4061.85,1.0325355822386257
4062.75,1.029743152103924
4063.65,1.0198200449157817
4064.55,1.0153702217434524
4065.45,1.009542335743536
4066.35,1.0142419301972316
4067.25,1.0193899783922957
4068.15,1.026465931905783
4069.05,1.033348386573209
4069.95,1.0402505146708074
4070.85,1.0446572128289306
4071.75,1.0422580715997392
4072.65,1.0356873528913864
4073.55,1.0299727552068978
4074.45,1.0257614657026133
4075.35,1.017646220305359
4076.25,1.003393695188743
4077.15,0.9908549468029032
4078.05,0.9872500379700074
4078.95,0.9792337228135783
4079.85,0.9873519675646788
4080.75,0.9939989370648985
4081.65,1.0114611841174392
4082.55,1.0181328316364906
4083.45,1.0194425145452823
4084.35,1.0217892416181589
4085.25,1.0240093143219664
4086.15,1.0260967648625199
4087.05,1.0298117738420376
4087.95,1.0349015631629008
4088.85,1.0385928356071499
4089.75,1.041100265468501
4090.65,1.042540536276564
4091.55,1.0348775648423152
4092.45,1.0198807110182035
4093.36,1.0029432220398204
4094.26,0.9869060920141207
4095.16,0.9652277366345359
4096.06,0.9411571636371041
4096.96,0.9137566150605843
4097.86,0.8797792538681984
4098.76,0.8432327394805893
4099.66,0.7991943626650353
4100.56,0.7588591122860948
4101.46,0.7250235313616016
4102.36,0.7030158226997234
4103.26,0.7054393297792838
4104.16,0.7205486845511442
4105.06,0.7487543852067938
4105.96,0.7887767712183746
4106.86,0.8283602630866841
4107.76,0.8637575881781254
4108.66,0.8929598350449388
4109.56,0.9104095874749725
4110.46,0.9318548147581627
4111.36,0.9508430632987857
4112.26,0.9640035420320966
4113.16,0.979220688391147
4114.06,0.9905681800788207
4114.96,1.0105249943897443
4115.86,1.0176768083234797
4116.76,1.0215398151093245
4117.66,1.0236143893850451
4118.56,1.0232738365643153
4119.46,1.0211365823749472
4120.36,1.0180202443022837
4121.26,1.0193613026126107
4122.16,1.0257325778230018
4123.06,1.0244827979060176
4123.96,1.0302501837505622
4124.86,1.0335142421132197
4125.76,1.0368069032344696
4126.66,1.0402170831639512
4127.56,1.0391269475070077
4128.46,1.0362237366008071
4129.36,1.0339759530753092
4130.26,1.0301854041633527
4131.17,1.0230817573683
4132.06,1.0173152648920556
4132.97,1.0168869406788723
4133.87,1.0118320768509286
4134.77,1.0150035476399133
4135.67,1.0204495030083014
4136.57,1.0338965775034537
4137.47,1.0454814402711794
4138.37,1.0550593973269524
4139.27,1.0626680593125588
4140.17,1.0638888316767965
4141.07,1.0600823204154715
4141.97,1.049668996340277
4142.87,1.037047350290547
4143.77,1.0256684346868912
4144.67,1.025923127968216
4145.57,1.0226057699346678
4146.47,1.0274888176515484
4147.37,1.0330504092636337
4148.27,1.036748027962171
4149.17,1.0424584089234776
4150.07,1.0448327065172873
4150.97,1.0458411772645198
4151.87,1.0380937871583606
4152.77,1.0332926261599087
4153.67,1.030658718514085
4154.57,1.0211530658361678
4155.47,1.0215181888493141
4156.37,1.0202357040735655
4157.27,1.021127190899097
4158.17,1.0262188473192653
4159.07,1.0270857159160185
4159.97,1.0390769009233876
4160.87,1.0468420671683614
4161.77,1.0493722714241915
4162.67,1.0513937698833178
4163.57,1.0551907322269012
4164.47,1.051664074571364
4165.37,1.052968787693457
4166.27,1.0493579731039349
4167.17,1.0504736616470551
4168.07,1.0446306550099482
4168.98,1.035513186742871
4169.88,1.0272925673140083
4170.78,1.0161313222704549
4171.68,1.0038438547589779
4172.58,0.9897925388978406
4173.48,0.9827945473771695
4174.38,0.9753548592807755
4175.28,0.9694803052369045
4176.18,0.9750879550482908
4177.08,0.97926870333874
4177.98,0.9873936298471826
4178.88,0.9947599092380379
4179.78,1.001019516281401
4180.68,1.0010186843430453
4181.58,1.004341112161457
4182.48,1.0108059798376976
4183.38,1.0161054357773425
4184.28,1.0103284445075986
4185.18,1.0117001135481063
4186.08,1.0081831441546827
4186.98,1.0069189375445196
4187.88,1.0065923543299493
4188.78,1.0087075870171158
4189.68,1.006826075556941
4190.58,1.0086393349749252
4191.48,1.0205907783284391
4192.38,1.017220416300243
4193.28,1.025034355463691
4194.18,1.0263510030366794
4195.08,1.0162082958230547
4195.98,1.0182261469885319
4196.88,1.0079788520941149
4197.78,0.9946974764554747
4198.68,0.9840120746090241
4199.58,0.977809446147631
4200.48,0.978883894671075
4201.38,0.9721938723887169
4202.28,0.9798026104629258
4203.18,0.9807205335872106
4204.08,0.9846930052484023
4204.98,0.9905930617747313
4205.88,0.9969077276977183
4206.79,0.9963268159622019
4207.69,1.0026427323628684
4208.59,1.0156513746830502
4209.49,1.0195534316629669
4210.39,1.0210328331392529
4211.29,1.0265501115657012
4212.19,1.0236010538400828
4213.09,1.022996535631223
4213.99,1.0179896262423507
4214.89,1.0082794226259848
4215.79,1.001464799151506
4216.69,0.9968478636045087
4217.59,0.9992329131398532
4218.49,1.0063590546015242
4219.39,1.005941627793409
4220.29,1.0128328864014742
4221.19,1.0179198915355874
4222.09,1.0171565892647083
4222.99,1.0056777566005017
4223.89,0.988456593805627
4224.79,0.9738122624228123
4225.69,0.9515443481769159
4226.59,0.937555425120052
4227.49,0.929166384198055
4228.39,0.9328896568545925
4229.29,0.9504737470925224
4230.19,0.9691703465871411
4231.09,0.9897758989553639
4231.99,0.9920060226740137
4232.89,1.0056683003382207
4233.79,1.0046315453440084
4234.69,1.0027306623825132
4235.59,0.9958879223854379
4236.49,0.9961599715377266
4237.39,0.9962050577910596
4238.29,0.9973023696583425
4239.19,0.9974022045609725
4240.09,1.0074745584208
4240.99,1.0129057367502197
4241.89,1.0168020384848508
4242.79,1.023693893929728
4243.69,1.0265451395258036
4244.59,1.0309202756139761
4245.5,1.0243240830481848
4246.4,1.023753032588935
4247.3,1.0098967903868306
4248.2,1.0050325798029827
4249.1,1.0031702813116807
4250.0,0.9951199882427835
4250.9,0.999765538660065
4251.8,1.0015659297338337
4252.7,1.0087257495976658
4253.6,1.0154199080605886
4254.5,1.020735792552605
4255.4,1.0256628267101084
4256.3,1.028674105772651
4257.2,1.0323924591329419
4258.1,1.0279093260955985
4259.0,1.024431321201005
4259.9,1.022563644225127
4260.8,1.021996783081827
4261.7,1.0263843918280333
4262.6,1.032281323459829
4263.5,1.0386619241557458
4264.4,1.0501986526312597
4265.3,1.0589788874300838
4266.2,1.0612870702185122
4267.1,1.060590682744159
4268.0,1.0531664442799913
4268.9,1.043814270164252
4269.8,1.0322357920217862
4270.7,1.0167501474561604
4271.6,1.0050309542902967
4272.5,0.991620292286995
4273.4,0.9882861293449373
4274.3,0.9935734095060307
4275.2,0.9954710764123184
4276.1,1.0056186020502456
4277.0,1.0220353757046219
4277.9,1.028051854815441
4278.8,1.0367877378012864
4279.7,1.0391815193408707
4280.6,1.0432323437862172
4281.5,1.0388683474715363
4282.4,1.0298692958273208
4283.31,1.0295693367625751
4284.21,1.0263519642509984
4285.11,1.0212962141623532
4286.01,1.0121351349685819
4286.91,1.004020190458313
4287.81,0.9963672110333829
4288.71,0.9875483493429231
4289.61,0.9817465760064708
4290.51,0.9728081591887908
4291.41,0.9705967588856207
4292.31,0.9808650263230514
4293.21,0.9808353880598831
4294.11,0.987276224498778
4295.01,0.989094564597021
4295.91,0.9898160963598419
4296.81,0.9818538598761074
4297.71,0.9648402413204653
4298.61,0.9498577281824369
4299.51,0.9345975313036338
4300.41,0.916360008876265
4301.31,0.9069809111862467
4302.21,0.8972566845782269
4303.11,0.8956369483948797
4304.01,0.8999573679468437
4304.91,0.9010154778228315
4305.81,0.9078049415267536
4306.71,0.9065313424265218
4307.61,0.9018654459654354
4308.51,0.9006150627175376
4309.41,0.9004528331219038
4310.31,0.9058959123395169
4311.21,0.9133339267616124
4312.11,0.9272910535889082
4313.01,0.9423684728893571
4313.91,0.9582751222747807
4314.81,0.9783060740230604
4315.71,1.0004980457536574
4316.61,1.024919982553527
4317.51,1.0473725861293084
4318.41,1.061720326626809
4319.31,1.0703804396460743
4320.21,1.0719899487448221
4321.12,1.0652961843045663
4322.02,1.04934885678755
4322.92,1.0355902533531376
4323.82,1.015211077133754
4324.72,0.9951123515199412
4325.62,0.9885165029393552
4326.52,0.9768388632719456
4327.42,0.980176000029269
4328.32,0.985098886613196
4329.22,0.9964381717837468
4330.12,1.0056310650572773
4331.02,1.0103907392669875
4331.92,1.0102833793940587
4332.82,1.0092055612190662
4333.72,0.9984126757234775
4334.62,0.9825471133597702
4335.52,0.9551884282868801
4336.42,0.924462666183408
4337.32,0.8815470681027567
4338.22,0.8376405141818424
4339.12,0.7951525070942597
4340.02,0.7605029619857886
4340.92,0.7353161136036691
4341.82,0.736884739024089
4342.72,0.7483843721246295
4343.62,0.7756217957526502
4344.52,0.8110605537566186
4345.42,0.8576305419701412
4346.32,0.8925348499500501
4347.22,0.9257207506635918
4348.12,0.9516502072900561
4349.02,0.9635491774954321
4349.92,0.9700746334938556
4350.82,0.980307234973459
