wave,flux
3700.85,0.008976402837063179
3701.75,0.008906050559913763
3702.65,0.008652553537277586
3703.55,0.008178447528007058
3704.45,0.007665450970610646
3705.35,0.0071475326587243935
3706.25,0.006754827926092299
3707.15,0.006550382217829795
3708.05,0.006579887825055485
3708.96,0.006852118107664091
3709.86,0.007311457187356241
3710.76,0.007966547843451867
3711.66,0.008764247640402234
3712.56,0.009590352429678057
3713.46,0.010294799837503496
3714.36,0.010806243628951433
3715.26,0.01095992081416408
3716.16,0.010853160352017622
3717.06,0.010382096391319201
3717.96,0.009640567842802166
3718.86,0.008753556996414879
3719.76,0.007901058880095282
3720.66,0.007216229694104811
3721.56,0.006861542081536185
3722.46,0.006918535045621463
3723.36,0.007500130777198702
3724.26,0.008251924806843313
3725.16,0.00903531565599413
3726.06,0.009700252705986085
3726.96,0.010127471357378976
3727.86,0.01029858204208687
3728.76,0.010387328702325234
3729.66,0.010357523400090017
3730.56,0.010206766495246988
3731.46,0.009822027926409514
3732.36,0.009244548119061438
3733.26,0.00847804568696937
3734.16,0.007701512949205711
3735.06,0.007053272720778989
3735.96,0.006836662912193307
3736.86,0.006978454253710823
3737.76,0.007530794625233462
3738.66,0.008489658874974883
3739.56,0.009603638673680588
3740.46,0.010617700054984526
3741.36,0.011316490007666805
3742.26,0.011587416324703044
3743.16,0.011340637328243927
3744.06,0.010833866589841997
3744.96,0.010082094724974918
3745.86,0.009394226268667082
3746.76,0.008877326134647767
3747.67,0.008548930679446648
3748.57,0.008406038005494285
3749.47,0.008612238120587772
3750.37,0.009344643172815609
3751.27,0.010461462394784968
3752.17,0.011907696619534601
3753.07,0.01350708105344494
3753.97,0.014897534428167042
3754.87,0.015969832945834428
3755.77,0.016520571636231197
3756.67,0.016319654932786445
3757.57,0.01572016605766517
3758.47,0.014969812880289575
3759.37,0.01434936654412347
3760.27,0.014192087256151849
3761.17,0.014451521591083913
3762.07,0.01479624724071545
3762.97,0.01526956988324937
3763.87,0.01563411064304525
3764.77,0.015886400702166386
3765.67,0.016145676414529946
3766.57,0.016489434040760986
3767.47,0.016991957547477513
3768.37,0.017624092729196142
3769.27,0.018435759287390864
3770.17,0.01943868038089193
3771.07,0.020568904559860744
3771.97,0.02165618404946127
3772.87,0.022663770696504163
3773.77,0.023669489747285728
3774.67,0.024274637308830584
3775.57,0.024858759020530686
3776.47,0.025279532918741625
3777.37,0.025818610871521992
3778.27,0.026343667076642978
3779.17,0.027021970552409257
3780.07,0.0279769403244557
3780.97,0.028827953851039513
3781.87,0.02973582784749304
3782.77,0.03035316061319527
3783.67,0.030692735139710305
3784.57,0.03041134157675642
3785.47,0.029667464191357688
3786.38,0.028478222500641755
3787.28,0.0271990660031455
3788.18,0.02589856578111652
3789.08,0.02530019591429625
3789.98,0.025133437379052315
3790.88,0.025198378971848318
3791.78,0.02581124070141614
3792.68,0.0261048045517182
3793.58,0.026301357385303068
3794.48,0.026087879015506257
3795.38,0.02558781239152096
3796.28,0.025320397402671307
3797.18,0.02504904706184942
3798.08,0.02497618597781235
3798.98,0.025493770397645634
3799.88,0.026564825487443097
3800.78,0.02843024780061614
3801.68,0.03076623351935272
3802.58,0.033311734520506814
3803.48,0.03555078391672879
3804.38,0.03745789492921078
3805.28,0.03856293284058027
3806.18,0.03901325597123697
3807.08,0.03930719287139459
3807.98,0.03954857219922158
3808.88,0.04018260695390977
3809.78,0.04088272526739317
3810.68,0.041679131649439545
3811.58,0.04156550679659285
3812.48,0.04107696932916909
3813.38,0.03959888008835165
3814.28,0.03762548370172523
3815.18,0.03597484994092652
3816.08,0.034662856485406394
3816.98,0.034012275198057454
3817.88,0.03361561776580545
3818.78,0.03343799334747104
3819.68,0.033193704657607036
3820.58,0.03278800816420266
3821.48,0.03231684012805601
3822.38,0.03237282581595254
3823.28,0.03206668741661233
3824.18,0.0317921487344307
3825.09,0.03115446632208153
3825.99,0.030471315332641455
3826.89,0.02979205161236654
3827.79,0.02968322386311345
3828.69,0.03014328011372034
3829.59,0.030879280606108044
3830.49,0.031616141570037025
3831.39,0.03212108110189302
3832.29,0.03218812484664477
3833.19,0.03218778178342427
3834.09,0.03229518122569973
3834.99,0.03275390802580112
3835.89,0.03357780478568415
3836.79,0.034413043680682036
3837.69,0.03521804900885341
3838.59,0.03567038353842152
3839.49,0.036595042280384
3840.39,0.03833814640200295
3841.29,0.04100698350599459
3842.19,0.04534808128459132
3843.09,0.05034125007719819
3843.99,0.05502724571433083
3844.89,0.0591110394189654
3845.79,0.06243918166766282
3846.69,0.06488180725717745
3847.59,0.0667959292639568
3848.49,0.06724678962741035
3849.39,0.06745669368248075
3850.29,0.06781324734447824
3851.19,0.06823325770583634
3852.09,0.06902476428749085
3852.99,0.06993923702198884
3853.89,0.0703461797390019
3854.79,0.07008177625444567
3855.69,0.06905366450964229
3856.59,0.06729100871363056
3857.49,0.06527462034124774
3858.39,0.06340825765318021
3859.29,0.06265195442776414
3860.19,0.06281496176902157
3861.09,0.06570862119457771
3861.99,0.0707923571269482
3862.9,0.0762701643736563
3863.8,0.08196027594828488
3864.7,0.08707183890468836
3865.6,0.08952255776707219
3866.5,0.09131563576630614
3867.4,0.09134046342564588
3868.3,0.09100809174488858
3869.2,0.09001143508131217
3870.1,0.08868700489530777
3871.0,0.08705487266088245
3871.9,0.08661589340770856
3872.8,0.0883927665664937
3873.7,0.09179976559761452
3874.6,0.0966554310391108
3875.5,0.10169880349813554
3876.4,0.10618499163539308
3877.3,0.10775854501569299
3878.2,0.10758534223493343
3879.1,0.1062039007364211
3880.0,0.10616713346372622
3880.9,0.10679256136948025
3881.8,0.10915436693510787
3882.7,0.11207299553257233
3883.6,0.1149545625991534
3884.5,0.11746425772287432
3885.4,0.11895891754223635
3886.3,0.11844062274733592
3887.2,0.11932736282279457
3888.1,0.12118997489488909
3889.0,0.12526880097411772
3889.9,0.1334697763385767
3890.8,0.14353497642746585
3891.7,0.1557315353417996
3892.6,0.16632560540274127
3893.5,0.1749779316187278
3894.4,0.1814679295056404
3895.3,0.18543190662770387
3896.2,0.18824170327081802
3897.1,0.19172672990010234
3898.0,0.19473958125231103
3898.9,0.19734916871729968
3899.8,0.19963528654798032
3900.7,0.20284001230847087
3901.6,0.2050249509041488
3902.51,0.20624618594364685
3903.41,0.2069180691749742
3904.31,0.20723464585450554
3905.21,0.20912983133071236
3906.11,0.21223653485841837
3907.01,0.21799589854287785
3907.91,0.23050747282718817
3908.81,0.24325289937382344
3909.71,0.2595291122566796
3910.61,0.27093220662612383
3911.51,0.28430324873371915
3912.41,0.2929704085070043
3913.31,0.29922925984655185
3914.21,0.30324721731082327
3915.11,0.30579295416768076
3916.01,0.3056949846565371
3916.91,0.30378767017521013
3917.81,0.2984328478532021
3918.71,0.2902562627131833
3919.61,0.2832392747605619
3920.51,0.2747349663677816
3921.41,0.2671717939062431
3922.31,0.26360353893648764
3923.21,0.26211859610064325
3924.11,0.2612986647167451
3925.01,0.2608343928957311
3925.91,0.25635718589528134
3926.81,0.24688324859028957
3927.71,0.2310779352734469
3928.61,0.2109697715965048
3929.51,0.19024090151316758
3930.41,0.16856482159717082
3931.31,0.14854968737075414
3932.21,0.13236953966250936
3933.11,0.12036152681268544
3934.01,0.11444622087108151
3934.91,0.11628310587360491
3935.81,0.12547523763446097
3936.71,0.14224131453893848
3937.61,0.16512563280132694
3938.51,0.1935796119597763
3939.42,0.2227022301881031
3940.32,0.24935942216724852
3941.22,0.2720648592181602
3942.12,0.29127254745899356
3943.02,0.3066822375588245
3943.92,0.3213822666624994
3944.82,0.3388543341485819
3945.72,0.36082449322483917
3946.62,0.38471182167146056
3947.52,0.4113510510330345
3948.42,0.43701089730277365
3949.32,0.4601309916981843
3950.22,0.4799994528124031
3951.12,0.49840099827573225
3952.02,0.5136399337107589
3952.92,0.5254281082207166
3953.82,0.5316979903688392
3954.72,0.536497469861608
3955.62,0.5421426210681745
3956.52,0.5445279776446442
3957.42,0.5385728466750124
3958.32,0.5308017371343123
3959.22,0.5212715280273877
3960.12,0.4994138013950035
3961.02,0.47288050592586534
3961.92,0.43868968021862637
3962.82,0.40364462304134474
3963.72,0.3709810394524626
3964.62,0.3374707761919289
3965.52,0.30581209701783485
3966.42,0.2767349983012523
3967.32,0.24738561468939746
3968.22,0.22591049838107244
3969.12,0.21301181594234608
3970.02,0.2143379380460468
3970.92,0.2311253197042572
3971.82,0.26075629877739104
3972.72,0.30181125363977807
3973.62,0.34963917118695187
3974.52,0.4024982760870341
3975.42,0.4538032075928613
3976.32,0.5063707236686219
3977.22,0.5587912799845124
3978.13,0.6095799090405718
3979.03,0.6544403180338276
3979.93,0.6933517320566644
3980.83,0.7198228462362218
3981.73,0.7425230071552487
3982.63,0.7585318324160039
3983.53,0.7692696284045917
3984.43,0.7762287056942795
3985.33,0.7924656428707478
3986.23,0.8035769998250036
3987.13,0.8198794601120094
3988.03,0.8330853032966924
3988.93,0.8536145239667303
3989.83,0.8650504415714518
3990.73,0.877994115430017
3991.63,0.8916279369175794
3992.53,0.8974805406302278
3993.43,0.9076658623688559
3994.33,0.9108677043639751
3995.23,0.9050498070007497
3996.13,0.9031740626446462
3997.03,0.8958836629323339
3997.93,0.8998616142318012
3998.83,0.906289009227736
3999.73,0.9270776663550279
4000.63,0.9489564883204961
4001.53,0.9671045038508449
4002.43,0.980209316289821
4003.33,0.9836535280809192
4004.23,0.9653506001626838
4005.13,0.9485062024285086
4006.03,0.9300062367489117
4006.93,0.9245280870159084
4007.83,0.9290119392431301
4008.73,0.945648343671762
4009.63,0.9680038493994012
4010.53,0.9901528386711206
4011.43,1.0156298231887197
4012.33,1.0304547588116275
4013.23,1.0405567769302146
4014.13,1.0477870794077837
4015.03,1.0527903778931509
4015.93,1.059215332492371
4016.84,1.0576028477076151
4017.74,1.0599281935865876
4018.64,1.066875615964924
4019.54,1.067544608534158
4020.44,1.0707723959905369
4021.34,1.0738342464772586
4022.24,1.0755058270097733
4023.14,1.0693733893751123
4024.04,1.064486425450201
4024.94,1.0664194109195801
4025.84,1.0716887972594082
4026.74,1.0785040361202554
4027.64,1.081671213754494
4028.54,1.074196940303948
4029.44,1.05324433778306
4030.34,1.0244845501242397
4031.24,0.9815896473086265
4032.14,0.9466822475879858
4033.04,0.91652701641437
4033.94,0.907417645223102
4034.84,0.9222025620444015
4035.74,0.9490628148463315
4036.64,0.9920780321966135
4037.54,1.0331452571780328
4038.44,1.0758493940884686
4039.34,1.0994314830510656
4040.24,1.1002330441798953
4041.14,1.0977948812470435
4042.04,1.0747853277700583
4042.94,1.0353798424620264
4043.84,0.9898665077157814
4044.74,0.9388706614941456
4045.64,0.8965011004318011
4046.54,0.8760076711590548
4047.44,0.886023591469393
4048.34,0.9136174066788273
4049.24,0.9560173319620103
4050.14,1.0044191835610103
4051.04,1.0423421360054739
4051.94,1.059508666535252
4052.84,1.0614812524747643
4053.74,1.0533403562999792
4054.65,1.03108408739459
4055.55,1.0147373708284542
4056.45,0.9905689020173222
4057.35,0.976120339240263
4058.25,0.9668073773720015
4059.15,0.9611305132759899
4060.05,0.9588960061220108
4060.95,0.9555441032287578
4061.85,0.9403089076353256
4062.75,0.921438231427712
4063.65,0.8978110972963937
4064.55,0.88743584997343
4065.45,0.8820913248379563
4066.35,0.8951564288050409
4067.25,0.9146588095001962
4068.15,0.9396970900980688
4069.05,0.9633031162639963
4069.95,0.9727695436968774
4070.85,0.9752223194671671
4071.75,0.9668138503507789
4072.65,0.9591571578938372
4073.55,0.9552833608538133
4074.45,0.9525214993079745
4075.35,0.9456394990233312
4076.25,0.938039695395723
4077.15,0.9263344722650134
4078.05,0.9241724415646748
4078.95,0.9381185326503323
4079.85,0.9567122026159106
4080.75,0.9894426947170372
4081.65,1.0163834091638406
4082.55,1.0367268009936494
4083.45,1.0483920808087612
4084.35,1.0549500335703623
4085.25,1.0619636027922605
4086.15,1.0728888609838667
4087.05,1.0891730326516202
4087.95,1.108897996162275
4088.85,1.1360528956133997
4089.75,1.1445883115573405
4090.65,1.15013336283027
4091.55,1.1390131583280965
4092.45,1.1292773496166457
4093.36,1.1110522377964758
4094.26,1.0916929278745116
4095.16,1.0665833942721372
4096.06,1.0313959896642277
4096.96,1.0055597613101064
4097.86,0.9778684430609894
4098.76,0.9465197387771302
4099.66,0.9190913822923523
4100.56,0.8922964394391768
4101.46,0.8745371122231553
4102.36,0.8678527254070233
4103.26,0.868844051755896
4104.16,0.8857500979872183
4105.06,0.9143604911101567
4105.96,0.952819605596732
4106.86,0.9833543042053521
4107.76,1.007682033785775
4108.66,1.0162041119608145
4109.56,1.0239262374824531
4110.46,1.0251971123644776
4111.36,1.023700707355035
4112.26,1.0215912153125173
4113.16,1.0340177414185494
4114.06,1.045375532927479
4114.96,1.0549493384735606
4115.86,1.0652487801524033
4116.76,1.0677671808673277
4117.66,1.0651065296558853
4118.56,1.054316586840868
4119.46,1.0437238465471201
4120.36,1.032880653794028
4121.26,1.024022507837704
4122.16,1.0268966963206978
4123.06,1.0281735102521343
4123.96,1.0385829133898616
4124.86,1.043012808946693
4125.76,1.04271722768849
4126.66,1.0386805069931726
4127.56,1.0345680168625384
4128.46,1.0192980974380494
4129.36,1.0055616354110601
4130.26,0.9848690691840011
4131.17,0.9615983514511762
4132.06,0.9446847682539743
4132.97,0.9346619618694915
4133.87,0.9302791454465891
4134.77,0.9392191892833573
4135.67,0.9624659305208646
4136.57,0.9874214432206749
4137.47,1.0170355935692794
4138.37,1.0364760983916705
4139.27,1.044848162000323
4140.17,1.0442054139322956
4141.07,1.0278422844398387
4141.97,0.9991511753508805
4142.87,0.9642961346898
4143.77,0.9406183706084286
4144.67,0.9187322311119732
4145.57,0.9260911333792662
4146.47,0.9371269586893275
4147.37,0.9529147078718451
4148.27,0.9678202254235254
4149.17,0.9782645953526908
4150.07,0.981828942532657
4150.97,0.9795840673892067
4151.87,0.9726008762477562
4152.77,0.9646370167099544
4153.67,0.9633044498770393
4154.57,0.9549010553602933
4155.47,0.9565354782867762
4156.37,0.9553984043297473
4157.27,0.9671742613485179
4158.17,0.9801266236386007
4159.07,1.0010720297602402
4159.97,1.0228399511925719
4160.87,1.044354722864469
4161.77,1.0612186186582853
4162.67,1.0745051984534375
4163.57,1.0808001122799882
4164.47,1.07821106950722
4165.37,1.0662820361771992
4166.27,1.0539914141650877
4167.17,1.0419668681769703
4168.07,1.0266128667040781
4168.98,1.0165629250427368
4169.88,1.0029076815477922
4170.78,0.9958170435973945
4171.68,0.9782825961332313
4172.58,0.9603798506126701
4173.48,0.940126754808067
4174.38,0.9313051322526932
4175.28,0.9237413354244218
4176.18,0.9262704149120246
4177.08,0.9383607982333683
4177.98,0.9495565506300866
4178.88,0.9635566043850997
4179.78,0.9667345530592276
4180.68,0.9802970688841249
4181.58,0.9816753102062636
4182.48,0.9864865966989368
4183.38,0.9952760293761383
4184.28,0.9939459519827113
4185.18,1.0028308253912013
4186.08,1.0033988269064276
4186.98,1.001975008886735
4187.88,0.993308320735606
4188.78,0.9972174767291977
4189.68,0.9960556078056239
4190.58,1.0082050876339272
4191.48,1.021717339713959
4192.38,1.0306121727313409
4193.28,1.0413217880985908
4194.18,1.0400639898131006
4195.08,1.0288242271601207
4195.98,1.0102254352812106
4196.88,0.9830827213248101
4197.78,0.961004495812818
4198.68,0.9388200853502136
4199.58,0.9255197967624197
4200.48,0.9206564346380725
4201.38,0.9186024149086084
4202.28,0.9307198393948618
4203.18,0.9432921308215334
4204.08,0.9656837818238081
4204.98,0.991171482878813
4205.88,1.017300079930131
4206.79,1.047347023202593
4207.69,1.0710266395241481
4208.59,1.0866076812476424
4209.49,1.094084958806655
4210.39,1.0977329101322721
4211.29,1.09490848854212
4212.19,1.0907084237673637
4213.09,1.080669054738287
4213.99,1.0643319922490964
4214.89,1.0559082274087794
4215.79,1.0451955027484734
4216.69,1.0485971461243317
4217.59,1.054450797503826
4218.49,1.0730581914970618
4219.39,1.0962168678941786
4220.29,1.1101615408168983
4221.19,1.1163474562525348
4222.09,1.0972662867948757
4222.99,1.0578383402047156
4223.89,1.0021646359399614
4224.79,0.9371751986379064
4225.69,0.8725833662801592
4226.59,0.8265566818574154
4227.49,0.8032830267759908
4228.39,0.8180739037318987
4229.29,0.8557628207290928
4230.19,0.9087140522710694
4231.09,0.9624441284619059
4231.99,1.0113532371927902
4232.89,1.0368130451052433
4233.79,1.0455742772377357
4234.69,1.0383691424315733
4235.59,1.0286010494209419
4236.49,1.018276167153259
4237.39,1.0107662050859143
4238.29,1.0184622307059807
4239.19,1.025050243008592
4240.09,1.0428265925283273
4240.99,1.0619502511580488
4241.89,1.0901589272748207
4242.79,1.1127900303525493
4243.69,1.135943451652338
4244.59,1.1481529837434414
4245.5,1.1548803026408312
4246.4,1.1438578452101322
4247.3,1.1241878726525627
4248.2,1.0952424448996132
4249.1,1.0600285710590938
4250.0,1.0272744435710668
4250.9,1.0088759926594832
4251.8,0.9977386678964679
4252.7,0.991949816824807
4253.6,0.9950427094604641
4254.5,0.9990261660967561
4255.4,1.010970867649027
4256.3,1.018361361330382
4257.2,1.0263656341590373
4258.1,1.0255668727030984
4259.0,1.0186906791919654
4259.9,1.007554927487573
4260.8,1.0065422699266318
4261.7,1.0163614851951759
4262.6,1.0369963637040323
4263.5,1.0677983035332512
4264.4,1.0999972514222869
4265.3,1.1265549093517895
4266.2,1.1394567587997353
4267.1,1.1410672608273873
4268.0,1.1176291854155649
4268.9,1.0810651540786325
4269.8,1.0274429169900519
4270.7,0.9780056736472919
4271.6,0.9289760458848789
4272.5,0.8884957808745242
4273.4,0.8683100034103063
4274.3,0.8702795726337649
4275.2,0.8898990260485686
4276.1,0.923254692739417
4277.0,0.9655312628902514
4277.9,1.0046937959457811
4278.8,1.032262485824481
4279.7,1.0542418134200962
4280.6,1.0634193610200005
4281.5,1.0597356335538652
4282.4,1.0523922847987077
4283.31,1.049751736096147
4284.21,1.0380425306206025
4285.11,1.0290917993407227
4286.01,1.0155271033191944
4286.91,0.9953213709202648
4287.81,0.9723021237135082
4288.71,0.9509915771258881
4289.61,0.9293523723116472
4290.51,0.9173705341435953
4291.41,0.9150193357617314
4292.31,0.9226256390474712
4293.21,0.9333766534871794
4294.11,0.9474397131907383
4295.01,0.9474810373550439
4295.91,0.9440836722658855
4296.81,0.9230411333675775
4297.71,0.8924728256218627
4298.61,0.8509552235662828
4299.51,0.8109120045790386
4300.41,0.7747960374240652
4301.31,0.7482011775025134
4302.21,0.7325810424371936
4303.11,0.7258969006809446
4304.01,0.7227251494589061
4304.91,0.7182821916810569
4305.81,0.7140225264251844
4306.71,0.7029467014966383
4307.61,0.6886732096238243
4308.51,0.6806975647855239
4309.41,0.6789549895885817
4310.31,0.6955528547757699
4311.21,0.720302765103804
4312.11,0.7675061168825796
4313.01,0.8218645526044575
4313.91,0.8885990538288331
4314.81,0.9614761452258882
4315.71,1.0289346920120994
4316.61,1.1055442826594126
4317.51,1.1616040571412867
4318.41,1.1982986268469107
4319.31,1.2201355437279016
4320.21,1.211330160778543
4321.12,1.190525013560285
4322.02,1.1448912201039352
4322.92,1.0947835364252987
4323.82,1.0308183382987717
4324.72,0.9754715970329416
4325.62,0.9418075547591568
4326.52,0.9311743996105383
4327.42,0.9468501669505759
4328.32,0.9818276899043736
4329.22,1.0382123243525354
4330.12,1.0892292031307587
4331.02,1.132217157173093
4331.92,1.1584225545813531
4332.82,1.1771898630251616
4333.72,1.1915542536474426
4334.62,1.1897017364292366
4335.52,1.166707356113471
4336.42,1.1354592218342745
4337.32,1.0878619585836233
4338.22,1.0408892771322724
4339.12,0.9905682896975576
4340.02,0.9493076569119296
4340.92,0.9261424512274951
4341.82,0.9259370630798224
4342.72,0.9457937238556492
4343.62,0.9714153549423387
4344.52,1.0155691939447564
4345.42,1.048365979307214
4346.32,1.0821197941277463
4347.22,1.1093152656042942
4348.12,1.1245194658353004
4349.02,1.1272170018221797
4349.92,1.1123440387282681
4350.82,1.1004298901602505
4351.72,1.075418498098995
4352.62,1.0496674601267941
4353.52,1.0379628488027077
4354.42,1.0312874606560143
4355.32,1.0390407615390524
4356.22,1.0496585325986314
4357.12,1.0705125288303534
4358.02,1.0903340910378065
4358.92,1.0939222037454728
4359.83,1.1025078010584737
