wave,flux
3700.85,-0.04859704559233157
3701.75,-0.049031286182131865
3702.65,-0.04837131984255625
3703.55,-0.04678238988631027
3704.45,-0.0446616120611924
3705.35,-0.04295793695730877
3706.25,-0.04189447552860547
3707.15,-0.04167003911798307
3708.05,-0.0425484343934353
3708.96,-0.044265532441767605
3709.86,-0.04680023412523237
3710.76,-0.049622432126954975
3711.66,-0.053679389941157986
3712.56,-0.0579030129871745
3713.46,-0.06216085725870541
3714.36,-0.06567773817172204
3715.26,-0.06816199070595073
3716.16,-0.06931705242299922
3717.06,-0.06882290328536322
3717.96,-0.06695390406479616
3718.86,-0.06375940961171662
3719.76,-0.05967484301683128
3720.66,-0.056359481807215686
3721.56,-0.05446037188206448
3722.46,-0.0549453400263956
3723.36,-0.05845802726667533
3724.26,-0.06349961321571851
3725.16,-0.06929384424063453
3726.06,-0.07480658291948405
3726.96,-0.07854349301482853
3727.86,-0.08135153240034153
3728.76,-0.08304091973805143
3729.66,-0.08423563707151807
3730.56,-0.08415528253637795
3731.46,-0.08321631331873375
3732.36,-0.08006151517171162
3733.26,-0.07629119075583674
3734.16,-0.07146248437365267
3735.06,-0.06813241597019876
3735.96,-0.06731153176190369
3736.86,-0.0696469664363806
3737.76,-0.0756390724984495
3738.66,-0.08468249052126747
3739.56,-0.09507699074927324
3740.46,-0.10440342598937788
3741.36,-0.11255414232759982
3742.26,-0.11694667927060204
3743.16,-0.11762304602538332
3744.06,-0.11616534576811671
3744.96,-0.11229559155492859
3745.86,-0.10920013217859675
3746.76,-0.10573748102934095
3747.67,-0.10354597329779301
3748.57,-0.10231859599298979
3749.47,-0.1038363221983729
3750.37,-0.11008299182127275
3751.27,-0.1212615621978243
3752.17,-0.13613682576170955
3753.07,-0.15473524543910536
3753.97,-0.172540208473064
3754.87,-0.18774802234247878
3755.77,-0.19920874036575437
3756.67,-0.20452777016613777
3757.57,-0.2033167279853758
3758.47,-0.20161717818040412
3759.37,-0.20138226432855097
3760.27,-0.20383005098991408
3761.17,-0.2111295609243287
3762.07,-0.2221787200414047
3762.97,-0.23526346958165265
3763.87,-0.24719443462864998
3764.77,-0.2583983817742669
3765.67,-0.2686831142889661
3766.57,-0.2783303367465365
3767.47,-0.2866527272161294
3768.37,-0.2979479768780742
3769.27,-0.31156917353476654
3770.17,-0.32815378750131735
3771.07,-0.3487095041403475
3771.97,-0.3750576510325468
3772.87,-0.4044405825291828
3773.77,-0.43747390150696774
3774.67,-0.47113441056631805
3775.57,-0.5073928242559108
3776.47,-0.5400954583695703
3777.37,-0.5782695890606615
3778.27,-0.6191189909319051
3779.17,-0.6691002951999288
3780.07,-0.7217862049048336
3780.97,-0.7789855200189255
3781.87,-0.8478928907333579
3782.77,-0.9150416618520645
3783.67,-0.975845455375834
3784.57,-1.0364346221554765
3785.47,-1.0917122043891472
3786.38,-1.1435876564652427
3787.28,-1.1995847593317073
3788.18,-1.268178713685498
3789.08,-1.3610695939985673
3789.98,-1.498396119994209
3790.88,-1.6819044744628187
3791.78,-1.9336056902205507
3792.68,-2.239909962530374
3793.58,-2.6619899331657764
3794.48,-3.2368519589704405
3795.38,-4.124966573965427
3796.28,-5.812478218536577
3797.18,-10.098504520694375
3798.08,-46.64723734262107
3798.98,17.854628250353688
3799.88,7.792528856913665
3800.78,5.2635258392037425
3801.68,4.165040281733033
3802.58,3.5498007817686186
3803.48,3.1129233146282176
3804.38,2.7835983706099445
3805.28,2.4991712915476203
3806.18,2.2529006116142796
3807.08,2.0360900355518194
3807.98,1.8741060852391995
3808.88,1.7361216180552232
3809.78,1.6304649225016115
3810.68,1.5328942206003193
3811.58,1.439314395643629
3812.48,1.3300582712049764
3813.38,1.2267060129464933
3814.28,1.1132733241340387
3815.18,1.0263323566565226
3816.08,0.9542192649757638
3816.98,0.8966057555440068
3817.88,0.8605812602820436
3818.78,0.8268260634621317
3819.68,0.7872483394578976
3820.58,0.7534893019223367
3821.48,0.7208453400270042
3822.38,0.6923367085876586
3823.28,0.6650260270889926
3824.18,0.6375987872100332
3825.09,0.6047688016793643
3825.99,0.5698738525348293
3826.89,0.5404392838316368
3827.79,0.5203031398180942
3828.69,0.5030081254097714
3829.59,0.4938613614773334
3830.49,0.48062444065553067
3831.39,0.4644787811059444
3832.29,0.44727155425943527
3833.19,0.4239597470860068
3834.09,0.40463144024021724
3834.99,0.39124841125511745
3835.89,0.3856369062244421
3836.79,0.38211865331764816
3837.69,0.3838447501300771
3838.59,0.38418176849113245
3839.49,0.3920216152393594
3840.39,0.40602340983323454
3841.29,0.4266580925819702
3842.19,0.4541083009907625
3843.09,0.48621246358517584
3843.99,0.514256903926136
3844.89,0.5366773867770556
3845.79,0.5540608985848092
3846.69,0.5617015903701512
3847.59,0.5644481399071993
3848.49,0.5614991615290817
3849.39,0.5580058384604136
3850.29,0.5515781729440925
3851.19,0.5494001694798055
3852.09,0.5488763805214446
3852.99,0.546708819951826
3853.89,0.5393227477440973
3854.79,0.5328469195639255
3855.69,0.518784283811209
3856.59,0.5023729310635818
3857.49,0.4858978319547351
3858.39,0.46771413012806
3859.29,0.4573663070618074
3860.19,0.4532954306189525
3861.09,0.45963134593074007
3861.99,0.4730979274163064
3862.9,0.494546401877126
3863.8,0.5133703321023256
3864.7,0.5269594201178549
3865.6,0.5321878047347708
3866.5,0.5321877541232463
3867.4,0.5272011393719496
3868.3,0.521335392324283
3869.2,0.5097824976810731
3870.1,0.49836839380437087
3871.0,0.4842722965491074
3871.9,0.47163855023765694
3872.8,0.4661833532911763
3873.7,0.46666477967340547
3874.6,0.47256840783312165
3875.5,0.4802909281642592
3876.4,0.48814131492798823
3877.3,0.4872718924073179
3878.2,0.4826813551574121
3879.1,0.4762365212891969
3880.0,0.4716399627982996
3880.9,0.46777407031894824
3881.8,0.4679158467005823
3882.7,0.468176397884423
3883.6,0.4688073320064987
3884.5,0.46063640020739477
3885.4,0.4513364827579271
3886.3,0.4372105166889991
3887.2,0.42490286468082317
3888.1,0.41601062037501635
3889.0,0.4136285039433529
3889.9,0.4230868711629356
3890.8,0.439264706868644
3891.7,0.463505385210573
3892.6,0.48628158898387747
3893.5,0.5087234473799283
3894.4,0.522039943682083
3895.3,0.5338195853039303
3896.2,0.5409666023921887
3897.1,0.5471762964277103
3898.0,0.551741733944531
3898.9,0.5583881183742757
3899.8,0.5604569829680387
3900.7,0.5651610414845456
3901.6,0.5676779778729341
3902.51,0.5683425427610979
3903.41,0.56173069706428
3904.31,0.5571719094467162
3905.21,0.5539272831750803
3906.11,0.5530963101580536
3907.01,0.5583930432160891
3907.91,0.5745519011309901
3908.81,0.5956240292104021
3909.71,0.614271466159023
3910.61,0.6356599093210235
3911.51,0.6501046523646822
3912.41,0.6577436522966458
3913.31,0.6630166143905497
3914.21,0.6611669376826224
3915.11,0.6563067818475689
3916.01,0.6488363229556323
3916.91,0.6427716333340514
3917.81,0.628504947484036
3918.71,0.6133854368397395
3919.61,0.6013985617436343
3920.51,0.5829884430879915
3921.41,0.5690855986828132
3922.31,0.5615044548083936
3923.21,0.5554271448087299
3924.11,0.5497536634861537
3925.01,0.5395079007536222
3925.91,0.5248490837533298
3926.81,0.496724358555301
3927.71,0.4646987868872427
3928.61,0.42075950890348224
3929.51,0.3760367945290248
3930.41,0.33070233587643527
3931.31,0.2873282628124262
3932.21,0.24883902126622595
3933.11,0.21945278420111056
3934.01,0.20382219603655782
3934.91,0.20176804441771565
3935.81,0.2149765644730587
3936.71,0.242848683879748
3937.61,0.2832960117457758
3938.51,0.32875018283866303
3939.42,0.3789182434448868
3940.32,0.4251621114846189
3941.22,0.4609631412571662
3942.12,0.493131243881559
3943.02,0.5128961568479122
3943.92,0.5386889862705012
3944.82,0.5569338149319464
3945.72,0.5827186353408582
3946.62,0.605391179823305
3947.52,0.6340401377001503
3948.42,0.6541629201967964
3949.32,0.676920027574137
3950.22,0.6892977396711957
3951.12,0.7050138393060292
3952.02,0.7150688683038351
3952.92,0.724201190279608
3953.82,0.7296981616703268
3954.72,0.7303048712168979
3955.62,0.729490657427296
3956.52,0.7261011559687389
3957.42,0.7226722239110549
3958.32,0.712664256680661
3959.22,0.6959387017486719
3960.12,0.6759101956421495
3961.02,0.6457887440786421
3961.92,0.6076893014744151
3962.82,0.5615563156641264
3963.72,0.5151389279246862
3964.62,0.46920315957129843
3965.52,0.4217837782990607
3966.42,0.3745414157438047
3967.32,0.3280341257565037
3968.22,0.29132535734500675
3969.12,0.2703445882136033
3970.02,0.26668841611835126
3970.92,0.2844612767419343
3971.82,0.3185153366485371
3972.72,0.3664885247910188
3973.62,0.4237216768775692
3974.52,0.48108646428070645
3975.42,0.5415063893631334
3976.32,0.5960453577922181
3977.22,0.6516088083358473
3978.13,0.6987466420877565
3979.03,0.7406303967601501
3979.93,0.7749582781423705
3980.83,0.8021048346425612
3981.73,0.8213270260338792
3982.63,0.8288829546502557
3983.53,0.8356840312161413
3984.43,0.8470808113859416
3985.33,0.8528855434002511
3986.23,0.865464116630408
3987.13,0.8793722626305316
3988.03,0.8959389899047746
3988.93,0.9026289733819542
3989.83,0.9173660411925438
3990.73,0.9249904950229353
3991.63,0.9371681410653331
3992.53,0.9448225006134933
3993.43,0.9463141959300051
3994.33,0.9444822531100526
3995.23,0.939075459008394
3996.13,0.9319954263226808
3997.03,0.9265900818480436
3997.93,0.9243058652002049
3998.83,0.931636409139357
3999.73,0.9465465435548892
4000.63,0.9616491880825
4001.53,0.9728968372515241
4002.43,0.98138573072993
4003.33,0.9837765184348477
4004.23,0.9720327256237603
4005.13,0.9588813401855665
4006.03,0.9423362032015121
4006.93,0.9379385685869848
4007.83,0.9431987877152522
4008.73,0.9550352935209516
4009.63,0.9713263609852142
4010.53,0.992808771950019
4011.43,1.00801960682289
4012.33,1.017576043653997
4013.23,1.0236582825536846
4014.13,1.030739612836247
4015.03,1.032097316217615
4015.93,1.033426300751698
4016.84,1.035073973750273
4017.74,1.0353702687399717
4018.64,1.0410089932960793
4019.54,1.0413481346527464
4020.44,1.043809479065691
4021.34,1.0430667256062538
4022.24,1.046648161179414
4023.14,1.0460954735033983
4024.04,1.0437540127428615
4024.94,1.0439787433139216
4025.84,1.0461359567587396
4026.74,1.0522352288983425
4027.64,1.061200720700943
4028.54,1.055791612888156
4029.44,1.046044700339347
4030.34,1.0207389169661305
4031.24,0.9938365245675059
4032.14,0.9656329783854761
4033.04,0.9505891651130617
4033.94,0.944541573669802
4034.84,0.9495019038947946
4035.74,0.9756152053390225
4036.64,1.0089122570198803
4037.54,1.0378260351504094
4038.44,1.0662747157397403
4039.34,1.0792154873528905
4040.24,1.0868422539532272
4041.14,1.0756366532224493
4042.04,1.0615248834121147
4042.94,1.0344215990023975
4043.84,1.0007486711677354
4044.74,0.9667780983350204
4045.64,0.9374067080410476
4046.54,0.9266772237277654
4047.44,0.930518492046207
4048.34,0.9511203691836757
4049.24,0.9837756821188637
4050.14,1.0218261901978951
4051.04,1.043616602901152
4051.94,1.049355675535625
4052.84,1.0524898320956793
4053.74,1.0400833915946317
4054.65,1.025423852089541
4055.55,1.0151094421922577
4056.45,1.000304128202914
4057.35,0.9913980520404542
4058.25,0.9862905349617201
4059.15,0.9878023833483538
4060.05,0.9860414856994539
4060.95,0.9869985843118806
4061.85,0.9776802398195278
4062.75,0.9649578955519895
4063.65,0.9473284009742973
4064.55,0.9345185760180178
4065.45,0.9313296626455998
4066.35,0.9415857172256393
4067.25,0.9548835246303204
4068.15,0.9719946642193491
4069.05,0.9886482803865171
4069.95,0.9965583911429573
4070.85,1.0025187355228633
4071.75,0.9939944163628678
4072.65,0.9899739091317131
4073.55,0.9797150260860241
4074.45,0.9794205771398078
4075.35,0.9626964027813931
4076.25,0.9509116761954258
4077.15,0.9391844494689049
4078.05,0.9319538559094473
4078.95,0.9335999767158424
4079.85,0.9510502247454349
4080.75,0.9722379299297901
4081.65,0.9913808688655669
4082.55,1.0163257785688975
4083.45,1.0252297490022095
4084.35,1.0294141435048738
4085.25,1.036861159704002
4086.15,1.0397868994974029
4087.05,1.0595565990838314
4087.95,1.0770526203396316
4088.85,1.090025223454203
4089.75,1.1025548484512655
4090.65,1.1083202865889938
4091.55,1.1034069797734096
4092.45,1.0898877419757795
4093.36,1.081783425127696
4094.26,1.0604551644688827
4095.16,1.0381477605954956
4096.06,1.0153403559568714
4096.96,0.9871172870502621
4097.86,0.9627893855427075
4098.76,0.9235626746219243
4099.66,0.893957480337962
4100.56,0.8657178938801863
4101.46,0.8316985987790609
4102.36,0.8223696918917689
4103.26,0.8244711060902274
4104.16,0.8393665610322746
4105.06,0.8707946970907903
4105.96,0.9071410812481164
4106.86,0.94236856925227
4107.76,0.966653377559538
4108.66,0.9860355121065751
4109.56,0.9932652630254655
4110.46,0.9976027667648659
4111.36,1.0056877758131029
4112.26,1.0114034786091737
4113.16,1.0208628430340738
4114.06,1.0319791429178826
4114.96,1.0456491859254107
4115.86,1.053924096407007
4116.76,1.0513246673415695
4117.66,1.0466076612477744
4118.56,1.0419487863403953
4119.46,1.0332856987246488
4120.36,1.0273747704840839
4121.26,1.0208149302418452
4122.16,1.0210160546921045
4123.06,1.0199507383037962
4123.96,1.029742569571673
4124.86,1.0324172217663883
4125.76,1.0313746141025053
4126.66,1.0330742496632561
4127.56,1.0261131924754492
4128.46,1.0178918311169745
4129.36,1.0050223484694807
4130.26,0.9924495432591444
4131.17,0.9809707920839594
4132.06,0.9627818636033729
4132.97,0.95373148417429
4133.87,0.9563135895946959
4134.77,0.9654865948731652
4135.67,0.9770159217954313
4136.57,1.000772128284591
4137.47,1.0244352546112319
4138.37,1.0337657631014283
4139.27,1.048553331612625
4140.17,1.0506137568967626
4141.07,1.0345029423130776
4141.97,1.014506890198881
4142.87,0.9960745881514793
4143.77,0.974179981814073
4144.67,0.9606565587835464
4145.57,0.9598677761020581
4146.47,0.9712935425525371
4147.37,0.9804733377415967
4148.27,0.9990957055303253
4149.17,1.0086179431590194
4150.07,1.0072593640847267
4150.97,1.0030928651895021
4151.87,0.997528035062717
4152.77,0.9964300763952321
4153.67,0.9832322323328638
4154.57,0.9799925653898255
4155.47,0.9792016505335036
4156.37,0.9823612486802403
4157.27,0.9912553371640112
4158.17,1.0025515402936704
4159.07,1.0121206447631013
4159.97,1.0273778891532583
4160.87,1.0402985242921534
4161.77,1.0506463267837303
4162.67,1.0644318016697638
4163.57,1.0615589640863419
4164.47,1.0677102238554816
4165.37,1.064055137149807
4166.27,1.051765826598696
4167.17,1.0415017072187243
4168.07,1.033403841309531
4168.98,1.0224939373558115
4169.88,1.0109296636384164
4170.78,0.996032194848751
4171.68,0.982171652094963
4172.58,0.9659165082428344
4173.48,0.9504145899491032
4174.38,0.938770110251304
4175.28,0.935311850927539
4176.18,0.9395732480106235
4177.08,0.951605629313713
4177.98,0.9589896445575661
4178.88,0.9684531762142676
4179.78,0.9782559289075117
4180.68,0.9897635923077199
4181.58,0.9900251816053701
4182.48,1.001269069870165
4183.38,1.0038054721000897
4184.28,1.0029088144288683
4185.18,1.0081447292390573
4186.08,1.0037688684277057
4186.98,1.0010463511435574
4187.88,0.996062866168205
4188.78,0.9988204905915433
4189.68,0.9989406496953362
4190.58,1.0074218600329863
4191.48,1.0184623422514896
4192.38,1.0288045592098807
4193.28,1.0354699328885666
4194.18,1.036754886772398
4195.08,1.0297223949069052
4195.98,1.01304174370765
4196.88,0.9990509260764838
4197.78,0.9791394704119679
4198.68,0.9584143109477428
4199.58,0.950321777993527
4200.48,0.9458738008207097
4201.38,0.9437945436274667
4202.28,0.9497724439912061
4203.18,0.9589328649487444
4204.08,0.972510598432399
4204.98,0.9903678159159317
4205.88,1.0034452856175156
4206.79,1.0260772690267237
4207.69,1.0453969974282513
4208.59,1.0566554498333414
4209.49,1.0652607519487758
4210.39,1.072684244503288
4211.29,1.0686546532011798
4212.19,1.066049564188614
4213.09,1.065488276635747
4213.99,1.0518396312930918
4214.89,1.0457507974296265
4215.79,1.0368480898170387
4216.69,1.0302250273821467
4217.59,1.0371776843640261
4218.49,1.050139739122407
4219.39,1.065445075174553
4220.29,1.079566139125672
4221.19,1.0782360343145923
4222.09,1.0655915354371293
4222.99,1.0481153884304462
4223.89,1.002784063395877
4224.79,0.958808066509834
4225.69,0.9080649589045997
4226.59,0.8770777361855714
4227.49,0.8653860953091639
4228.39,0.8715726491972602
4229.29,0.8997675668078625
4230.19,0.9433850811778327
4231.09,0.9810411080144775
4231.99,1.0125371021009881
4232.89,1.032504005801344
4233.79,1.0366189735945437
4234.69,1.034885545040369
4235.59,1.0221219020846783
4236.49,1.0106406948005189
4237.39,1.0079732053833128
4238.29,1.006738264313945
4239.19,1.0140388915348717
4240.09,1.0250809922039057
4240.99,1.0386670608520558
4241.89,1.0536934902900887
4242.79,1.0706898320711973
4243.69,1.0862460474730695
4244.59,1.09228809066591
4245.5,1.0920807060382327
4246.4,1.079076999104253
4247.3,1.0706766215445356
4248.2,1.0542352784449869
4249.1,1.033307188706472
4250.0,1.0140487052525788
4250.9,1.0079095050515352
4251.8,1.0048888278144035
4252.7,1.0085965904360894
4253.6,1.0159074047708818
4254.5,1.0208533138015803
4255.4,1.0214105002172713
4256.3,1.0291818282949388
4257.2,1.0290966258661263
4258.1,1.0297251619823606
4259.0,1.0264910440435397
4259.9,1.0156856065731537
4260.8,1.00852964313026
4261.7,1.014707815137305
4262.6,1.025308639147919
4263.5,1.048330109439447
4264.4,1.0766909589710625
4265.3,1.099983594597083
4266.2,1.1082823245786302
4267.1,1.1001402960247086
4268.0,1.0952634103482284
4268.9,1.0690319359099998
4269.8,1.0308907804723904
4270.7,0.9945720575690112
4271.6,0.9616664774828421
4272.5,0.9318849133058423
4273.4,0.9217491838636194
4274.3,0.923115365191166
4275.2,0.9393030840761826
4276.1,0.9618809964218443
4277.0,0.9943609935909243
4277.9,1.0188298599574492
4278.8,1.036397326637984
4279.7,1.0507711787011533
4280.6,1.0557448223930082
4281.5,1.0476184270672269
4282.4,1.0419837298871406
4283.31,1.0349896605317872
4284.21,1.0309208287296656
4285.11,1.0179966030467522
4286.01,1.0075645823935484
4286.91,0.9927053927040267
4287.81,0.9715481918986105
4288.71,0.9565857715377748
4289.61,0.9406591780769885
4290.51,0.9288087152992641
4291.41,0.9321139984056542
4292.31,0.9362209138038796
4293.21,0.9465455819621929
4294.11,0.95613166692424
4295.01,0.960236117899268
4295.91,0.9524009864366811
4296.81,0.9352240043887887
4297.71,0.9095785849979339
4298.61,0.8766713475063517
4299.51,0.842059671713792
4300.41,0.8076104448998495
4301.31,0.7866043025627454
4302.21,0.7719572742237707
4303.11,0.7671447011529482
4304.01,0.7673831857932875
4304.91,0.7700897622288733
4305.81,0.7623955897946068
4306.71,0.7593663739803197
4307.61,0.7477627761959521
4308.51,0.7428215467213797
4309.41,0.7465767463615949
4310.31,0.7545935700053558
4311.21,0.7765520461186887
4312.11,0.8051645696257466
4313.01,0.8477688347793786
4313.91,0.9020620655738764
4314.81,0.9581674391816415
4315.71,1.0141379834190916
4316.61,1.0724788787756467
4317.51,1.1165918369552321
4318.41,1.159068907870053
4319.31,1.1663041467037103
4320.21,1.1713910785175827
4321.12,1.1484961004170537
4322.02,1.1202613168591404
4322.92,1.0804307534296609
4323.82,1.031714186499028
4324.72,0.9916584059374615
4325.62,0.9649410536671477
4326.52,0.9594090481956091
4327.42,0.967700468902483
4328.32,0.99947363245109
4329.22,1.0347356359289588
4330.12,1.0716056622821133
4331.02,1.0987293698300735
4331.92,1.123784554035227
4332.82,1.132368624359322
4333.72,1.133656457448186
4334.62,1.1239913139030753
4335.52,1.1052649109694603
4336.42,1.0716500441193262
4337.32,1.0341886442717134
4338.22,0.9839925436961237
4339.12,0.938607225356339
4340.02,0.8988988574148705
4340.92,0.8729400452005744
4341.82,0.873156556275735
4342.72,0.8878919673375479
4343.62,0.9219843753651257
4344.52,0.9570532749096943
4345.42,0.9935081338519929
4346.32,1.029874313163067
4347.22,1.060782739387953
4348.12,1.069888228214933
4349.02,1.0826248873213038
4349.92,1.0738288716787519
4350.82,1.0649040068688245
4351.72,1.048779387212862
4352.62,1.0304015576648935
4353.52,1.0225700758362144
4354.42,1.023066855137455
4355.32,1.035768858228553
4356.22,1.046842834921716
4357.12,1.0580611698900442
4358.02,1.0713243435563913
4358.92,1.0813816349649694
4359.83,1.085249623207553
4360.73,1.0998893602080289
4361.63,1.1057910393220058
4362.53,1.1192246789616573
4363.43,1.121968425684655
4364.33,1.1350594787307862
4365.23,1.1336347325768945
4366.13,1.1337256443452963
4367.03,1.123034800853037
