wave,flux
3700.85,-3.916363560239678e-07
3701.75,-3.8617074992486584e-07
3702.65,-3.787346629476922e-07
3703.55,-3.6260105456411525e-07
3704.45,-3.4831893988394823e-07
3705.35,-3.358723790283244e-07
3706.25,-3.302059935307113e-07
3707.15,-3.277625249299254e-07
3708.05,-3.305984856646839e-07
3708.96,-3.358700976163746e-07
3709.86,-3.400763268354011e-07
3710.76,-3.4634323348198254e-07
3711.66,-3.536802729543415e-07
3712.56,-3.633961367628503e-07
3713.46,-3.7636148314366277e-07
3714.36,-3.890754295419467e-07
3715.26,-4.005799141837577e-07
3716.16,-4.102516531694712e-07
3717.06,-4.104695448036486e-07
3717.96,-4.019987953401457e-07
3718.86,-3.848797234743679e-07
3719.76,-3.633034494649304e-07
3720.66,-3.404003549462425e-07
3721.56,-3.2575096152377003e-07
3722.46,-3.171370281248554e-07
3723.36,-3.249636008703138e-07
3724.26,-3.4029004512969535e-07
3725.16,-3.6015782780304025e-07
3726.06,-3.7984034377803086e-07
3726.96,-3.927851795636466e-07
3727.86,-4.023243727236849e-07
3728.76,-4.036116709409723e-07
3729.66,-4.026516902437107e-07
3730.56,-3.94599794070082e-07
3731.46,-3.785570615755184e-07
3732.36,-3.57996092276524e-07
3733.26,-3.3347808783335505e-07
3734.16,-3.099846902657265e-07
3735.06,-2.9629164802834756e-07
3735.96,-2.915989982121513e-07
3736.86,-3.002030319931527e-07
3737.76,-3.1790679520086294e-07
3738.66,-3.462117533484806e-07
3739.56,-3.739254487977864e-07
3740.46,-3.99061324989236e-07
3741.36,-4.133405265038052e-07
3742.26,-4.2257629142052365e-07
3743.16,-4.1744060434725797e-07
3744.06,-4.084634636430577e-07
3744.96,-3.946122425076671e-07
3745.86,-3.7567064023238144e-07
3746.76,-3.5683277694589536e-07
3747.67,-3.343001706133737e-07
3748.57,-3.1513595035818856e-07
3749.47,-3.0318365995246306e-07
3750.37,-2.9948331343552627e-07
3751.27,-3.122142110296343e-07
3752.17,-3.332490118563154e-07
3753.07,-3.6169643996754823e-07
3753.97,-3.920603515976983e-07
3754.87,-4.190517927422431e-07
3755.77,-4.368424124317938e-07
3756.67,-4.428105357505334e-07
3757.57,-4.438772256606468e-07
3758.47,-4.3686191680059974e-07
3759.37,-4.3171667112927655e-07
3760.27,-4.30772947881834e-07
3761.17,-4.3324629810474633e-07
3762.07,-4.4032600340967456e-07
3762.97,-4.430923882726304e-07
3763.87,-4.4445226315898103e-07
3764.77,-4.451117616132632e-07
3765.67,-4.359424410754778e-07
3766.57,-4.2659331085796677e-07
3767.47,-4.130522461487618e-07
3768.37,-3.976977870774143e-07
3769.27,-3.828279313008236e-07
3770.17,-3.722806622363853e-07
3771.07,-3.6899244615959615e-07
3771.97,-3.7344479074905977e-07
3772.87,-3.86508601896295e-07
3773.77,-4.0512529926674213e-07
3774.67,-4.251944963390278e-07
3775.57,-4.464883473605722e-07
3776.47,-4.664062270973905e-07
3777.37,-4.826601400047735e-07
3778.27,-5.015817496577028e-07
3779.17,-5.173860952924148e-07
3780.07,-5.342850736450062e-07
3780.97,-5.457574009200727e-07
3781.87,-5.552264109297457e-07
3782.77,-5.63130912352305e-07
3783.67,-5.654570530427173e-07
3784.57,-5.61427758233292e-07
3785.47,-5.534343571669569e-07
3786.38,-5.426504855766505e-07
3787.28,-5.257821931325207e-07
3788.18,-5.122521160291084e-07
3789.08,-5.011448537145245e-07
3789.98,-4.917161243215255e-07
3790.88,-4.824369928148421e-07
3791.78,-4.704660159797362e-07
3792.68,-4.6159125605234245e-07
3793.58,-4.448517365022476e-07
3794.48,-4.2255756436097706e-07
3795.38,-3.9913971905402487e-07
3796.28,-3.768469530036257e-07
3797.18,-3.57951469973737e-07
3798.08,-3.4552136253227477e-07
3798.98,-3.447253801481954e-07
3799.88,-3.563919870924883e-07
3800.78,-3.795199987703492e-07
3801.68,-4.1174610056661745e-07
3802.58,-4.449446790435108e-07
3803.48,-4.739053349854102e-07
3804.38,-5.030645958148684e-07
3805.28,-5.170020082141316e-07
3806.18,-5.306714829260897e-07
3807.08,-5.416877736143064e-07
3807.98,-5.513103151552453e-07
3808.88,-5.62225613806731e-07
3809.78,-5.70204560373544e-07
3810.68,-5.819772000586628e-07
3811.58,-5.849956707735206e-07
3812.48,-5.820370397017137e-07
3813.38,-5.738693398923109e-07
3814.28,-5.612167883866786e-07
3815.18,-5.533723504635092e-07
3816.08,-5.477560071048562e-07
3816.98,-5.498767680754023e-07
3817.88,-5.503939153914907e-07
3818.78,-5.512474227262357e-07
3819.68,-5.50070014731709e-07
3820.58,-5.445248875871996e-07
3821.48,-5.402847354746234e-07
3822.38,-5.293591497495795e-07
3823.28,-5.255752001380875e-07
3824.18,-5.135084372894928e-07
3825.09,-4.998447486084047e-07
3825.99,-4.865438357276092e-07
3826.89,-4.7250182383198495e-07
3827.79,-4.611840785289784e-07
3828.69,-4.492458718387615e-07
3829.59,-4.360618340863995e-07
3830.49,-4.215811581633513e-07
3831.39,-4.037992691365975e-07
3832.29,-3.821371459212798e-07
3833.19,-3.581055281990442e-07
3834.09,-3.385344683141252e-07
3834.99,-3.23952252017382e-07
3835.89,-3.159299462967271e-07
3836.79,-3.15225215814353e-07
3837.69,-3.243417350213023e-07
3838.59,-3.4027889793314904e-07
3839.49,-3.614206294972937e-07
3840.39,-3.8731027326218965e-07
3841.29,-4.1643488837639653e-07
3842.19,-4.483555118044129e-07
3843.09,-4.789257178685157e-07
3843.99,-5.090069491566269e-07
3844.89,-5.314371301091122e-07
3845.79,-5.516367814464586e-07
3846.69,-5.671896984970649e-07
3847.59,-5.824170170584053e-07
3848.49,-5.902595794620177e-07
3849.39,-5.96496999616243e-07
3850.29,-6.092039097366735e-07
3851.19,-6.125883074235937e-07
3852.09,-6.188057432878813e-07
3852.99,-6.267159255317884e-07
3853.89,-6.300112594726223e-07
3854.79,-6.336605425825437e-07
3855.69,-6.279438258161252e-07
3856.59,-6.263872713223378e-07
3857.49,-6.168918045654988e-07
3858.39,-6.117279536758532e-07
3859.29,-6.075713628036255e-07
3860.19,-6.09393213090759e-07
3861.09,-6.146583282598445e-07
3861.99,-6.283211239544995e-07
3862.9,-6.38764585720619e-07
3863.8,-6.503322409307334e-07
3864.7,-6.586559482267334e-07
3865.6,-6.633172082236103e-07
3866.5,-6.639451770708747e-07
3867.4,-6.637287245691884e-07
3868.3,-6.601113349194232e-07
3869.2,-6.568238637580717e-07
3870.1,-6.509792201583605e-07
3871.0,-6.401326087917668e-07
3871.9,-6.30699846132786e-07
3872.8,-6.181882059774813e-07
3873.7,-6.111944091191114e-07
3874.6,-6.097668346317626e-07
3875.5,-6.089981055405451e-07
3876.4,-6.049150325864615e-07
3877.3,-5.979726088380636e-07
3878.2,-5.887436755125948e-07
3879.1,-5.801865310061906e-07
3880.0,-5.731508772429138e-07
3880.9,-5.633230585827015e-07
3881.8,-5.546424992420225e-07
3882.7,-5.431449221559742e-07
3883.6,-5.320845425837642e-07
3884.5,-5.082938866528513e-07
3885.4,-4.866821038890013e-07
3886.3,-4.6286316959203205e-07
3887.2,-4.32903727384125e-07
3888.1,-4.1181471915944045e-07
3889.0,-3.9816113856204486e-07
3889.9,-3.953309001857166e-07
3890.8,-4.0576630518790124e-07
3891.7,-4.2642525424316445e-07
3892.6,-4.534375328287701e-07
3893.5,-4.819239991367009e-07
3894.4,-5.071139195291171e-07
3895.3,-5.286349745781792e-07
3896.2,-5.469755469429813e-07
3897.1,-5.612046480496798e-07
3898.0,-5.783302432206532e-07
3898.9,-5.923344783060744e-07
3899.8,-6.032934519647261e-07
3900.7,-6.159281314379303e-07
3901.6,-6.225516769524516e-07
3902.51,-6.326388951794155e-07
3903.41,-6.337974920146859e-07
3904.31,-6.374038282222718e-07
3905.21,-6.414344429647374e-07
3906.11,-6.454635852861009e-07
3907.01,-6.511236245298839e-07
3907.91,-6.629871832488115e-07
3908.81,-6.806777004949824e-07
3909.71,-6.987692308713746e-07
3910.61,-7.138829827671986e-07
3911.51,-7.244307107793369e-07
3912.41,-7.311988995897723e-07
3913.31,-7.3367802724326e-07
3914.21,-7.318474794368241e-07
3915.11,-7.306593997972071e-07
3916.01,-7.241202166950667e-07
3916.91,-7.159795970631622e-07
3917.81,-7.121272802313193e-07
3918.71,-7.068745427381226e-07
3919.61,-6.997152705216175e-07
3920.51,-6.96771525005838e-07
3921.41,-6.941861494335802e-07
3922.31,-6.897373233551277e-07
3923.21,-6.895904699270735e-07
3924.11,-6.835448430724766e-07
3925.01,-6.767560382137005e-07
3925.91,-6.628335845282482e-07
3926.81,-6.465554559106786e-07
3927.71,-6.161534559776564e-07
3928.61,-5.771465690108935e-07
3929.51,-5.348295341258357e-07
3930.41,-4.847099538932173e-07
3931.31,-4.3713433112779243e-07
3932.21,-3.8960093971088147e-07
3933.11,-3.5057471846868785e-07
3934.01,-3.270669489765816e-07
3934.91,-3.231856391553557e-07
3935.81,-3.4007785476047974e-07
3936.71,-3.729367735866478e-07
3937.61,-4.1878127857624506e-07
3938.51,-4.7170502000304823e-07
3939.42,-5.214628260598315e-07
3940.32,-5.64974259914711e-07
3941.22,-6.005706451414684e-07
3942.12,-6.241789906258265e-07
3943.02,-6.430936388938117e-07
3943.92,-6.556407402306751e-07
3944.82,-6.681931654737872e-07
3945.72,-6.796832825665954e-07
3946.62,-6.902060314542661e-07
3947.52,-7.013185361197582e-07
3948.42,-7.073302479264531e-07
3949.32,-7.167909343389753e-07
3950.22,-7.192341534450587e-07
3951.12,-7.199546783160348e-07
3952.02,-7.234522644059343e-07
3952.92,-7.247776942132449e-07
3953.82,-7.208921809130393e-07
3954.72,-7.19827804095718e-07
3955.62,-7.170889276549485e-07
3956.52,-7.109432722941653e-07
3957.42,-7.005796797219772e-07
3958.32,-6.901329838193214e-07
3959.22,-6.800090119558939e-07
3960.12,-6.591630384493552e-07
3961.02,-6.350861701380985e-07
3961.92,-6.087556221289591e-07
3962.82,-5.748304117246584e-07
3963.72,-5.357731244002417e-07
3964.62,-4.930121241000597e-07
3965.52,-4.4752704263293044e-07
3966.42,-4.029922613092422e-07
3967.32,-3.5632569009817747e-07
3968.22,-3.181419086335504e-07
3969.12,-2.9016992060903727e-07
3970.02,-2.8067009708199604e-07
3970.92,-2.87694383328082e-07
3971.82,-3.1317303979777317e-07
3972.72,-3.496997944990311e-07
3973.62,-3.9788298761728817e-07
3974.52,-4.4634033627499863e-07
3975.42,-4.921815953039056e-07
3976.32,-5.371629970395152e-07
3977.22,-5.782293065477879e-07
3978.13,-6.168667820169858e-07
3979.03,-6.498315266416483e-07
3979.93,-6.775468432340895e-07
3980.83,-7.010130449922288e-07
3981.73,-7.199685730210309e-07
3982.63,-7.273726392928822e-07
3983.53,-7.407140758924964e-07
3984.43,-7.476041679722333e-07
3985.33,-7.580029215305204e-07
3986.23,-7.706950206023237e-07
3987.13,-7.807998190954644e-07
3988.03,-7.930436091404702e-07
3988.93,-8.053472885043668e-07
3989.83,-8.132012921224803e-07
3990.73,-8.256488883859649e-07
3991.63,-8.332091699546796e-07
3992.53,-8.447170795693049e-07
3993.43,-8.492221478422356e-07
3994.33,-8.483708274049211e-07
3995.23,-8.457274801312848e-07
3996.13,-8.410243757423406e-07
3997.03,-8.369971054415666e-07
3997.93,-8.383087389245466e-07
3998.83,-8.430838158890538e-07
3999.73,-8.531022820598789e-07
4000.63,-8.643172196887759e-07
4001.53,-8.727134711881952e-07
4002.43,-8.847886352662265e-07
4003.33,-8.826810553360941e-07
4004.23,-8.755644238597063e-07
4005.13,-8.72429604020927e-07
4006.03,-8.598858759321849e-07
4006.93,-8.627058378615347e-07
4007.83,-8.685028636250778e-07
4008.73,-8.774090169112705e-07
4009.63,-8.874922523625622e-07
4010.53,-8.976131128406086e-07
4011.43,-9.079528004531534e-07
4012.33,-9.135217179058905e-07
4013.23,-9.172286851750406e-07
4014.13,-9.215060874832962e-07
4015.03,-9.22355790007523e-07
4015.93,-9.224402203594231e-07
4016.84,-9.277205763527097e-07
4017.74,-9.277321881564795e-07
4018.64,-9.364649140865546e-07
4019.54,-9.370123675916491e-07
4020.44,-9.425164522400433e-07
4021.34,-9.418363634683404e-07
4022.24,-9.436998369755051e-07
4023.14,-9.446782661444455e-07
4024.04,-9.428756314387993e-07
4024.94,-9.447820930365873e-07
4025.84,-9.519569409629221e-07
4026.74,-9.533802677949857e-07
4027.64,-9.548347245157494e-07
4028.54,-9.579802717226056e-07
4029.44,-9.471690428437371e-07
4030.34,-9.342746479088464e-07
4031.24,-9.159229089094085e-07
4032.14,-9.011211893228439e-07
4033.04,-8.983261576891277e-07
4033.94,-9.004260135691288e-07
4034.84,-9.068582718207519e-07
4035.74,-9.213523204868038e-07
4036.64,-9.414248678549113e-07
4037.54,-9.614274111409355e-07
4038.44,-9.7464995654236e-07
4039.34,-9.837633650581878e-07
4040.24,-9.888344172832957e-07
4041.14,-9.809974314869858e-07
4042.04,-9.72494778834169e-07
4042.94,-9.581300817545337e-07
4043.84,-9.436581858056564e-07
4044.74,-9.271925700594842e-07
4045.64,-9.12394897994267e-07
4046.54,-9.133599090634667e-07
4047.44,-9.143756318945097e-07
4048.34,-9.308677818839418e-07
4049.24,-9.447613250269051e-07
4050.14,-9.600118681435433e-07
4051.04,-9.736803995461593e-07
4051.94,-9.730638695846587e-07
4052.84,-9.750353928596519e-07
4053.74,-9.6602205225374e-07
4054.65,-9.553640663690922e-07
4055.55,-9.467425063084754e-07
4056.45,-9.395236334005111e-07
4057.35,-9.429001918540535e-07
4058.25,-9.413732139574971e-07
4059.15,-9.450675768973443e-07
4060.05,-9.451746245623232e-07
4060.95,-9.478434432304076e-07
4061.85,-9.478815859362107e-07
4062.75,-9.40942379540395e-07
4063.65,-9.328302333782683e-07
4064.55,-9.243789793152815e-07
4065.45,-9.257044221505566e-07
4066.35,-9.27072169860695e-07
4067.25,-9.35047665304385e-07
4068.15,-9.413974879221617e-07
4069.05,-9.504650829392451e-07
4069.95,-9.5805812135256e-07
4070.85,-9.59054108097199e-07
4071.75,-9.556397160934545e-07
4072.65,-9.506002326860448e-07
4073.55,-9.432384021693579e-07
4074.45,-9.399598201002803e-07
4075.35,-9.274597138521424e-07
4076.25,-9.170286572321016e-07
4077.15,-9.068119020237607e-07
4078.05,-8.978130190892747e-07
4078.95,-8.944916330858097e-07
4079.85,-9.028729351299674e-07
4080.75,-9.13866503962635e-07
4081.65,-9.263600833999385e-07
4082.55,-9.382910132439988e-07
4083.45,-9.409699187936064e-07
4084.35,-9.374300255701585e-07
4085.25,-9.415557839177853e-07
4086.15,-9.435931851120203e-07
4087.05,-9.438254860803832e-07
4087.95,-9.51815130820632e-07
4088.85,-9.564650383505794e-07
4089.75,-9.555269566110934e-07
4090.65,-9.540365475153105e-07
4091.55,-9.44370619973439e-07
4092.45,-9.353192460333941e-07
4093.36,-9.180196960439009e-07
4094.26,-8.961769243991856e-07
4095.16,-8.77241086354541e-07
4096.06,-8.501186749152575e-07
4096.96,-8.211569444999582e-07
4097.86,-7.890437821271522e-07
4098.76,-7.498039580133832e-07
4099.66,-7.127184237386704e-07
4100.56,-6.733583859995311e-07
4101.46,-6.455289931689538e-07
4102.36,-6.326887352578762e-07
4103.26,-6.322630153956562e-07
4104.16,-6.498667992272681e-07
4105.06,-6.798737536148341e-07
4105.96,-7.185655468423555e-07
4106.86,-7.583667036442423e-07
4107.76,-7.941237300760982e-07
4108.66,-8.239208288235015e-07
4109.56,-8.452312700554542e-07
4110.46,-8.610399619930596e-07
4111.36,-8.759134881613841e-07
4112.26,-8.935973993955085e-07
4113.16,-9.135578111442194e-07
4114.06,-9.30045544023769e-07
4114.96,-9.459577237520878e-07
4115.86,-9.59874856619471e-07
4116.76,-9.691981742359547e-07
4117.66,-9.707420130932061e-07
4118.56,-9.736886823276047e-07
4119.46,-9.765226572941195e-07
4120.36,-9.736197664875867e-07
4121.26,-9.73498328817173e-07
4122.16,-9.786780242164696e-07
4123.06,-9.86434801328209e-07
4123.96,-9.910443291706662e-07
4124.86,-9.993866403001272e-07
4125.76,-1.0028742061286446e-06
4126.66,-1.005526565261898e-06
4127.56,-1.0049553208073577e-06
4128.46,-1.00313943352044e-06
4129.36,-1.0017627409208318e-06
4130.26,-9.961164337729327e-07
4131.17,-9.901764435470897e-07
4132.06,-9.8145771449498e-07
4132.97,-9.87055708642165e-07
4133.87,-9.88859459538034e-07
4134.77,-9.949313722191366e-07
4135.67,-1.00818118654733e-06
4136.57,-1.025522810117561e-06
4137.47,-1.0411297474923045e-06
4138.37,-1.0568211287874384e-06
4139.27,-1.0693496230700968e-06
4140.17,-1.0733974579416653e-06
4141.07,-1.065466608310672e-06
4141.97,-1.0536481323406483e-06
4142.87,-1.045230618604627e-06
4143.77,-1.0286864536655001e-06
4144.67,-1.0278596212571693e-06
4145.57,-1.0317205715036799e-06
4146.47,-1.0351915806670025e-06
4147.37,-1.044592526813351e-06
4148.27,-1.0581189014978518e-06
4149.17,-1.0606068465183076e-06
4150.07,-1.0619592805317286e-06
4150.97,-1.06610444321776e-06
4151.87,-1.061332874876521e-06
4152.77,-1.050680945163182e-06
4153.67,-1.051026011574914e-06
4154.57,-1.045922860060399e-06
4155.47,-1.045127106103376e-06
4156.37,-1.0437385408058584e-06
4157.27,-1.053319447866467e-06
4158.17,-1.0590339084996054e-06
4159.07,-1.0715187332300903e-06
4159.97,-1.0822937642563258e-06
4160.87,-1.0861144521631e-06
4161.77,-1.1021905202250168e-06
4162.67,-1.1049373824735317e-06
4163.57,-1.107902159177472e-06
4164.47,-1.1128950747617336e-06
4165.37,-1.1119790960425518e-06
4166.27,-1.107208901041243e-06
4167.17,-1.1049535794374943e-06
4168.07,-1.1049610561836014e-06
4168.98,-1.0888613369745643e-06
4169.88,-1.0852896728832474e-06
4170.78,-1.0741159492219018e-06
4171.68,-1.0548191729373168e-06
4172.58,-1.0472997723639668e-06
4173.48,-1.0299912532616822e-06
4174.38,-1.0231239184804205e-06
4175.28,-1.0271268612619555e-06
4176.18,-1.0286094676671523e-06
4177.08,-1.0386185966791167e-06
4177.98,-1.0434563196872701e-06
4178.88,-1.0519454110528596e-06
4179.78,-1.0588045656806215e-06
4180.68,-1.0691317953788131e-06
4181.58,-1.0734545127949139e-06
4182.48,-1.0815795783469002e-06
4183.38,-1.0821920166577103e-06
4184.28,-1.0904091028666015e-06
4185.18,-1.092260134832524e-06
4186.08,-1.091639426325222e-06
4186.98,-1.0930788996484598e-06
4187.88,-1.0937015769316966e-06
4188.78,-1.0949826406949937e-06
4189.68,-1.0962422852046209e-06
4190.58,-1.1011933846989704e-06
4191.48,-1.1136330232213662e-06
4192.38,-1.1204291061690168e-06
4193.28,-1.126970988136006e-06
4194.18,-1.1284966501114456e-06
4195.08,-1.119446323199295e-06
4195.98,-1.1143100599957252e-06
4196.88,-1.1013356332644716e-06
4197.78,-1.0942456680534689e-06
4198.68,-1.0809786631184594e-06
4199.58,-1.069857310954776e-06
4200.48,-1.0718451679704057e-06
4201.38,-1.0735903284215764e-06
4202.28,-1.0733227794793983e-06
4203.18,-1.080102851185571e-06
4204.08,-1.0912043250048856e-06
4204.98,-1.1003291944697548e-06
4205.88,-1.1046834986298864e-06
4206.79,-1.1231298304606757e-06
4207.69,-1.1330185652411199e-06
4208.59,-1.1432447030128529e-06
4209.49,-1.149462809510474e-06
4210.39,-1.159321983447556e-06
4211.29,-1.1629868091081973e-06
4212.19,-1.1571099243698448e-06
4213.09,-1.1565565479664685e-06
4213.99,-1.1536983893220316e-06
4214.89,-1.1431223403293716e-06
4215.79,-1.1394820499725383e-06
4216.69,-1.1423816229152806e-06
4217.59,-1.1411507499446774e-06
4218.49,-1.1525615790372797e-06
4219.39,-1.1613314130729e-06
4220.29,-1.1726877894768765e-06
4221.19,-1.171969234318047e-06
4222.09,-1.1684337079529634e-06
4222.99,-1.1540880691994478e-06
4223.89,-1.1259716485032292e-06
4224.79,-1.1013779520748466e-06
4225.69,-1.0773113594281134e-06
4226.59,-1.050559613283369e-06
4227.49,-1.0384413435942324e-06
4228.39,-1.0514214206037752e-06
4229.29,-1.0714291558219856e-06
4230.19,-1.1050358909552429e-06
4231.09,-1.1220992969446042e-06
4231.99,-1.1486778121239166e-06
4232.89,-1.1599868642244575e-06
4233.79,-1.1551917766200971e-06
4234.69,-1.150726241380751e-06
4235.59,-1.1510776377993168e-06
4236.49,-1.1373233365992862e-06
4237.39,-1.1400966815102317e-06
4238.29,-1.1372650659908754e-06
4239.19,-1.1420074454796312e-06
4240.09,-1.1521471575315356e-06
4240.99,-1.1599211597495993e-06
4241.89,-1.1713585281303698e-06
4242.79,-1.1861025979279813e-06
4243.69,-1.193158483890664e-06
4244.59,-1.1932275432723284e-06
4245.5,-1.1911700765735989e-06
4246.4,-1.187765166644681e-06
4247.3,-1.178994120701556e-06
4248.2,-1.1657038862091367e-06
4249.1,-1.1553729302406675e-06
4250.0,-1.1511855092244558e-06
4250.9,-1.1538404160090852e-06
4251.8,-1.155955019646446e-06
4252.7,-1.1581473108162353e-06
4253.6,-1.1664835865775277e-06
4254.5,-1.1751089098855706e-06
4255.4,-1.1760440444613796e-06
4256.3,-1.18027740057452e-06
4257.2,-1.1829863652387669e-06
4258.1,-1.1850390556492251e-06
4259.0,-1.1786333343759188e-06
4259.9,-1.1752494953309623e-06
4260.8,-1.165992839320829e-06
4261.7,-1.17178827469078e-06
4262.6,-1.1795868418932737e-06
4263.5,-1.191639845475199e-06
4264.4,-1.2183564986082408e-06
4265.3,-1.227354065287781e-06
4266.2,-1.2368846563990059e-06
4267.1,-1.2361945439217458e-06
4268.0,-1.2247736695804952e-06
4268.9,-1.2094923805223766e-06
4269.8,-1.18742094462701e-06
4270.7,-1.1661764118970115e-06
4271.6,-1.144938586011407e-06
4272.5,-1.1229853135434837e-06
4273.4,-1.1233729838024996e-06
4274.3,-1.1215005901775625e-06
4275.2,-1.1358657635598424e-06
4276.1,-1.151925689733684e-06
4277.0,-1.1702076115690651e-06
4277.9,-1.1900426089354602e-06
4278.8,-1.2073008959508335e-06
