wave,flux
3700.85,-0.0015305971239114092
3701.75,-0.0015362463630582501
3702.65,-0.0015221675134099277
3703.55,-0.0014875339007344869
3704.45,-0.0014639258896562831
3705.35,-0.0014636589809842978
3706.25,-0.0014691868396179135
3707.15,-0.0015056035597966698
3708.05,-0.0015373614396717447
3708.96,-0.0015802596398203227
3709.86,-0.001614954632008165
3710.76,-0.001625187138615163
3711.66,-0.001655997512308276
3712.56,-0.0016934270334626924
3713.46,-0.0017562871205951038
3714.36,-0.0018436504162225782
3715.26,-0.0019323893486616285
3716.16,-0.002010149826240868
3717.06,-0.002054162981485274
3717.96,-0.002060061645355563
3718.86,-0.002011865175973796
3719.76,-0.0019569591035703006
3720.66,-0.0018756772647206764
3721.56,-0.0018126933930936405
3722.46,-0.0018049833722676414
3723.36,-0.0018579627037167788
3724.26,-0.001961514583942232
3725.16,-0.002091194615947227
3726.06,-0.0022268988152861417
3726.96,-0.00235392188970039
3727.86,-0.0024407412063851197
3728.76,-0.002498495624573262
3729.66,-0.0025183770394405156
3730.56,-0.002509029254408358
3731.46,-0.002441446547170162
3732.36,-0.0023366884393458687
3733.26,-0.002224328891065433
3734.16,-0.0021236152823366837
3735.06,-0.0020560988530657605
3735.96,-0.002099245284747066
3736.86,-0.002206726165545548
3737.76,-0.0023816655605511283
3738.66,-0.0026053386653102206
3739.56,-0.002828931989034685
3740.46,-0.003019826025042276
3741.36,-0.0031676461621754433
3742.26,-0.0032871232765562066
3743.16,-0.0033067753532418985
3744.06,-0.0033050293173279136
3744.96,-0.0032559803042786157
3745.86,-0.003159308625381172
3746.76,-0.0030542737856920593
3747.67,-0.0029103477795272533
3748.57,-0.0027828368249458667
3749.47,-0.0026749401544786814
3750.37,-0.0026414993688090764
3751.27,-0.002749841359317159
3752.17,-0.002941459444487001
3753.07,-0.003214246490852074
3753.97,-0.0035235574950992924
3754.87,-0.0038131342986201236
3755.77,-0.0040571802691015705
3756.67,-0.004253169725578081
3757.57,-0.0043604990757351685
3758.47,-0.004430327354763977
3759.37,-0.004500082423649804
3760.27,-0.004595232761075909
3761.17,-0.004684815748100015
3762.07,-0.004831739592199853
3762.97,-0.004939718769779065
3763.87,-0.005022967557412455
3764.77,-0.005027173124493061
3765.67,-0.005000567840047727
3766.57,-0.004914333685726573
3767.47,-0.004780002990499101
3768.37,-0.004608559789455248
3769.27,-0.004438693576225097
3770.17,-0.004313398691585605
3771.07,-0.0042923183379474554
3771.97,-0.004384837915257456
3772.87,-0.004606349178897695
3773.77,-0.004903099670547643
3774.67,-0.005262419663035071
3775.57,-0.00565129317634594
3776.47,-0.006041820283382291
3777.37,-0.006429200953632221
3778.27,-0.006805859124350552
3779.17,-0.007185789047679784
3780.07,-0.0075408882235768636
3780.97,-0.007839472995240364
3781.87,-0.008136080353471502
3782.77,-0.008366703695921848
3783.67,-0.008498330134694268
3784.57,-0.008633236097410244
3785.47,-0.008690543029141299
3786.38,-0.008668752545159098
3787.28,-0.008658008907379245
3788.18,-0.00863356085519229
3789.08,-0.00860128376918225
3789.98,-0.00857042702500526
3790.88,-0.0085402857787322
3791.78,-0.00845452179474003
3792.68,-0.008325835849631303
3793.58,-0.008103958772696684
3794.48,-0.007806700019564939
3795.38,-0.007413215265868742
3796.28,-0.007101017383260722
3797.18,-0.006789985492379257
3798.08,-0.006640646351300124
3798.98,-0.006709108393840256
3799.88,-0.0070335066452163605
3800.78,-0.007622081115967115
3801.68,-0.008364451936276022
3802.58,-0.00917594220261281
3803.48,-0.009989574576044736
3804.38,-0.01070374508537009
3805.28,-0.011361175639599527
3806.18,-0.011923670573676748
3807.08,-0.012454400316839198
3807.98,-0.012986038842976628
3808.88,-0.013529584145874837
3809.78,-0.01402241169908685
3810.68,-0.014480067888385456
3811.58,-0.014904372883851541
3812.48,-0.015150808851442706
3813.38,-0.015431769090137371
3814.28,-0.015625737876968842
3815.18,-0.015799271672145083
3816.08,-0.016073002974087154
3816.98,-0.01631918476612228
3817.88,-0.016792011838886494
3818.78,-0.017056456779999247
3819.68,-0.01734684241810708
3820.58,-0.017421697120170235
3821.48,-0.017582412062854862
3822.38,-0.017757735125012507
3823.28,-0.017720981401952544
3824.18,-0.017765483122581353
3825.09,-0.017781449053996954
3825.99,-0.01758636081955589
3826.89,-0.01748950579557867
3827.79,-0.01739222682689409
3828.69,-0.01719096243795258
3829.59,-0.016982367614606166
3830.49,-0.016589678010713496
3831.39,-0.01602793305367638
3832.29,-0.015291994451801143
3833.19,-0.014598052352463371
3834.09,-0.013926138537166519
3834.99,-0.013422070680863235
3835.89,-0.01321863905608
3836.79,-0.01348033257060978
3837.69,-0.014239188359711741
3838.59,-0.015245837812395179
3839.49,-0.016705490197880965
3840.39,-0.018220017608498302
3841.29,-0.02002189670380853
3842.19,-0.02178804031793673
3843.09,-0.023577571521537232
3843.99,-0.025169011573557477
3844.89,-0.026814140779289914
3845.79,-0.028225634837418967
3846.69,-0.02953079264574963
3847.59,-0.030992723923673207
3848.49,-0.03207111491424218
3849.39,-0.03326402702533726
3850.29,-0.03438064903234239
3851.19,-0.03550123982917297
3852.09,-0.03676540606581604
3852.99,-0.03793456322144326
3853.89,-0.038994477096291814
3854.79,-0.04011798046203654
3855.69,-0.04106623355884884
3856.59,-0.04206666083493199
3857.49,-0.04293593355645202
3858.39,-0.04357313283216379
3859.29,-0.04453705325385177
3860.19,-0.04563067918582378
3861.09,-0.04707728733084538
3861.99,-0.04872949855842446
3862.9,-0.05056588694506887
3863.8,-0.05208013863091415
3864.7,-0.053381173879201674
3865.6,-0.05452997364816926
3866.5,-0.05603181983321304
3867.4,-0.056980417913065524
3868.3,-0.05799406234810123
3869.2,-0.059326418962628
3870.1,-0.059960550294396196
3871.0,-0.060599339542103836
3871.9,-0.06128560587746972
3872.8,-0.06204434273903335
3873.7,-0.06280147594872246
3874.6,-0.06391405234773448
3875.5,-0.06514764560498591
3876.4,-0.06597078653695383
3877.3,-0.06653768414177295
3878.2,-0.06682822621435337
3879.1,-0.06740230122462756
3880.0,-0.06779942302671953
3880.9,-0.06818558754466185
3881.8,-0.06850276705859054
3882.7,-0.0684691825561427
3883.6,-0.06828734028299313
3884.5,-0.06719097402629487
3885.4,-0.06566315200558924
3886.3,-0.06335968020769586
3887.2,-0.060954804624016416
3888.1,-0.05884355917149452
3889.0,-0.05782691634473723
3889.9,-0.05887667560300667
3890.8,-0.06131259977593297
3891.7,-0.06618665992664453
3892.6,-0.07233242573208411
3893.5,-0.07880985467339291
3894.4,-0.08556143117733461
3895.3,-0.092716813111857
3896.2,-0.09904648889010884
3897.1,-0.10608580479609335
3898.0,-0.11218713439873121
3898.9,-0.1183086277127956
3899.8,-0.12486261536621733
3900.7,-0.1318923422852815
3901.6,-0.1379867405352611
3902.51,-0.1453958841538199
3903.41,-0.15154991799470444
3904.31,-0.1576704144408426
3905.21,-0.16440881689199321
3906.11,-0.17178409401486566
3907.01,-0.17975235872625367
3907.91,-0.18822888940537527
3908.81,-0.1972835051741267
3909.71,-0.20825039793412886
3910.61,-0.21964963805429358
3911.51,-0.22978437844759045
3912.41,-0.23907554076542176
3913.31,-0.24771122996453016
3914.21,-0.2575335019577787
3915.11,-0.2647092267705501
3916.01,-0.2746030558579578
3916.91,-0.2841887667232324
3917.81,-0.2930699403819469
3918.71,-0.3031249553651687
3919.61,-0.3164602443882543
3920.51,-0.3273919557511401
3921.41,-0.3394942714047853
3922.31,-0.3547795743366202
3923.21,-0.3704261042992261
3924.11,-0.38682602352328277
3925.01,-0.4003394820296619
3925.91,-0.4153032535749074
3926.81,-0.42562410166740683
3927.71,-0.4336736094482855
3928.61,-0.43929123304439727
3929.51,-0.4386808584166218
3930.41,-0.43339968998596773
3931.31,-0.42250877389054686
3932.21,-0.4089425575189175
3933.11,-0.39867611670782144
3934.01,-0.4004108697713056
3934.91,-0.421678834350717
3935.81,-0.4663527114733367
3936.71,-0.534359137435892
3937.61,-0.6220570741641662
3938.51,-0.7250960193421069
3939.42,-0.8402363740775813
3940.32,-0.9554017674841058
3941.22,-1.0646099951371357
3942.12,-1.18821579640217
3943.02,-1.3161390788574376
3943.92,-1.4519521483776032
3944.82,-1.623610806400835
3945.72,-1.8278043187253332
3946.62,-2.0595126312224856
3947.52,-2.3518683201939656
3948.42,-2.723673386596622
3949.32,-3.221372439031757
3950.22,-3.895068870950905
3951.12,-4.88349272555605
3952.02,-6.542525412712855
3952.92,-9.677492271825688
3953.82,-18.365960429627975
3954.72,-146.04461047161075
3955.62,24.753537267118933
3956.52,11.475565215306187
3957.42,7.490172105139126
3958.32,5.518394511328708
3959.22,4.365235176862866
3960.12,3.5962121043341324
3961.02,3.010973513089291
3961.92,2.5590396910595907
3962.82,2.1957656744148673
3963.72,1.8822821392997096
3964.62,1.6060108712767993
3965.52,1.361880712498283
3966.42,1.1438094124495402
3967.32,0.956916091521623
3968.22,0.8031172935249777
3969.12,0.6933306416719558
3970.02,0.6338558662533377
3970.92,0.6213394819813325
3971.82,0.6434826442572047
3972.72,0.6897621926871271
3973.62,0.7505073677523773
3974.52,0.8127657522282061
3975.42,0.8683047456734035
3976.32,0.9138029426366193
3977.22,0.952617210875612
3978.13,0.9844803306749487
3979.03,1.0082036893235267
3979.93,1.0201497962638335
3980.83,1.03118506294303
3981.73,1.0324311121119885
3982.63,1.0355391679354655
3983.53,1.033869659322504
3984.43,1.0318000838200898
3985.33,1.0287896122826246
3986.23,1.0347049050123431
3987.13,1.0356319026973935
3988.03,1.0315800777129036
3988.93,1.0333805718420601
3989.83,1.0353700695748536
3990.73,1.0350453655225695
3991.63,1.0318864229493236
3992.53,1.0319757208394358
3993.43,1.027550825371281
3994.33,1.023344560425966
3995.23,1.0098126957909324
3996.13,1.0030485148533446
3997.03,0.995375035195392
3997.93,0.9809581511259802
3998.83,0.9840124983115345
3999.73,0.985542338580501
4000.63,0.9852591608948054
4001.53,0.9904832047966695
4002.43,0.994541565537138
4003.33,0.9879321367327586
4004.23,0.9870841818457886
4005.13,0.9771629657935286
4006.03,0.9736303639132022
4006.93,0.9696318847358248
4007.83,0.9711814067593718
4008.73,0.9777811677863044
4009.63,0.9809627798843313
4010.53,0.9821424345810716
4011.43,0.9892101281692695
4012.33,0.9896211017389229
4013.23,0.9886906896465323
4014.13,0.9922136400537293
4015.03,0.9910012828003838
4015.93,0.9942953121529171
4016.84,0.9893997614186039
4017.74,0.9958129643434714
4018.64,0.9963726214333329
4019.54,0.9959890800513859
4020.44,1.0012409796110513
4021.34,1.0045077287416944
4022.24,1.0000681858631522
4023.14,1.0032294005042504
4024.04,1.0025547106591401
4024.94,1.003459601615777
4025.84,1.0051363893023504
4026.74,1.006700990476872
4027.64,1.006670133890533
4028.54,1.0076900170960723
4029.44,1.0009049402534183
4030.34,0.9986172346405783
4031.24,0.9884068356586123
4032.14,0.9821663503734136
4033.04,0.9790918133762614
4033.94,0.9788210559163913
4034.84,0.9898545968175202
4035.74,0.9985185509698482
4036.64,1.0154110513617212
4037.54,1.027393957107178
4038.44,1.0354883279592282
4039.34,1.0448568269370717
4040.24,1.0409636846980848
4041.14,1.047808372054186
4042.04,1.0412441046340362
4042.94,1.0314189680765848
4043.84,1.0245362332171806
4044.74,1.0135340330892808
4045.64,1.0083695430460409
4046.54,1.0051079475460503
4047.44,1.0091931470506643
4048.34,1.0198264513466349
4049.24,1.0307396194160683
4050.14,1.042392768193256
4051.04,1.0503860112043888
4051.94,1.0563195166679868
4052.84,1.0561345912892273
4053.74,1.0578859720841296
4054.65,1.0542028319733945
4055.55,1.0504589054071116
4056.45,1.050676648775883
4057.35,1.0484406793735939
4058.25,1.0497111628241729
4059.15,1.0511202972194744
4060.05,1.0626940747134246
4060.95,1.056408691020958
4061.85,1.0540320305930118
4062.75,1.049865597748956
4063.65,1.0411939792505975
4064.55,1.040668134114201
4065.45,1.0427388036175336
4066.35,1.0386996296578992
4067.25,1.045831724085194
4068.15,1.0543954176467636
4069.05,1.0565104911591354
4069.95,1.0649599055332761
4070.85,1.0618464563692673
4071.75,1.0592424321734017
4072.65,1.0554516664825278
4073.55,1.0580122210457832
4074.45,1.0515127836168137
4075.35,1.0374561257689265
4076.25,1.0277965377614395
4077.15,1.0228739654212167
4078.05,1.0125763721933736
4078.95,1.0107160893221425
4079.85,1.013798974946479
4080.75,1.0193018382630528
4081.65,1.0283806815322187
4082.55,1.032578718492041
4083.45,1.0330311410063013
4084.35,1.030548204771441
4085.25,1.0256159448033035
4086.15,1.026815107114266
4087.05,1.0227599264426295
4087.95,1.018315377027064
4088.85,1.0236621021567387
4089.75,1.01703881010359
4090.65,1.0121751577323224
4091.55,0.9975577390128252
4092.45,0.9794631840338307
4093.36,0.9644639650899969
4094.26,0.936853258443211
4095.16,0.913657920045334
4096.06,0.8868251809551371
4096.96,0.8497842450430044
4097.86,0.8169053964052948
4098.76,0.7774712352454076
4099.66,0.7322627806933161
4100.56,0.6910875183075672
4101.46,0.6606975588109613
4102.36,0.6431123495134069
4103.26,0.6408879415216681
4104.16,0.6579019952975138
4105.06,0.6914233113482857
4105.96,0.7306284133753006
4106.86,0.7698330597937253
4107.76,0.8091666447873752
4108.66,0.8390737502131996
4109.56,0.8632000475844922
4110.46,0.8895218104925752
4111.36,0.9069820134896251
4112.26,0.9274703080951779
4113.16,0.9480741605811671
4114.06,0.9645535280478408
4114.96,0.9830568494998358
4115.86,0.995375713351608
4116.76,1.0058996309971846
4117.66,1.009594569897759
4118.56,1.0149850831550378
4119.46,1.0178565067722705
4120.36,1.0166431013505832
4121.26,1.0216770806913755
4122.16,1.0259337502296892
4123.06,1.0307289136073217
4123.96,1.0385390955096037
4124.86,1.040791261658243
4125.76,1.0488552177106665
4126.66,1.0512900934646818
4127.56,1.05000035544699
4128.46,1.0528739846522348
4129.36,1.0519523590086424
4130.26,1.0448648633203832
4131.17,1.0398110024972353
4132.06,1.0383586651099934
4132.97,1.0344223680290838
4133.87,1.0378219471291588
4134.77,1.0397323301432535
4135.67,1.051144678370059
4136.57,1.054712371674712
4137.47,1.0692167868633164
4138.37,1.070783859401134
4139.27,1.0796226427336142
4140.17,1.0775896149826814
4141.07,1.077329846325996
4141.97,1.0666456143537937
4142.87,1.0582378827874412
4143.77,1.0495155551860762
4144.67,1.0498182957077233
4145.57,1.045614897343156
4146.47,1.0526516347406984
4147.37,1.0505272539862895
4148.27,1.0575303843539707
4149.17,1.0580399482447382
4150.07,1.0590250874627047
4150.97,1.0588888788806456
4151.87,1.0550053496850282
4152.77,1.052253755003259
4153.67,1.0487087479427775
4154.57,1.0413644164420985
4155.47,1.0421335432826706
4156.37,1.041630935638068
4157.27,1.037654713807064
4158.17,1.0426235701279438
4159.07,1.048851889015738
4159.97,1.0532548548500376
4160.87,1.061125723566195
4161.77,1.0588367011477222
4162.67,1.0616688682561177
4163.57,1.0586158163211834
4164.47,1.0605208759809657
4165.37,1.0567151978352274
4166.27,1.0541017796118346
4167.17,1.0554145438031324
4168.07,1.0493989661535164
4168.98,1.0411323483046462
4169.88,1.0399225756304036
4170.78,1.0306346665756034
4171.68,1.0184237815500607
4172.58,1.0056282019337168
4173.48,0.996369999726121
4174.38,0.9893144514308851
4175.28,0.9884073422002145
4176.18,0.9891439597529088
4177.08,0.9918285214767624
4177.98,0.9952989917654118
4178.88,1.0008676412195445
4179.78,1.0014287395694572
4180.68,1.0040137374282365
4181.58,1.0065365961933463
4182.48,1.012921353071125
4183.38,1.0107833236862964
4184.28,1.0167364198826925
4185.18,1.0156361684091966
4186.08,1.013945832325535
4186.98,1.0118196977722453
4187.88,1.0068045697124535
4188.78,1.0061083988548967
4189.68,1.0093385936771995
4190.58,1.0152621142034277
4191.48,1.0160840942252232
4192.38,1.0146314686799043
4193.28,1.0203851765842669
4194.18,1.0163103230866655
4195.08,1.0142453478962046
4195.98,1.0117481462702718
4196.88,1.0031011533790333
4197.78,0.9934958579468762
4198.68,0.9856724304342653
4199.58,0.9850384315633973
4200.48,0.9787952465478438
4201.38,0.9774496224248942
4202.28,0.9790979791512258
4203.18,0.9803878420432077
4204.08,0.9858097374277847
4204.98,0.991180252246659
4205.88,0.9955825036725188
4206.79,0.9949138690799342
4207.69,1.0052177642124647
4208.59,1.0098435403269916
4209.49,1.0106214486920946
4210.39,1.0127146596423156
4211.29,1.011788459996767
4212.19,1.009904603995966
4213.09,1.0084237539732879
4213.99,1.0014199814018092
4214.89,1.0007465269645475
4215.79,0.9899130099354135
4216.69,0.9924061250866363
4217.59,0.9908215531650467
4218.49,0.9916166165631711
4219.39,1.0068910966263136
4220.29,1.007965163470415
4221.19,1.0095232016330997
4222.09,1.0093557229513868
4222.99,0.9974050099777891
4223.89,0.98798505635439
4224.79,0.9746958035211468
4225.69,0.9542485499040784
4226.59,0.9483801311457284
4227.49,0.942987636092642
4228.39,0.9463906595407859
4229.29,0.9583702674283716
4230.19,0.9718375532685368
4231.09,0.9822813736277759
4231.99,0.9957433104173826
4232.89,0.995459926965072
4233.79,0.9939735147965688
4234.69,0.9932776556455302
4235.59,0.9902213429525796
4236.49,0.9901722215808896
4237.39,0.9882242540952288
4238.29,0.9866016275533226
4239.19,0.9932256061568527
4240.09,1.001263932248453
4240.99,1.0070190417211573
4241.89,1.01411541938189
4242.79,1.0166122186646542
4243.69,1.0194432872811807
4244.59,1.0192833838803375
4245.5,1.0176810077000644
4246.4,1.0143036867690083
4247.3,1.005673202007031
4248.2,1.0002190302729643
4249.1,0.9939184393556244
4250.0,0.9960898326040852
4250.9,1.0016222367001415
4251.8,1.0039121797927082
4252.7,1.0039614830667667
4253.6,1.011436394005128
4254.5,1.0165929326717669
4255.4,1.020528460517529
4256.3,1.0202586412462384
4257.2,1.023447055169283
4258.1,1.0224227092530564
4259.0,1.019446110055435
4259.9,1.0182027214115084
4260.8,1.0187004756117064
4261.7,1.018499064512999
4262.6,1.0237446749182784
4263.5,1.0320906381819632
4264.4,1.0416481354576241
4265.3,1.042382283254345
4266.2,1.0511204700290417
4267.1,1.0526743354539767
4268.0,1.0452739548949743
4268.9,1.0392909130071306
4269.8,1.026539489033748
4270.7,1.0153530168822964
4271.6,1.0073403949360005
4272.5,0.999388435785041
4273.4,0.9958188643629562
4274.3,0.9972877177635853
4275.2,1.0014908251125993
4276.1,1.0146904656588216
4277.0,1.0206940997616658
4277.9,1.0333131935305577
4278.8,1.036458281307036
4279.7,1.0406663710957822
4280.6,1.0395534831861257
4281.5,1.0366592290680205
4282.4,1.0396659077548958
4283.31,1.0362930180752925
4284.21,1.0315141425779515
4285.11,1.0299691554376513
4286.01,1.0211805853716445
4286.91,1.0209196111249434
4287.81,1.0080918548726925
4288.71,1.0021706872197413
4289.61,0.9889518902139002
4290.51,0.989616533184262
4291.41,0.9915027073761313
4292.31,0.9935546100978286
4293.21,1.0015198511047636
4294.11,1.0045602584701403
4295.01,1.0103219489853894
4295.91,1.0089107080889166
4296.81,0.9992353976474831
4297.71,0.9908482391057659
4298.61,0.9745660133871323
4299.51,0.9646195044335981
4300.41,0.9554693832481912
4301.31,0.9431295255074243
4302.21,0.9384845295762272
4303.11,0.9413098839044287
4304.01,0.9401314347433383
4304.91,0.9395217194498117
4305.81,0.9467534326997882
4306.71,0.9424449410314061
4307.61,0.9432201660919215
4308.51,0.9426447555331751
4309.41,0.9400376834572468
4310.31,0.9477459212114866
4311.21,0.9507425486710124
4312.11,0.9560898747441084
4313.01,0.9661513207573699
4313.91,0.9782367704907979
4314.81,0.9918519849790483
4315.71,1.004885086893004
4316.61,1.024857252790217
4317.51,1.0406164649267147
4318.41,1.046808160884108
4319.31,1.0533306587803855
4320.21,1.0535690583889776
4321.12,1.0475899555296133
4322.02,1.0374876015153134
4322.92,1.0172262030731678
4323.82,1.0004876208357918
4324.72,0.9886441865842344
4325.62,0.9656739215136477
4326.52,0.9651795849881432
4327.42,0.9621863394994834
4328.32,0.9667727289454353
4329.22,0.9643371792116551
4330.12,0.9703429055150706
4331.02,0.9645146992587809
4331.92,0.957205382716574
4332.82,0.9507199941135472
4333.72,0.9333143382422864
4334.62,0.9144874347682596
4335.52,0.887553366954981
4336.42,0.8529615444148293
4337.32,0.8140599163026284
4338.22,0.7719926044149993
4339.12,0.7308324019688965
4340.02,0.6945811141205844
4340.92,0.675361970207523
4341.82,0.6737630277026615
4342.72,0.6849789038848927
4343.62,0.7137158202706178
4344.52,0.7490744147037838
4345.42,0.7893005904153523
4346.32,0.832083339346593
4347.22,0.8656662769770308
4348.12,0.8890735346303283
4349.02,0.912287808169998
