wave,flux
3700.85,-5.029459475292222e-05
3701.75,-4.9532781262971315e-05
3702.65,-4.739710794891141e-05
3703.55,-4.4315550578921645e-05
3704.45,-4.1287774114875845e-05
3705.35,-3.798320554030254e-05
3706.25,-3.533126182723838e-05
3707.15,-3.38600327270024e-05
3708.05,-3.3916321822010506e-05
3708.96,-3.493098467780836e-05
3709.86,-3.7289162588654476e-05
3710.76,-4.060743767926714e-05
3711.66,-4.4743745544709066e-05
3712.56,-4.863124842137484e-05
3713.46,-5.194162123495865e-05
3714.36,-5.4221239328768034e-05
3715.26,-5.445946349714694e-05
3716.16,-5.318499279936976e-05
3717.06,-5.039531384504085e-05
3717.96,-4.620656833383174e-05
3718.86,-4.119251226501215e-05
3719.76,-3.6594294892456024e-05
3720.66,-3.2889857595932795e-05
3721.56,-3.103951254000921e-05
3722.46,-3.133357947994317e-05
3723.36,-3.370432785189885e-05
3724.26,-3.6972171843245875e-05
3725.16,-4.0437042108737496e-05
3726.06,-4.328283667390032e-05
3726.96,-4.4752265426647906e-05
3727.86,-4.5271038039399234e-05
3728.76,-4.513369173230627e-05
3729.66,-4.478436289253262e-05
3730.56,-4.370647468392124e-05
3731.46,-4.1700133384443306e-05
3732.36,-3.87829152181487e-05
3733.26,-3.5164600459881094e-05
3734.16,-3.145346538106884e-05
3735.06,-2.84921527662934e-05
3735.96,-2.7027972852193942e-05
3736.86,-2.724327282596767e-05
3737.76,-2.9439535808810935e-05
3738.66,-3.327558307051197e-05
3739.56,-3.746659139357752e-05
3740.46,-4.133141307054935e-05
3741.36,-4.3833035279576466e-05
3742.26,-4.44829717955876e-05
3743.16,-4.302948997502924e-05
3744.06,-4.0570837195159904e-05
3744.96,-3.741178653482759e-05
3745.86,-3.441806247688674e-05
3746.76,-3.211759930716833e-05
3747.67,-3.0489574460401207e-05
3748.57,-2.9938137068470052e-05
3749.47,-3.0737455418097704e-05
3750.37,-3.3256625606334316e-05
3751.27,-3.7214874714779944e-05
3752.17,-4.2432657789828056e-05
3753.07,-4.777998422780737e-05
3753.97,-5.251946759730104e-05
3754.87,-5.6143540878592045e-05
3755.77,-5.679191404473256e-05
3756.67,-5.5804814493354574e-05
3757.57,-5.3244183118063756e-05
3758.47,-4.979506115588503e-05
3759.37,-4.766809956367023e-05
3760.27,-4.679312436847087e-05
3761.17,-4.690293724600709e-05
3762.07,-4.8009555921695987e-05
3762.97,-4.8804797952000085e-05
3763.87,-4.9367464721794714e-05
3764.77,-5.006977048433679e-05
3765.67,-5.067625257374454e-05
3766.57,-5.119818255273847e-05
3767.47,-5.279604327933989e-05
3768.37,-5.478262401215668e-05
3769.27,-5.710592477358184e-05
3770.17,-6.041709792448626e-05
3771.07,-6.34339353679062e-05
3771.97,-6.655070641962162e-05
3772.87,-6.873309661752131e-05
3773.77,-7.094290545086796e-05
3774.67,-7.228648293815022e-05
3775.57,-7.302009656063238e-05
3776.47,-7.356596420564999e-05
3777.37,-7.405133719892796e-05
3778.27,-7.516115165958544e-05
3779.17,-7.642634023136477e-05
3780.07,-7.824251297539045e-05
3780.97,-8.031677355460548e-05
3781.87,-8.137686097508105e-05
3782.77,-8.259604979085343e-05
3783.67,-8.231502505631553e-05
3784.57,-8.087218829802358e-05
3785.47,-7.792517006678308e-05
3786.38,-7.436342051969955e-05
3787.28,-6.992112434508022e-05
3788.18,-6.646610165888107e-05
3789.08,-6.355997709801995e-05
3789.98,-6.24995690329589e-05
3790.88,-6.274380982822669e-05
3791.78,-6.291082579657667e-05
3792.68,-6.377713905140213e-05
3793.58,-6.340118439903013e-05
3794.48,-6.253674616898193e-05
3795.38,-6.100085972509191e-05
3796.28,-5.95926001528246e-05
3797.18,-5.861524947596421e-05
3798.08,-5.804220857844803e-05
3798.98,-5.860430073740579e-05
3799.88,-6.0411929774226145e-05
3800.78,-6.406193118552254e-05
3801.68,-6.894384815314308e-05
3802.58,-7.40724853879656e-05
3803.48,-7.875242052123844e-05
3804.38,-8.157766727177984e-05
3805.28,-8.371896556761352e-05
3806.18,-8.323969924208933e-05
3807.08,-8.27265492145775e-05
3807.98,-8.267708269075322e-05
3808.88,-8.25726916603981e-05
3809.78,-8.362685343673337e-05
3810.68,-8.41433602317675e-05
3811.58,-8.34570786745233e-05
3812.48,-8.13971772439958e-05
3813.38,-7.74806023108223e-05
3814.28,-7.304535306921544e-05
3815.18,-6.849314111948036e-05
3816.08,-6.500874944060032e-05
3816.98,-6.297253311079891e-05
3817.88,-6.145057632092806e-05
3818.78,-6.033404570178298e-05
3819.68,-5.898679262930592e-05
3820.58,-5.770989279245943e-05
3821.48,-5.634010371952106e-05
3822.38,-5.539979124207116e-05
3823.28,-5.453578014296401e-05
3824.18,-5.3454302123718804e-05
3825.09,-5.1991816068297435e-05
3825.99,-4.979750033009637e-05
3826.89,-4.883108952574654e-05
3827.79,-4.809073564658086e-05
3828.69,-4.844470310208893e-05
3829.59,-4.955870642310243e-05
3830.49,-5.054061980706398e-05
3831.39,-5.0726914585813565e-05
3832.29,-5.051259036506786e-05
3833.19,-5.02581994323616e-05
3834.09,-5.000489909052639e-05
3834.99,-5.079650851670635e-05
3835.89,-5.1537461479724766e-05
3836.79,-5.2311855001785044e-05
3837.69,-5.2837079347041825e-05
3838.59,-5.310534777790324e-05
3839.49,-5.3485027701466094e-05
3840.39,-5.524526270525765e-05
3841.29,-5.871674202165538e-05
3842.19,-6.418604433220955e-05
3843.09,-7.028542075514952e-05
3843.99,-7.646409680212566e-05
3844.89,-8.157812677154686e-05
3845.79,-8.562602396380822e-05
3846.69,-8.782716145183053e-05
3847.59,-8.883732286120999e-05
3848.49,-8.842504476750617e-05
3849.39,-8.809763534427266e-05
3850.29,-8.731375413667854e-05
3851.19,-8.703939111583368e-05
3852.09,-8.697954691260161e-05
3852.99,-8.704587012907622e-05
3853.89,-8.651609301963119e-05
3854.79,-8.504757375980438e-05
3855.69,-8.299277952319161e-05
3856.59,-7.971929720453389e-05
3857.49,-7.624954731640275e-05
3858.39,-7.302995720390969e-05
3859.29,-7.115439126333121e-05
3860.19,-7.096333109109401e-05
3861.09,-7.331132604371582e-05
3861.99,-7.823951506319693e-05
3862.9,-8.370380984370541e-05
3863.8,-8.966290968249667e-05
3864.7,-9.351769993919011e-05
3865.6,-9.584192014399071e-05
3866.5,-9.681578616077553e-05
3867.4,-9.618890523349013e-05
3868.3,-9.445100882582482e-05
3869.2,-9.226798588743273e-05
3870.1,-8.978493868352932e-05
3871.0,-8.735422417342763e-05
3871.9,-8.648050830282837e-05
3872.8,-8.681160290251706e-05
3873.7,-8.98601381422959e-05
3874.6,-9.422628743977805e-05
3875.5,-9.8642284291152e-05
3876.4,-0.00010100566711932084
3877.3,-0.00010095667895935717
3878.2,-9.973853979215314e-05
3879.1,-9.795190559102343e-05
3880.0,-9.699374374431003e-05
3880.9,-9.699061908458643e-05
3881.8,-9.78347159467328e-05
3882.7,-9.9462796509508e-05
3883.6,-0.0001014323335603024
3884.5,-0.00010248290386055813
3885.4,-0.00010266085600027202
3886.3,-0.00010220953945452896
3887.2,-0.00010185455867335456
3888.1,-0.0001026832292627191
3889.0,-0.00010593354915744471
3889.9,-0.0001123774108228895
3890.8,-0.00012086367580135926
3891.7,-0.00012937300509099532
3892.6,-0.00013693853936648054
3893.5,-0.0001423607141742186
3894.4,-0.0001452295317579223
3895.3,-0.00014654991829207706
3896.2,-0.00014741775803483494
3897.1,-0.00014778353819465938
3898.0,-0.00014750021921455277
3898.9,-0.00014842056787164586
3899.8,-0.00014823178150404328
3900.7,-0.00014882959397800844
3901.6,-0.00014890170364203087
3902.51,-0.00014855584978136802
3903.41,-0.00014782716313797395
3904.31,-0.00014652052773860138
3905.21,-0.000145073857497166
3906.11,-0.00014594996399650982
3907.01,-0.0001495661564046178
3907.91,-0.00015685531261902806
3908.81,-0.00016439415006731318
3909.71,-0.00017330920544005772
3910.61,-0.00018047955256827772
3911.51,-0.0001870749217952386
3912.41,-0.00019154631460816215
3913.31,-0.00019429610397348046
3914.21,-0.00019546707422399395
3915.11,-0.00019523780079206096
3916.01,-0.00019248323456864553
3916.91,-0.00018899940308263595
3917.81,-0.0001836485500670986
3918.71,-0.00017757700466918772
3919.61,-0.0001707242851315737
3920.51,-0.00016373872449926228
3921.41,-0.0001570016232502643
3922.31,-0.00015283622942993054
3923.21,-0.00015024963225468673
3924.11,-0.00014925212881194852
3925.01,-0.00014798266240671033
3925.91,-0.0001442155648340873
3926.81,-0.00013756549449340342
3927.71,-0.0001278158155126924
3928.61,-0.00011547238280494744
3929.51,-0.00010341863977564492
3930.41,-9.167069872831271e-05
3931.31,-8.056976107587387e-05
3932.21,-7.145194571894889e-05
3933.11,-6.429191956849494e-05
3934.01,-6.119968849220743e-05
3934.91,-6.175430425155125e-05
3935.81,-6.633051507511439e-05
3936.71,-7.467500190748693e-05
3937.61,-8.589730967670397e-05
3938.51,-9.879481264290353e-05
3939.42,-0.00011286628024360076
3940.32,-0.00012553643920736716
3941.22,-0.000135594211435247
3942.12,-0.0001442654559005768
3943.02,-0.00015086655431849214
3943.92,-0.00015663161254297366
3944.82,-0.00016391050831673343
3945.72,-0.00017390108681433148
3946.62,-0.00018508957444504206
3947.52,-0.00019714200140051
3948.42,-0.0002076158742498629
3949.32,-0.00021923219632150333
3950.22,-0.000229039819946357
3951.12,-0.00023626882782996114
3952.02,-0.00024237642735931199
3952.92,-0.000247382507187789
3953.82,-0.0002497414680596837
3954.72,-0.0002526582596681232
3955.62,-0.0002518763045189485
3956.52,-0.00025040576687543505
3957.42,-0.00024764838588233276
3958.32,-0.0002435452354799296
3959.22,-0.00023673268739087756
3960.12,-0.00022607021107149569
3961.02,-0.00021330323290380844
3961.92,-0.0001954334516996516
3962.82,-0.00017948281222153115
3963.72,-0.00016326557565231702
3964.62,-0.0001494844858559277
3965.52,-0.00013555411043741388
3966.42,-0.00012236441773394208
3967.32,-0.00010946983398482692
3968.22,-9.9743805556894e-05
3969.12,-9.481158806662694e-05
3970.02,-9.559818571889755e-05
3970.92,-0.00010330213010565052
3971.82,-0.00011641301750200378
3972.72,-0.00013405357980869002
3973.62,-0.00015563137281680633
3974.52,-0.0001787522014704463
3975.42,-0.00020226994130610585
3976.32,-0.00022611018638283992
3977.22,-0.0002490752189036749
3978.13,-0.000271644203332288
3979.03,-0.00029128256115082467
3979.93,-0.0003087300621188873
3980.83,-0.0003211359150609894
3981.73,-0.00033201702645211983
3982.63,-0.00033763111098897904
3983.53,-0.00034375185000871754
3984.43,-0.0003494614313622737
3985.33,-0.0003564334355902153
3986.23,-0.0003627189707877138
3987.13,-0.0003713917168090438
3988.03,-0.0003773100861955801
3988.93,-0.0003863943721367842
3989.83,-0.00039327136657605255
3990.73,-0.0003977752448685587
3991.63,-0.00040538292802487367
3992.53,-0.0004106247738764873
3993.43,-0.0004146720819272467
3994.33,-0.0004179633712958018
3995.23,-0.0004175312821126601
3996.13,-0.0004140207962783457
3997.03,-0.0004146645659457776
3997.93,-0.0004183530913988801
3998.83,-0.0004238901677485995
3999.73,-0.0004349505423659054
4000.63,-0.0004472112547364661
4001.53,-0.0004594674914932831
4002.43,-0.0004661654695715459
4003.33,-0.00046616128337257176
4004.23,-0.00046575724624295573
4005.13,-0.00045469708542679617
4006.03,-0.00044883001635667106
4006.93,-0.0004471977269393754
4007.83,-0.00045173834846797787
4008.73,-0.00046230591400733606
4009.63,-0.00047542369053218687
4010.53,-0.0004908867456832663
4011.43,-0.0005037511914764006
4012.33,-0.0005154283006523506
4013.23,-0.000523458162136501
4014.13,-0.0005319919025909038
4015.03,-0.0005366581536664519
4015.93,-0.0005399335865067053
4016.84,-0.0005465346910755794
4017.74,-0.0005518599615248312
4018.64,-0.0005545282432817316
4019.54,-0.0005588871807678691
4020.44,-0.0005654253329133637
4021.34,-0.0005677652466545761
4022.24,-0.0005706376628384689
4023.14,-0.0005732049621224418
4024.04,-0.0005762023793510052
4024.94,-0.0005805039933598781
4025.84,-0.0005859146297284594
4026.74,-0.0005918521913386008
4027.64,-0.0005978915629661636
4028.54,-0.0005987322766976063
4029.44,-0.0005917400990279213
4030.34,-0.000572781609079691
4031.24,-0.000553362137296156
4032.14,-0.0005328593463493178
4033.04,-0.0005208057860169194
4033.94,-0.000517964519973618
4034.84,-0.0005311526254437328
4035.74,-0.0005528173724538545
4036.64,-0.0005802413605451021
4037.54,-0.0006148889788674836
4038.44,-0.0006417503002414408
4039.34,-0.0006606354224294388
4040.24,-0.0006723844651664827
4041.14,-0.0006698652261976839
4042.04,-0.0006635376418597567
4042.94,-0.0006417753653986442
4043.84,-0.0006150543860213142
4044.74,-0.0005876825901153905
4045.64,-0.0005637057254344666
4046.54,-0.0005528449614591781
4047.44,-0.0005623847815910092
4048.34,-0.0005837337818330025
4049.24,-0.0006226023795534003
4050.14,-0.0006588289099483556
4051.04,-0.0006904631715311763
4051.94,-0.0007081459898507335
4052.84,-0.0007161786892492962
4053.74,-0.0007178710751280925
4054.65,-0.000710010330728952
4055.55,-0.0006995653577421428
4056.45,-0.0006902349981448656
4057.35,-0.0006847003818568907
4058.25,-0.0006814944759055281
4059.15,-0.0006839683709989927
4060.05,-0.0006865140251775945
4060.95,-0.0006866568274366945
4061.85,-0.0006797662307197388
4062.75,-0.0006719176839972037
4063.65,-0.0006597245038467651
4064.55,-0.0006525770537482416
4065.45,-0.0006546102903345832
4066.35,-0.0006691214061304273
4067.25,-0.0006952835624507621
4068.15,-0.0007194618461378302
4069.05,-0.0007415589630406118
4069.95,-0.0007557441998384917
4070.85,-0.0007616532480882045
4071.75,-0.000759664657872422
4072.65,-0.0007622262349501155
4073.55,-0.000765290539556186
4074.45,-0.0007696533060793453
4075.35,-0.0007727486009111068
4076.25,-0.0007743640092891977
4077.15,-0.0007702433866710486
4078.05,-0.0007782125740574282
4078.95,-0.0007957859738757465
4079.85,-0.0008192805223275911
4080.75,-0.0008511510460798534
4081.65,-0.0008864528448703924
4082.55,-0.0009088126120490054
4083.45,-0.0009249068015897501
4084.35,-0.0009410921976982855
4085.25,-0.0009532244923596055
4086.15,-0.0009703836824384314
4087.05,-0.0009984121095032127
4087.95,-0.0010243318287110805
4088.85,-0.001047306747933283
4089.75,-0.00107128696045517
4090.65,-0.0010848813249928963
4091.55,-0.001085460410187939
4092.45,-0.0010820016508594806
4093.36,-0.0010766234467822705
4094.26,-0.0010598451135213117
4095.16,-0.001046260885654569
4096.06,-0.0010215281302821517
4096.96,-0.0010033616568277497
4097.86,-0.0009797890635191325
4098.76,-0.0009562951532158237
4099.66,-0.0009371429977710967
4100.56,-0.0009209147860382543
4101.46,-0.0009065913722140492
4102.36,-0.0009052661286518069
4103.26,-0.0009160546775568854
4104.16,-0.000945058829373334
4105.06,-0.0009877746665470097
4105.96,-0.0010281631417101125
4106.86,-0.001065754162719753
4107.76,-0.0011033249214645812
4108.66,-0.0011223152379176557
4109.56,-0.0011365227750136401
4110.46,-0.0011371068982095245
4111.36,-0.0011475349265935501
4112.26,-0.0011566693165667998
4113.16,-0.0011713932397893648
4114.06,-0.0011931444776867954
4114.96,-0.0012211179571809982
4115.86,-0.0012356328882057828
4116.76,-0.0012535837164125044
4117.66,-0.0012521354111075858
4118.56,-0.0012501521551007456
4119.46,-0.0012465883074460437
4120.36,-0.0012444822458880158
4121.26,-0.0012520787130025548
4122.16,-0.001257199643728128
4123.06,-0.0012747176773680261
4123.96,-0.001293660397077428
4124.86,-0.0013030524392358956
4125.76,-0.0013200391439785345
4126.66,-0.001319600995113425
4127.56,-0.0013257980967613322
4128.46,-0.0013195863073379745
4129.36,-0.001304123897959701
4130.26,-0.0012844572062921584
4131.17,-0.0012693979988375357
4132.06,-0.0012515838438005868
4132.97,-0.0012438268292663196
4133.87,-0.0012467625065014133
4134.77,-0.0012683083068606503
4135.67,-0.0013123767506057517
4136.57,-0.0013565080901066207
4137.47,-0.00141020134441818
4138.37,-0.001451053778572925
4139.27,-0.0014782553368222924
4140.17,-0.0014806617645103997
4141.07,-0.0014696773968474464
4141.97,-0.0014363564060968516
4142.87,-0.0014035513218771689
4143.77,-0.0013585786095735724
4144.67,-0.0013472013031224923
4145.57,-0.0013590454490377236
4146.47,-0.0013785680496152485
4147.37,-0.0014240660988691083
4148.27,-0.0014691119252138842
4149.17,-0.0014949345231974646
4150.07,-0.0015137551565515888
4150.97,-0.0015147690770697833
4151.87,-0.0015266492820597095
4152.77,-0.0015213563982566741
4153.67,-0.0015168109714090723
4154.57,-0.0015286813800639116
4155.47,-0.001533020883748736
4156.37,-0.0015585828782596692
4157.27,-0.0015895031328463116
4158.17,-0.0016197366261894658
4159.07,-0.00166726778436903
4159.97,-0.0017139284963588184
4160.87,-0.0017662080166784314
4161.77,-0.0018069610518040883
4162.67,-0.0018525415223003161
4163.57,-0.0018673641793430814
4164.47,-0.0018764036831931579
4165.37,-0.0018773981250977206
4166.27,-0.001865583948320794
4167.17,-0.001860622891710045
4168.07,-0.0018435658410065239
4168.98,-0.0018380754681393688
4169.88,-0.0018369356136222305
4170.78,-0.0018244258747591492
4171.68,-0.001810395516072208
4172.58,-0.0017883539751978675
4173.48,-0.001773616662791621
4174.38,-0.0017586321264053163
4175.28,-0.0017591490038072945
4176.18,-0.0017833738402442307
4177.08,-0.0018245364650057705
4177.98,-0.001851357901734094
4178.88,-0.0018922491364278707
4179.78,-0.0019207877068365311
4180.68,-0.0019572136630799713
4181.58,-0.0019864375749072175
4182.48,-0.0020163385319713644
4183.38,-0.0020383302327044188
4184.28,-0.002068138345916899
4185.18,-0.0020863121617886453
4186.08,-0.0020955322043104798
4186.98,-0.0021118660052230937
4187.88,-0.0021159802866116298
4188.78,-0.002133484982248894
4189.68,-0.0021542201678513293
4190.58,-0.002193154417904494
4191.48,-0.002249026345794536
4192.38,-0.002280909421821109
4193.28,-0.002319888279817814
4194.18,-0.0023325216560076208
4195.08,-0.0023336918368526854
4195.98,-0.0022941729333690202
4196.88,-0.0022604645953836393
4197.78,-0.0022175697055549803
4198.68,-0.0021818652724994595
4199.58,-0.0021652953572383537
4200.48,-0.0021704261668138275
4201.38,-0.0021837426754791572
4202.28,-0.0022332289079367005
4203.18,-0.0022873589814427432
4204.08,-0.0023634320437310643
4204.98,-0.002455024477706035
4205.88,-0.0025602911208966765
4206.79,-0.0026380915603136787
4207.69,-0.0027158955305834785
4208.59,-0.0027818141540780464
4209.49,-0.002844829941417101
4210.39,-0.0028568190424482403
4211.29,-0.0028790768254995745
4212.19,-0.0028850098417416
4213.09,-0.002863943014185887
4213.99,-0.0028691745529859664
4214.89,-0.002848658832131621
4215.79,-0.0028406408411198155
4216.69,-0.0028932219463820887
4217.59,-0.002945901366498701
4218.49,-0.0030247777730758496
4219.39,-0.003123242752380791
4220.29,-0.0031887466143058823
4221.19,-0.003199512064942511
4222.09,-0.003179456520588852
4222.99,-0.0030937924023430566
4223.89,-0.0029318230288609562
4224.79,-0.0027595178867274727
4225.69,-0.0025762425993928707
4226.59,-0.0024433153666404248
4227.49,-0.0024089167471967174
4228.39,-0.002465097037480207
4229.29,-0.002600833343762547
4230.19,-0.002800335243889275
4231.09,-0.0030064491634611327
4231.99,-0.0031775307162216575
4232.89,-0.0033020902261228766
4233.79,-0.003362017251119009
4234.69,-0.003390300535786268
4235.59,-0.0033724254323366375
4236.49,-0.003379884869529125
4237.39,-0.003397110760840955
4238.29,-0.0034225512162862496
4239.19,-0.003514782383673846
4240.09,-0.0035933503489099282
4240.99,-0.003710544677524006
4241.89,-0.003848345272719175
4242.79,-0.003964100865726757
4243.69,-0.004081400359922899
4244.59,-0.004168893622879901
4245.5,-0.004226991289886489
4246.4,-0.00423167064175096
4247.3,-0.004186853990874202
4248.2,-0.004115393285704289
4249.1,-0.004021860222929348
4250.0,-0.003924835573624483
4250.9,-0.003861187740533138
4251.8,-0.0038499041537181557
4252.7,-0.00387086765484792
4253.6,-0.0039084237040904
4254.5,-0.003968040769090851
4255.4,-0.004037180001241931
4256.3,-0.004113034267905574
4257.2,-0.004182003669577713
4258.1,-0.004219761568408608
4259.0,-0.0042594809635175465
4259.9,-0.004260409357045757
4260.8,-0.004294156227713482
4261.7,-0.004348254941100054
4262.6,-0.004493841792528725
4263.5,-0.00466549040009829
4264.4,-0.004892494360026751
4265.3,-0.00505474604243268
4266.2,-0.005177488944115524
4267.1,-0.005223111715852903
4268.0,-0.005167281123993115
4268.9,-0.005016224206976342
4269.8,-0.004821398471394166
4270.7,-0.0046180890149428765
4271.6,-0.004409402834843318
4272.5,-0.004223225976755559
4273.4,-0.0041707049600387255
4274.3,-0.004218461578016834
4275.2,-0.004364777395964472
4276.1,-0.004590735242323549
4277.0,-0.004852348803369493
4277.9,-0.005135049197610466
4278.8,-0.005363902223792377
4279.7,-0.005529106366421494
4280.6,-0.005610537133283413
4281.5,-0.00566777739058194
4282.4,-0.0056924202740154745
4283.31,-0.005687728718255071
