wave,flux
3700.85,-0.0039116799525510245
3701.75,-0.003920456350184832
3702.65,-0.0038717566530367415
3703.55,-0.0037567059513976997
3704.45,-0.00362363322277114
3705.35,-0.003543067671073571
3706.25,-0.0035031858330512393
3707.15,-0.0035306219334006613
3708.05,-0.003590806352771868
3708.96,-0.0036893932472604816
3709.86,-0.003817225919523551
3710.76,-0.003927101150049978
3711.66,-0.004101625610242702
3712.56,-0.004302697467771823
3713.46,-0.004520159578226932
3714.36,-0.004721499303631654
3715.26,-0.004929547529396256
3716.16,-0.005080469255452386
3717.06,-0.005127025623495078
3717.96,-0.005035047535178568
3718.86,-0.004888445811151401
3719.76,-0.004684640476377651
3720.66,-0.0044497841733639005
3721.56,-0.0042813485057137295
3722.46,-0.004261793886657882
3723.36,-0.00440728640671225
3724.26,-0.004694923350798047
3725.16,-0.005022020076608898
3726.06,-0.005348421334563079
3726.96,-0.005590429139716668
3727.86,-0.005789958965207689
3728.76,-0.005884115618869793
3729.66,-0.0059592494399538405
3730.56,-0.005902888897744797
3731.46,-0.0057735040488951575
3732.36,-0.005551311100205825
3733.26,-0.00527667184716277
3734.16,-0.004959385766693696
3735.06,-0.0047750876450306165
3735.96,-0.0047364001930826445
3736.86,-0.004920141372123986
3737.76,-0.00527536649729839
3738.66,-0.005785171277800797
3739.56,-0.006334360835394548
3740.46,-0.00682816210535397
3741.36,-0.007212292073470306
3742.26,-0.007424579928692695
3743.16,-0.007469296316414809
3744.06,-0.0073645082863362625
3744.96,-0.007205661287681159
3745.86,-0.00696763279622373
3746.76,-0.006726874124451702
3747.67,-0.006458730079528552
3748.57,-0.0062359656660266145
3749.47,-0.00608749514989362
3750.37,-0.006154919378527171
3751.27,-0.006501920283327088
3752.17,-0.007080481285426524
3753.07,-0.007753210946942592
3753.97,-0.00855825105831248
3754.87,-0.009194304160510333
3755.77,-0.009665743523835023
3756.67,-0.00990418193246641
3757.57,-0.009957889436998438
3758.47,-0.009881541412991985
3759.37,-0.009842286441037776
3760.27,-0.009886666050681224
3761.17,-0.010066384268614306
3762.07,-0.010390497494722236
3762.97,-0.01072749849197474
3763.87,-0.010988355981625082
3764.77,-0.01119861279652043
3765.67,-0.01127985392319525
3766.57,-0.01129854063960083
3767.47,-0.011167886740341058
3768.37,-0.011075170627664183
3769.27,-0.010928015552259022
3770.17,-0.010827705835035057
3771.07,-0.0109552575574915
3771.97,-0.011316814698201245
3772.87,-0.011839952903697385
3773.77,-0.012526331721287004
3774.67,-0.013268585625687727
3775.57,-0.014009918812698174
3776.47,-0.014676058743348654
3777.37,-0.015333003713315996
3778.27,-0.016040685803712866
3779.17,-0.016727761734639524
3780.07,-0.017377715183823174
3780.97,-0.018097088295827412
3781.87,-0.01865913390132338
3782.77,-0.019111445026506708
3783.67,-0.019506540168549198
3784.57,-0.019595501124585857
3785.47,-0.019614343931203013
3786.38,-0.019425262356417373
3787.28,-0.019209671808558048
3788.18,-0.019021203632389804
3789.08,-0.01895752461271273
3789.98,-0.01892431666370365
3790.88,-0.018943379555680442
3791.78,-0.018955588977949106
3792.68,-0.019041578957743603
3793.58,-0.018884601384640886
3794.48,-0.01843226202251821
3795.38,-0.017939012138043924
3796.28,-0.01733236479068948
3797.18,-0.016847211311542987
3798.08,-0.016648670228544604
3798.98,-0.01685334201933661
3799.88,-0.017669008285083644
3800.78,-0.019071069393352486
3801.68,-0.02087825214784011
3802.58,-0.022770055233713737
3803.48,-0.02461948013250572
3804.38,-0.02627333825204989
3805.28,-0.027461127225514723
3806.18,-0.028221513134468773
3807.08,-0.02911418356499632
3807.98,-0.02989111228828216
3808.88,-0.03084633427045781
3809.78,-0.03190387112369427
3810.68,-0.032772786693159035
3811.58,-0.03343484049989918
3812.48,-0.03350059552635879
3813.38,-0.03351537900002603
3814.28,-0.03317864261585881
3815.18,-0.03314995192856345
3816.08,-0.03336580243058695
3816.98,-0.03393139929137471
3817.88,-0.03465570705285211
3818.78,-0.03513639323395075
3819.68,-0.035740790288518516
3820.58,-0.03620075792920282
3821.48,-0.036355057710650944
3822.38,-0.036696831384830014
3823.28,-0.037043091401179784
3824.18,-0.037099611086582045
3825.09,-0.03681740224270259
3825.99,-0.03665670876026283
3826.89,-0.03634966317053196
3827.79,-0.036328834338860305
3828.69,-0.03639934487400253
3829.59,-0.03639594827981252
3830.49,-0.03616380091307273
3831.39,-0.03569665075332444
3832.29,-0.03477045102151525
3833.19,-0.03366879434918599
3834.09,-0.03253118285854475
3834.99,-0.03195013395573845
3835.89,-0.03179210353279393
3836.79,-0.03254471590347251
3837.69,-0.03396270035929092
3838.59,-0.036180632289311794
3839.49,-0.038799742786918466
3840.39,-0.042099186173661776
3841.29,-0.045797754678324615
3842.19,-0.050209995080793234
3843.09,-0.054353027702729054
3843.99,-0.058755892730050066
3844.89,-0.06286043331568639
3845.79,-0.06646976426447895
3846.69,-0.06897687641890846
3847.59,-0.0719646058563103
3848.49,-0.07450967774641935
3849.39,-0.07711128881871569
3850.29,-0.07908419432472756
3851.19,-0.08120595226779433
3852.09,-0.08372967509562373
3852.99,-0.08653659344349564
3853.89,-0.08872461983501558
3854.79,-0.09031560048171383
3855.69,-0.09184656135156566
3856.59,-0.0930920207482504
3857.49,-0.0936564690022204
3858.39,-0.09436777011766487
3859.29,-0.09586194572272666
3860.19,-0.09789095217558519
3861.09,-0.10098117604320646
3861.99,-0.10622447023839839
3862.9,-0.11119350768970257
3863.8,-0.11661183160650802
3864.7,-0.12202116217132798
3865.6,-0.12564889672024343
3866.5,-0.12835438209907862
3867.4,-0.13261561446873896
3868.3,-0.13490480913040662
3869.2,-0.13714769359693676
3870.1,-0.1390598420629398
3871.0,-0.14062647247176693
3871.9,-0.14135286101255387
3872.8,-0.1421151710353348
3873.7,-0.1451729228918784
3874.6,-0.14908107754148792
3875.5,-0.15335208376181342
3876.4,-0.15780274480509643
3877.3,-0.16174036768360708
3878.2,-0.16454927698011967
3879.1,-0.16705007453126183
3880.0,-0.17093090284503235
3880.9,-0.1739555856417921
3881.8,-0.17850027177335812
3882.7,-0.18157945471896286
3883.6,-0.18455668947929843
3884.5,-0.1840940217203524
3885.4,-0.1829399932361462
3886.3,-0.1799458018009511
3887.2,-0.1760689188568283
3888.1,-0.17377827767605025
3889.0,-0.1745418225323458
3889.9,-0.17949212461291664
3890.8,-0.19095100982655525
3891.7,-0.2059661895948752
3892.6,-0.22479227762284718
3893.5,-0.2446069527398545
3894.4,-0.2636154175153636
3895.3,-0.28248465692760844
3896.2,-0.3012357353041685
3897.1,-0.31975902124545147
3898.0,-0.33807960066010206
3898.9,-0.3577555044505075
3899.8,-0.3752366415697739
3900.7,-0.3968642284828758
3901.6,-0.41565714397688763
3902.51,-0.4348014450050429
3903.41,-0.455526147862857
3904.31,-0.4742453864204592
3905.21,-0.49429464169299303
3906.11,-0.5171377251698563
3907.01,-0.5462659371092028
3907.91,-0.5826796448150456
3908.81,-0.6232302254116684
3909.71,-0.6720837101346797
3910.61,-0.7259984171080602
3911.51,-0.7745109084327959
3912.41,-0.824103706080704
3913.31,-0.8715883186720172
3914.21,-0.9188788418569257
3915.11,-0.9712650260254145
3916.01,-1.0213315359552357
3916.91,-1.0846596121796146
3917.81,-1.1458042784231612
3918.71,-1.210467639263294
3919.61,-1.2876854673628233
3920.51,-1.3789424659656189
3921.41,-1.4868075319869953
3922.31,-1.6215015117106502
3923.21,-1.7732043579589092
3924.11,-1.9521870765602396
3925.01,-2.154468212765294
3925.91,-2.3815161032635697
3926.81,-2.6371745387679306
3927.71,-2.8963191699994897
3928.61,-3.2294987595907125
3929.51,-3.6622629480352917
3930.41,-4.2950135055593295
3931.31,-5.419955928348007
3932.21,-8.210173924683884
3933.11,-25.716640064418357
3934.01,16.021201432529487
3934.91,5.981511762378079
3935.81,3.9608002586930984
3936.71,3.233525036894382
3937.61,2.9341389361493713
3938.51,2.814249803156548
3939.42,2.722912410304331
3940.32,2.6314590326726646
3941.22,2.5310863265322054
3942.12,2.4110861219728013
3943.02,2.285734160957959
3943.92,2.1729188536929467
3944.82,2.083673254695113
3945.72,2.0032315903240714
3946.62,1.9327705734882288
3947.52,1.865797146977808
3948.42,1.8075694406246448
3949.32,1.7460418757342022
3950.22,1.6885922235572577
3951.12,1.6394701124690063
3952.02,1.5842078301775737
3952.92,1.5385940555697488
3953.82,1.4960253053979353
3954.72,1.4450308318852443
3955.62,1.3931114473335675
3956.52,1.3478721187337768
3957.42,1.3018130305575124
3958.32,1.2518499969153807
3959.22,1.2105414542571074
3960.12,1.1526321772470252
3961.02,1.0902144657871113
3961.92,1.0174780017215466
3962.82,0.9419992213991174
3963.72,0.8617250478017685
3964.62,0.778571914776833
3965.52,0.6927455701609652
3966.42,0.6055911012831469
3967.32,0.5231808235365546
3968.22,0.4545189939217497
3969.12,0.4095301928718148
3970.02,0.39474797513270093
3970.92,0.4052103810902479
3971.82,0.44380892592332327
3972.72,0.49631202213793363
3973.62,0.5605656290633905
3974.52,0.6268863883051528
3975.42,0.6885963270089552
3976.32,0.7430851212874403
3977.22,0.7921867762863889
3978.13,0.8384053398864156
3979.03,0.8725316435350167
3979.93,0.8984854263888636
3980.83,0.9217680585772569
3981.73,0.9269568059958256
3982.63,0.9375367324419158
3983.53,0.937273824171038
3984.43,0.9427553482812798
3985.33,0.9488108458848585
3986.23,0.9526343054394748
3987.13,0.9569060721651627
3988.03,0.968163498462067
3988.93,0.9741663340337012
3989.83,0.9780954679387894
3990.73,0.9857071191103978
3991.63,0.9881519574590175
3992.53,0.9950267624652448
3993.43,0.9925211843554397
3994.33,0.9891644523777122
3995.23,0.9830685322966446
3996.13,0.9713483737545856
3997.03,0.9656075875825033
3997.93,0.9573473856506137
3998.83,0.9587011790875298
3999.73,0.9623257944152322
4000.63,0.9738342913924487
4001.53,0.9844268387124092
4002.43,0.9864734485968132
4003.33,0.9894273507418332
4004.23,0.9813007210921091
4005.13,0.970232217822769
4006.03,0.9605839811153466
4006.93,0.9557842512089828
4007.83,0.9566198764000252
4008.73,0.967168313372755
4009.63,0.9768184440616619
4010.53,0.9872023605406317
4011.43,1.001687214555616
4012.33,1.0058978236673395
4013.23,1.0044487255107326
4014.13,1.0099217949701345
4015.03,1.0119812260394814
4015.93,1.0077181648191078
4016.84,1.0110865762443217
4017.74,1.012952505853098
4018.64,1.016464228563258
4019.54,1.0168197686040528
4020.44,1.0199301431037187
4021.34,1.024904926940621
4022.24,1.0241181883193928
4023.14,1.0190665160885048
4024.04,1.0183259144934222
4024.94,1.0180396849236093
4025.84,1.0280513712865467
4026.74,1.0281530039026894
4027.64,1.0353545548763055
4028.54,1.0352788868045124
4029.44,1.0239185894577667
4030.34,1.0096989511322283
4031.24,0.9890499939217963
4032.14,0.9731230845915073
4033.04,0.9647850310022963
4033.94,0.9681109664168756
4034.84,0.9767500935193887
4035.74,0.9952375985213932
4036.64,1.0132845804110184
4037.54,1.0354021385664245
4038.44,1.0533994945199225
4039.34,1.0585821973086658
4040.24,1.0667611573602347
4041.14,1.0578182253955222
4042.04,1.045067198306208
4042.94,1.034913231029265
4043.84,1.0119998252069609
4044.74,0.9883022852947738
4045.64,0.9816038306166237
4046.54,0.9711026486524271
4047.44,0.9739756665510202
4048.34,0.9888444140290333
4049.24,1.0153352398738666
4050.14,1.034550104079735
4051.04,1.041237428647785
4051.94,1.0512695509446464
4052.84,1.047733043872123
4053.74,1.0409806899156437
4054.65,1.0335428140083018
4055.55,1.0210353957367286
4056.45,1.0139646655515617
4057.35,1.0139464432691723
4058.25,1.009308400467188
4059.15,1.0170594363201508
4060.05,1.0195395699440668
4060.95,1.0192764705712434
4061.85,1.0161388384650378
4062.75,1.0076215138232758
4063.65,0.9980189259960086
4064.55,0.9854640611410597
4065.45,0.9828073403660894
4066.35,0.9904508827875838
4067.25,0.9984639144526591
4068.15,1.0069773874022998
4069.05,1.0196031943639632
4069.95,1.0313049593236148
4070.85,1.0287233565235794
4071.75,1.0215443752734332
4072.65,1.0185766364458555
4073.55,1.011647691537705
4074.45,1.0059726998815681
4075.35,0.9944566091150739
4076.25,0.982361137387112
4077.15,0.9700046925184961
4078.05,0.9594777270409692
4078.95,0.9590163398542999
4079.85,0.9650638158310323
4080.75,0.9825719175934792
4081.65,1.0017526168893187
4082.55,1.0140252731763075
4083.45,1.0226081873648423
4084.35,1.0226569622936668
4085.25,1.0277012519456954
4086.15,1.0290767300232222
4087.05,1.0390149044471542
4087.95,1.050469184458913
4088.85,1.0627793721981653
4089.75,1.0620262563928722
4090.65,1.065500298420329
4091.55,1.0625083607508832
4092.45,1.0540324230339748
4093.36,1.0342684376434916
4094.26,1.0162214856036746
4095.16,0.9987792634918237
4096.06,0.9772280928696928
4096.96,0.9435737328968129
4097.86,0.9072069279885758
4098.76,0.873739427621086
4099.66,0.8309130013877726
4100.56,0.7949773107706927
4101.46,0.7604312225868479
4102.36,0.7437845772121291
4103.26,0.7439185491976877
4104.16,0.760050458781302
4105.06,0.7965070560610732
4105.96,0.8322280914678172
4106.86,0.8667880982841811
4107.76,0.9020143486219372
4108.66,0.9274060246176135
4109.56,0.9456925387516636
4110.46,0.9570315096482391
4111.36,0.971534093642729
4112.26,0.9802214333306813
4113.16,0.9939613789090762
4114.06,1.008950390941443
4114.96,1.0223906316414837
4115.86,1.0316366601349203
4116.76,1.0392977562544414
4117.66,1.036571259498776
4118.56,1.0270710843689936
4119.46,1.0288406778095682
4120.36,1.021407096930354
4121.26,1.0184521933941477
4122.16,1.0181734413285817
4123.06,1.0216257231794044
4123.96,1.0250247930545473
4124.86,1.0353704288407948
4125.76,1.031797128986533
4126.66,1.0331476723070703
4127.56,1.0308320351073492
4128.46,1.0255264510464894
4129.36,1.0186043787594299
4130.26,1.0203221632819566
4131.17,0.9990124031650344
4132.06,0.993667010819571
4132.97,0.991187763614148
4133.87,0.989217251325422
4134.77,0.9954231594990623
4135.67,1.0054315734676456
4136.57,1.0260827523156357
4137.47,1.0383233933421614
4138.37,1.0496720002776805
4139.27,1.0613632278695886
4140.17,1.0615984709135646
4141.07,1.052210430520467
4141.97,1.037220802384333
4142.87,1.0212510466368243
4143.77,1.0135531367547939
4144.67,1.001470254500775
4145.57,1.0034984638439317
4146.47,1.0081504398029488
4147.37,1.0181871599643357
4148.27,1.0267216198144056
4149.17,1.0310965563229482
4150.07,1.0339955292433185
4150.97,1.0292611388047046
4151.87,1.0236653102544027
4152.77,1.019698448971773
4153.67,1.012093344102385
4154.57,1.0050399843641138
4155.47,1.0042737190611364
4156.37,1.0057289049522031
4157.27,1.0096515512974653
4158.17,1.014611696674201
4159.07,1.0297215174311753
4159.97,1.037102291562391
4160.87,1.0438640491392546
4161.77,1.0554791228393063
4162.67,1.0578914147536478
4163.57,1.062517677631008
4164.47,1.0600994899796252
4165.37,1.0565594808788124
4166.27,1.0554825971769313
4167.17,1.050504189474506
4168.07,1.0426366009750163
4168.98,1.0340833003222367
4169.88,1.022051904297824
4170.78,1.0079194175599449
4171.68,0.9953295342795817
4172.58,0.9793667365273844
4173.48,0.9626635057187568
4174.38,0.9571738627956867
4175.28,0.956605902489739
4176.18,0.9611797034038163
4177.08,0.9669129958810857
4177.98,0.9694117035068293
4178.88,0.9825051805706637
4179.78,0.9899023267944069
4180.68,0.9951764253434617
4181.58,0.9972396606672389
4182.48,1.004133305951509
4183.38,1.0059524537103912
4184.28,1.0082539733844216
4185.18,1.0024543221018496
4186.08,1.005067579996221
4186.98,1.0059920737761865
4187.88,1.0036302206080274
4188.78,1.0018977215412368
4189.68,1.0068305010084246
4190.58,1.0064323000903121
4191.48,1.0166305987528133
4192.38,1.0247736691619513
4193.28,1.0282402961489785
4194.18,1.030388647971151
4195.08,1.0239299572065637
4195.98,1.0164618147139128
4196.88,1.0038675796609475
4197.78,0.9893601948215697
4198.68,0.9769507885473844
4199.58,0.9676255437504039
4200.48,0.9629575286301764
4201.38,0.962684158208235
4202.28,0.9648995345168346
4203.18,0.9725345861677928
4204.08,0.9744889385558894
4204.98,0.9874962810019988
4205.88,0.9999458032320422
4206.79,1.0078431874276634
4207.69,1.0233981449435416
4208.59,1.0293137151078144
4209.49,1.0324764880387785
4210.39,1.044019182332857
4211.29,1.0429841438593834
4212.19,1.0409339684377439
4213.09,1.0404338871263372
4213.99,1.0341170497942827
4214.89,1.0227358293874356
4215.79,1.013473634933398
4216.69,1.013957628367594
4217.59,1.0162771963523805
4218.49,1.0242637633920149
4219.39,1.0322444735978158
4220.29,1.0439016771727625
4221.19,1.0376357137635108
4222.09,1.0336197689014324
4222.99,1.0253292380335046
4223.89,0.9976626457283508
4224.79,0.9687505945969576
4225.69,0.9391439208792013
4226.59,0.911874520041278
4227.49,0.9089720582532889
4228.39,0.9107369911532287
4229.29,0.9395934936872465
4230.19,0.9604476726039499
4231.09,0.9924419022813239
4231.99,1.0055613230074623
4232.89,1.0169383780530121
4233.79,1.0209925764161933
4234.69,1.0130733673384045
4235.59,1.0074127187707103
4236.49,1.000280964582945
4237.39,0.9980599405406387
4238.29,0.9992038925365284
4239.19,1.0036106975451342
4240.09,1.0093566580505147
4240.99,1.0215736722274438
4241.89,1.0287340805471652
4242.79,1.0367832350788657
4243.69,1.0483185061300213
4244.59,1.0530247914937427
4245.5,1.0451719124718477
4246.4,1.043306753588988
4247.3,1.0301697012903615
4248.2,1.021963263896083
4249.1,1.008474510356987
4250.0,1.0060775674412952
4250.9,1.0018026483834257
4251.8,1.0067825448528562
4252.7,1.012062337911205
4253.6,1.01965188463548
4254.5,1.022792865391054
4255.4,1.0271319732694693
4256.3,1.0268879865781873
4257.2,1.0314682728945974
4258.1,1.0338922006705424
4259.0,1.0237885178412733
4259.9,1.0184611984897105
4260.8,1.0127929349564015
4261.7,1.0177354289184755
4262.6,1.0316431265832102
4263.5,1.0413999694713763
4264.4,1.0561353474587245
4265.3,1.0711178676076818
4266.2,1.0817507265096504
4267.1,1.0797974151605774
4268.0,1.0646694337554032
4268.9,1.0550110887436437
4269.8,1.0292592294371656
4270.7,1.0107481989330767
4271.6,0.9857619811958883
4272.5,0.9750313486224985
4273.4,0.965663999331504
4274.3,0.9686321937005664
4275.2,0.9778133715310745
4276.1,0.9977507511921772
4277.0,1.0135029344009159
4277.9,1.0295202517237796
4278.8,1.0352874477805971
4279.7,1.0487282970574063
4280.6,1.0465019320072915
4281.5,1.0465023818047057
4282.4,1.0367459734665685
4283.31,1.0343664513000856
4284.21,1.025965363659741
4285.11,1.0222168106637084
4286.01,1.0131241193756673
4286.91,0.9978519143551073
4287.81,0.9865060468279511
4288.71,0.9677528595085331
4289.61,0.9607456900328175
4290.51,0.9540664319518378
4291.41,0.9535926023364651
4292.31,0.9630750460456288
4293.21,0.9689213234255821
4294.11,0.9767081371593541
4295.01,0.9786018389106248
4295.91,0.9760749100543704
4296.81,0.9620303483110662
4297.71,0.9468298235160846
4298.61,0.922798961905539
4299.51,0.8955872789470567
4300.41,0.8735836141511992
4301.31,0.8557859132558521
4302.21,0.8495991650723574
4303.11,0.8443244547639815
4304.01,0.8459500231165225
4304.91,0.8444946306428848
4305.81,0.8472812428158918
4306.71,0.8445352495331706
4307.61,0.843798324865969
4308.51,0.8457140613088409
4309.41,0.8403737845794138
4310.31,0.8492344119897127
4311.21,0.8569677796462898
4312.11,0.878758169686967
4313.01,0.9018537413774798
4313.91,0.9338265064547286
4314.81,0.9730863643306553
4315.71,1.0031057898313536
4316.61,1.0421520559627269
4317.51,1.0727077274668804
4318.41,1.0946414901960182
4319.31,1.1096282443136927
4320.21,1.1097495391294627
4321.12,1.100771438730733
4322.02,1.075549192520453
4322.92,1.0495398713811108
4323.82,1.0247440732205109
4324.72,0.9959978952489807
4325.62,0.9795242766061745
4326.52,0.9742032271380031
4327.42,0.976995668327471
4328.32,0.993082359589827
4329.22,1.0155353960367524
4330.12,1.033167521378757
4331.02,1.0480688608067126
4331.92,1.0538784150816918
4332.82,1.0563605744328324
4333.72,1.0443260294666212
4334.62,1.036232069584661
4335.52,1.0115312827967486
4336.42,0.9784176615085245
4337.32,0.9388283183525625
4338.22,0.8912287448490739
4339.12,0.8467553466202491
4340.02,0.8070582127603158
4340.92,0.7821556905723802
4341.82,0.7778586963279815
4342.72,0.7955325901646036
4343.62,0.8249668024332295
4344.52,0.8613090328720479
4345.42,0.9038672428876541
4346.32,0.9392544777306777
4347.22,0.9733529540009987
4348.12,0.9915224809334997
4349.02,1.00564629781971
4349.92,1.0089718355086557
4350.82,1.008738561122939
4351.72,0.9988225915134892
