wave,flux
3700.85,0.018081768755082585
3701.75,0.018002930333368014
3702.65,0.017503210337976
3703.55,0.016626768105435785
3704.45,0.015654899090881472
3705.35,0.014727057472195973
3706.25,0.014023745399688592
3707.15,0.013663443140187203
3708.05,0.013785125104385924
3708.96,0.014243380333285796
3709.86,0.015019536682357258
3710.76,0.016207399846199427
3711.66,0.01753111414654871
3712.56,0.018966736084102674
3713.46,0.02019106131635799
3714.36,0.02125804852780146
3715.26,0.021787718873351014
3716.16,0.021682395102828367
3717.06,0.02094836752789734
3717.96,0.019822397575388777
3718.86,0.01828748028200289
3719.76,0.01663872500304871
3720.66,0.015346062203274226
3721.56,0.014649462748173137
3722.46,0.014708781316602294
3723.36,0.015688524403423703
3724.26,0.01701914977469524
3725.16,0.018528491683955834
3726.06,0.019804399814720507
3726.96,0.020566846543439873
3727.86,0.020937776264376325
3728.76,0.02107061207209595
3729.66,0.021001201264692276
3730.56,0.02081055412967462
3731.46,0.020158603330815695
3732.36,0.019004042233211237
3733.26,0.017648616371467113
3734.16,0.016174678807550625
3735.06,0.01503995192127782
3735.96,0.014580439102517577
3736.86,0.014892902256250748
3737.76,0.015980536242207622
3738.66,0.017823546029814584
3739.56,0.01992936047848304
3740.46,0.0218488971455216
3741.36,0.023222745752693612
3742.26,0.02368193023044169
3743.16,0.023365865180556687
3744.06,0.022437900899292075
3744.96,0.021125562685563457
3745.86,0.019960345860167057
3746.76,0.018841801998599146
3747.67,0.018130723851405864
3748.57,0.017738674976981426
3749.47,0.017936457848447593
3750.37,0.01896870486761739
3751.27,0.020902771162205173
3752.17,0.023487578005953455
3753.07,0.02627585346929415
3753.97,0.028969369958301353
3754.87,0.031116991192027623
3755.77,0.03200772838143842
3756.67,0.031971435520332145
3757.57,0.030937058341313477
3758.47,0.029677432449143972
3759.37,0.028721941520875482
3760.27,0.02827891706436262
3761.17,0.028754360049053077
3762.07,0.02948510650970917
3762.97,0.030416017402439655
3763.87,0.0309952355807526
3764.77,0.031612183768492834
3765.67,0.03188841772800817
3766.57,0.03236635971719201
3767.47,0.03297343409108182
3768.37,0.03375713013012911
3769.27,0.034874774140785846
3770.17,0.03612715079647184
3771.07,0.037707860702272084
3771.97,0.03958034569194638
3772.87,0.04099569009797574
3773.77,0.0431366220956314
3774.67,0.04445655382129967
3775.57,0.04564020856202922
3776.47,0.046741383450847135
3777.37,0.04754625050991426
3778.27,0.048712597850878475
3779.17,0.0501480919729711
3780.07,0.05174658011674241
3780.97,0.05340088645542798
3781.87,0.05501659819219283
3782.77,0.05605051482205912
3783.67,0.05655966871416633
3784.57,0.056006924096686665
3785.47,0.054889735101675066
3786.38,0.05331113540447258
3787.28,0.051002219604998754
3788.18,0.04907810651607794
3789.08,0.04757926923243754
3789.98,0.047227273051731584
3790.88,0.0474082152526847
3791.78,0.04802782613435308
3792.68,0.04858637481860703
3793.58,0.04848384133740549
3794.48,0.0480789151143319
3795.38,0.047312543958128055
3796.28,0.04606528748772125
3797.18,0.04554429384905508
3798.08,0.045141949328398476
3798.98,0.04608148137744644
3799.88,0.04796430016526513
3800.78,0.050999762681781996
3801.68,0.05530335526880142
3802.58,0.06004133345595842
3803.48,0.06393414430975133
3804.38,0.06731971900155301
3805.28,0.06902143566848111
3806.18,0.07019660442278126
3807.08,0.07077808676683023
3807.98,0.0711523220618957
3808.88,0.07242393317105973
3809.78,0.07425470750053177
3810.68,0.07527598774317397
3811.58,0.07571294985855322
3812.48,0.07463757937016334
3813.38,0.07244070493853284
3814.28,0.06946278953425913
3815.18,0.06623326083255174
3816.08,0.06453057322706932
3816.98,0.06327613942591684
3817.88,0.06306476866894165
3818.78,0.06307783477891785
3819.68,0.06265768523434741
3820.58,0.061947792311679906
3821.48,0.06178943226985387
3822.38,0.06149895941069796
3823.28,0.0610571361533799
3824.18,0.06062517573181933
3825.09,0.05935148525427767
3825.99,0.057826575834490586
3826.89,0.05662471828330412
3827.79,0.05604693540910838
3828.69,0.056371592870732665
3829.59,0.057501045522675584
3830.49,0.05849289022819049
3831.39,0.05849859869261106
3832.29,0.05827174235148639
3833.19,0.057508984508121454
3834.09,0.05725287950134963
3834.99,0.057543381111215014
3835.89,0.058746216298481334
3836.79,0.060021532371294796
3837.69,0.06108703750180371
3838.59,0.06261499173059308
3839.49,0.06437570610366075
3840.39,0.06753649482875074
3841.29,0.07249161178248534
3842.19,0.07907893114727836
3843.09,0.08719132694273224
3843.99,0.09493108170723122
3844.89,0.10125393587956835
3845.79,0.1068073435263257
3846.69,0.11066346214292172
3847.59,0.11382883575178794
3848.49,0.11506735643561469
3849.39,0.11593617595819518
3850.29,0.11622795821301408
3851.19,0.11682918586752164
3852.09,0.1189136797839662
3852.99,0.12032352778898697
3853.89,0.12050160960236794
3854.79,0.12022504148387447
3855.69,0.11933873416746882
3856.59,0.11722908108839639
3857.49,0.1136310396354396
3858.39,0.11125957850554456
3859.29,0.10991380194838944
3860.19,0.10996027690832244
3861.09,0.11363798609030416
3861.99,0.12081488654220131
3862.9,0.12989786568640144
3863.8,0.13811006734329062
3864.7,0.14471239253467555
3865.6,0.14920979610548932
3866.5,0.15167893507557711
3867.4,0.15168354481751772
3868.3,0.150630937905624
3869.2,0.1490699643692237
3870.1,0.14552291811989262
3871.0,0.1437050137838408
3871.9,0.14280691912315227
3872.8,0.14354914344907696
3873.7,0.14778770460803456
3874.6,0.15453566261198176
3875.5,0.16139071307715958
3876.4,0.16746035387485608
3877.3,0.16867889556766388
3878.2,0.16869593194465707
3879.1,0.1680571445525353
3880.0,0.16734516261152946
3880.9,0.16877138664422378
3881.8,0.17085352730398956
3882.7,0.1732336128075741
3883.6,0.1759166227198806
3884.5,0.17764057279178486
3885.4,0.17816886703797585
3886.3,0.17662325389162464
3887.2,0.17588561070951433
3888.1,0.1764915309926102
3889.0,0.1817386263986009
3889.9,0.18951113126567826
3890.8,0.20177980059336345
3891.7,0.21727757444789772
3892.6,0.2312139577958755
3893.5,0.2433680851841028
3894.4,0.25263854295148586
3895.3,0.25987566751711255
3896.2,0.2652176204171684
3897.1,0.26873714263544407
3898.0,0.2733591067123465
3898.9,0.2774259402995411
3899.8,0.28266058058706234
3900.7,0.28538328987710726
3901.6,0.2888377112537604
3902.51,0.2898418445795204
3903.41,0.28926023312361304
3904.31,0.2895190934893861
3905.21,0.2894982744056998
3906.11,0.29291768645998856
3907.01,0.30062718466318145
3907.91,0.31301824335138534
3908.81,0.32845776282418737
3909.71,0.34645276151220705
3910.61,0.36251703679910835
3911.51,0.37730503739731036
3912.41,0.38676125342838413
3913.31,0.393132835265381
3914.21,0.3983366164425084
3915.11,0.398889861225175
3916.01,0.39563350993448576
3916.91,0.3943220566461903
3917.81,0.38837135325455313
3918.71,0.37913685472041614
3919.61,0.3697106510002022
3920.51,0.3623659905450233
3921.41,0.35199105987828294
3922.31,0.3479180602756957
3923.21,0.34693260016338257
3924.11,0.34415336106698247
3925.01,0.3416889570276195
3925.91,0.33335028263740235
3926.81,0.3191308739449038
3927.71,0.29949376265526156
3928.61,0.2713673866224989
3929.51,0.2438867291754549
3930.41,0.2141285414274049
3931.31,0.18903968201387586
3932.21,0.16590660528834536
3933.11,0.14933997279857075
3934.01,0.14093615189448824
3934.91,0.14133458178563646
3935.81,0.1521469342239999
3936.71,0.1725804924653783
3937.61,0.20000810198377297
3938.51,0.2341527916147743
3939.42,0.2699172297109112
3940.32,0.30262741747486654
3941.22,0.3304045015375245
3942.12,0.3543415780576277
3943.02,0.3722645332755494
3943.92,0.3887861679668383
3944.82,0.4084906934171444
3945.72,0.42983243336507776
3946.62,0.4573942110631916
3947.52,0.4835768164059969
3948.42,0.507741224460399
3949.32,0.5301404935867138
3950.22,0.5528145076659057
3951.12,0.5687032162296368
3952.02,0.5822785264115728
3952.92,0.5914310361282759
3953.82,0.598804313140857
3954.72,0.6044535310148211
3955.62,0.6064919618468304
3956.52,0.6078534929753091
3957.42,0.6040696198246426
3958.32,0.5953368271733337
3959.22,0.584429178083586
3960.12,0.563191779653605
3961.02,0.5355845300506293
3961.92,0.4998780831183794
3962.82,0.46178677413518043
3963.72,0.422912435392475
3964.62,0.3833824382673326
3965.52,0.34665429272715137
3966.42,0.308197336686421
3967.32,0.2739979807320356
3968.22,0.24704912865910353
3969.12,0.23203693728308622
3970.02,0.23065851314724922
3970.92,0.24733056711460144
3971.82,0.27884457153762426
3972.72,0.32182436134917236
3973.62,0.37145495539144235
3974.52,0.42622345064459694
3975.42,0.4825780275082448
3976.32,0.534358892115993
3977.22,0.5873357239387746
3978.13,0.6371486376275252
3979.03,0.6809616934171138
3979.93,0.718942527654051
3980.83,0.7444885076128275
3981.73,0.7667402324187877
3982.63,0.7786693457469921
3983.53,0.7902431890399545
3984.43,0.7978779865611151
3985.33,0.8106829536241983
3986.23,0.8236086035456811
3987.13,0.8364124976298979
3988.03,0.8532034771851476
3988.93,0.8690430730540647
3989.83,0.8820919129177345
3990.73,0.8917096403762704
3991.63,0.8991489579189659
3992.53,0.9142197130527201
3993.43,0.9189337155336988
3994.33,0.9228408197990943
3995.23,0.9166421819544625
3996.13,0.9089557209821011
3997.03,0.9079309755186251
3997.93,0.9049440184677511
3998.83,0.9164375277438946
3999.73,0.9302842291298202
4000.63,0.9507712266103115
4001.53,0.9739079693806517
4002.43,0.9808409403750613
4003.33,0.9886680574106286
4004.23,0.9695270992766714
4005.13,0.9545541526871708
4006.03,0.9379296524323134
4006.93,0.9293265604696138
4007.83,0.9323577674654272
4008.73,0.9465036500663269
4009.63,0.9685511168661368
4010.53,0.9944969409981023
4011.43,1.0049288438276844
4012.33,1.0205825428897175
4013.23,1.0339574376957492
4014.13,1.0384191309466786
4015.03,1.0466890712206653
4015.93,1.0475640858266997
4016.84,1.0538078106265556
4017.74,1.0534048664820097
4018.64,1.0578528170172965
4019.54,1.0593394886886036
4020.44,1.0630363585586973
4021.34,1.0671358767286776
4022.24,1.0654201146522626
4023.14,1.0596957162548457
4024.04,1.0543685525128486
4024.94,1.0578758268414046
4025.84,1.062960542086687
4026.74,1.066508689478361
4027.64,1.0728061216628604
4028.54,1.0682133149949482
4029.44,1.0522687885897304
4030.34,1.017364315459272
4031.24,0.9876748570792555
4032.14,0.9507258559028444
4033.04,0.9269987443517428
4033.94,0.9164349095328089
4034.84,0.9309354618968518
4035.74,0.9588630608309103
4036.64,0.9980046129201747
4037.54,1.0367201487013542
4038.44,1.0685079775015538
4039.34,1.0913544029161344
4040.24,1.0936973491311406
4041.14,1.0933476054845457
4042.04,1.0679016092128346
4042.94,1.0365334592256938
4043.84,0.9994455305157378
4044.74,0.954309838238299
4045.64,0.9170958435315277
4046.54,0.8967485226995747
4047.44,0.9029769483872581
4048.34,0.9305689726983606
4049.24,0.9740585904483768
4050.14,1.0127053490222142
4051.04,1.041336194365508
4051.94,1.0572461398097184
4052.84,1.0590294129169562
4053.74,1.047869413836041
4054.65,1.0321138868335888
4055.55,1.007584748306137
4056.45,0.9919103719601061
4057.35,0.9756606672998529
4058.25,0.972505914264965
4059.15,0.9685720554724979
4060.05,0.9654067609480341
4060.95,0.960112933802945
4061.85,0.9501215125541111
4062.75,0.9383344627940803
4063.65,0.9196791215606717
4064.55,0.9052785676228131
4065.45,0.9030851885161693
4066.35,0.909486042697828
4067.25,0.9319032819714554
4068.15,0.9519202241541123
4069.05,0.9721027945928115
4069.95,0.9833635787510182
4070.85,0.9830966167697791
4071.75,0.9779706645275877
4072.65,0.972466597011679
4073.55,0.9690754261352967
4074.45,0.9643483370015492
4075.35,0.9515288504751788
4076.25,0.9396813396752457
4077.15,0.933326469526171
4078.05,0.9244981567516162
4078.95,0.9319676868860368
4079.85,0.951256136469719
4080.75,0.9797379914692637
4081.65,1.0083801457768597
4082.55,1.0315343498103895
4083.45,1.047878644037126
4084.35,1.0527340542743227
4085.25,1.0532167796854364
4086.15,1.0630757572163625
4087.05,1.075966857451361
4087.95,1.0968193433888624
4088.85,1.1172757763683443
4089.75,1.1290601568729524
4090.65,1.133260518831507
4091.55,1.1245872891400384
4092.45,1.1170659390146762
4093.36,1.1011043611671787
4094.26,1.0788707668973059
4095.16,1.050619965279897
4096.06,1.0270007031874968
4096.96,0.9973078561786883
4097.86,0.9670848598010768
4098.76,0.9322453492093904
4099.66,0.9064946093872525
4100.56,0.8758750807833747
4101.46,0.8537033345761993
4102.36,0.8435450811001822
4103.26,0.8446945883995309
4104.16,0.8662928559728309
4105.06,0.8969698933050781
4105.96,0.9327682437019509
4106.86,0.9672317629370686
4107.76,0.9912221337154443
4108.66,1.0053777992170294
4109.56,1.0160289757446572
4110.46,1.0161751285027782
4111.36,1.0148927737003588
4112.26,1.0224958514503912
4113.16,1.029229009528638
4114.06,1.0394030931796199
4114.96,1.0535772044204943
4115.86,1.0612610521028303
4116.76,1.0645823624195516
4117.66,1.0606126381874925
4118.56,1.0507922883951362
4119.46,1.0440426797891926
4120.36,1.0330049683761433
4121.26,1.0272803540703253
4122.16,1.025369447050732
4123.06,1.0301354557915603
4123.96,1.0376501202715194
4124.86,1.0349586360649476
4125.76,1.041493243000317
4126.66,1.0410008945836
4127.56,1.0301240672194838
4128.46,1.017704696418726
4129.36,1.0073521196799167
4130.26,0.9883639226409788
4131.17,0.9741786874979155
4132.06,0.9536641379329377
4132.97,0.9393178632954725
4133.87,0.946128291581908
4134.77,0.9520755315582707
4135.67,0.9695332006094898
4136.57,0.9992450157448981
4137.47,1.0215014496927057
4138.37,1.0399721784843854
4139.27,1.0514878962350294
4140.17,1.0567956617359928
4141.07,1.038678125057162
4141.97,1.0142922467074498
4142.87,0.9816486292457807
4143.77,0.9555400145600659
4144.67,0.9423056498248235
4145.57,0.9423804068965238
4146.47,0.9501703832359967
4147.37,0.9687220210451178
4148.27,0.9773360985472632
4149.17,0.9895016913257945
4150.07,0.9919773007682103
4150.97,0.9859426573521591
4151.87,0.9837692671408138
4152.77,0.9791151682946868
4153.67,0.9677508899791013
4154.57,0.9650981160699263
4155.47,0.9595279028579763
4156.37,0.9626091483317816
4157.27,0.9673145409143381
4158.17,0.9840971158268185
4159.07,1.0018850236121222
4159.97,1.0213011155721226
4160.87,1.0417859978032435
4161.77,1.053629393726865
4162.67,1.0667268498045452
4163.57,1.0722992853817759
4164.47,1.0736439723125581
4165.37,1.0685788313120637
4166.27,1.0534874660963882
4167.17,1.0414489727028988
4168.07,1.0293486975674155
4168.98,1.0166272961269136
4169.88,1.0057113952313672
4170.78,0.992737894093647
4171.68,0.9766452113594445
4172.58,0.9546244737324393
4173.48,0.9396480708875362
4174.38,0.9335916874154515
4175.28,0.9238535148173981
4176.18,0.9300941798093275
4177.08,0.940960011275102
4177.98,0.949084871657528
4178.88,0.9595887785944556
4179.78,0.9679749527950007
4180.68,0.9779911849342366
4181.58,0.9799507603235066
4182.48,0.9958533754085044
4183.38,0.9950692693183709
4184.28,1.0001648874635674
4185.18,1.002198503541908
4186.08,1.0038584099092303
4186.98,0.9990736101292919
4187.88,0.994412319118351
4188.78,0.9974503106952813
4189.68,0.9966696096684767
4190.58,1.0092304226205504
4191.48,1.0166589830166566
4192.38,1.034054257145352
4193.28,1.0400487428044844
4194.18,1.0311865457883724
4195.08,1.0299696802743088
4195.98,1.008241228731946
4196.88,0.9854981489668154
4197.78,0.9650653843782583
4198.68,0.9441200639041514
4199.58,0.9292531491952564
4200.48,0.9260565088240031
4201.38,0.928006035046019
4202.28,0.9322781171284822
4203.18,0.9492402857971726
4204.08,0.9660179762242648
4204.98,0.9914098840917807
4205.88,1.0136023983148172
4206.79,1.0431584144673944
4207.69,1.0587587494987374
4208.59,1.0710901078412207
4209.49,1.0804020007915616
4210.39,1.0876992549913518
4211.29,1.0831004195354277
4212.19,1.0790616588737303
4213.09,1.0716801530235214
4213.99,1.0629060066162725
4214.89,1.0445523721740437
4215.79,1.0397914956735803
4216.69,1.041574490100968
4217.59,1.0470690648667529
4218.49,1.0688773930689621
4219.39,1.0842576924431742
4220.29,1.098248732910422
4221.19,1.103412423021241
4222.09,1.0928749101097657
4222.99,1.0544646583242119
4223.89,1.0062680853209955
4224.79,0.9482203044908855
4225.69,0.8923634712895401
4226.59,0.8472753199190789
4227.49,0.8297970554787467
4228.39,0.8390512339467373
4229.29,0.8728345111410356
4230.19,0.9226977364356522
4231.09,0.972620470059783
4231.99,1.0109321497086066
4232.89,1.0335308256853464
4233.79,1.0459028244319561
4234.69,1.0397841661572673
4235.59,1.0272858175232988
4236.49,1.0183742606923771
4237.39,1.011598672747756
4238.29,1.0121309160347622
4239.19,1.0216098958160744
4240.09,1.0340427100856269
4240.99,1.056113054759819
4241.89,1.077792106927054
4242.79,1.0956112951476022
4243.69,1.1211716252612947
4244.59,1.1254712349598661
4245.5,1.1321526105279527
4246.4,1.1263432133219238
4247.3,1.109117591991473
4248.2,1.0797875592383561
4249.1,1.0510219424256828
4250.0,1.0243960015480806
4250.9,1.0096081168396454
4251.8,1.001363309344756
4252.7,1.0012949672812583
4253.6,1.0027893390605183
4254.5,1.0079848679653296
4255.4,1.0134815690064831
4256.3,1.0228012886864561
4257.2,1.0300927413983267
4258.1,1.0305163619276556
4259.0,1.019363654883352
4259.9,1.0120382058229584
4260.8,1.0076575920166266
4261.7,1.0131266345362182
4262.6,1.0323908759195928
4263.5,1.0611691487183026
4264.4,1.0941187146866003
4265.3,1.1183157078279589
4266.2,1.132640078981701
4267.1,1.130020957285922
4268.0,1.1116676537234482
4268.9,1.0769102947359321
4269.8,1.0355962237141167
4270.7,0.9826674255919171
4271.6,0.9409033281697597
4272.5,0.9078530515650366
4273.4,0.8863176057147724
4274.3,0.8872728321051255
4275.2,0.9079403901866867
4276.1,0.9389326953216286
4277.0,0.9764294752371963
4277.9,1.012317315287869
4278.8,1.0358834821017227
4279.7,1.0520027220611499
4280.6,1.0580732838656772
4281.5,1.0588378625636343
4282.4,1.056729288840454
4283.31,1.0455343931902281
4284.21,1.0365813014915795
4285.11,1.0231594662867256
4286.01,1.012159320158676
4286.91,0.993849450625518
4287.81,0.97375520032544
4288.71,0.9508908528555621
4289.61,0.9355888521981066
4290.51,0.9234472756403742
4291.41,0.9195231918102224
4292.31,0.9282418859241014
4293.21,0.9392791592020984
4294.11,0.9484399641166397
4295.01,0.9533271194118357
4295.91,0.9476753286956066
4296.81,0.9289887739452801
4297.71,0.8975442525764393
4298.61,0.8622720864807528
4299.51,0.8212818428513259
4300.41,0.7910096727312818
4301.31,0.7629206586771591
4302.21,0.7490604213944767
4303.11,0.7379036525505823
4304.01,0.7351835935937591
4304.91,0.7338624230893804
4305.81,0.732290761134889
4306.71,0.7202385245538717
4307.61,0.7099030597979802
4308.51,0.7006721848610986
4309.41,0.7025633327953424
4310.31,0.7168798221029826
4311.21,0.7387973753141889
4312.11,0.7824626378708435
4313.01,0.8326267864100695
4313.91,0.8918070797861618
4314.81,0.958344493744934
4315.71,1.0287768376461914
4316.61,1.0910401085766217
4317.51,1.1490694568305102
4318.41,1.1871840775224525
4319.31,1.200280257559138
4320.21,1.1971963183857066
4321.12,1.1744342546467144
4322.02,1.136158042802722
4322.92,1.0880862561397255
4323.82,1.0300736903802707
4324.72,0.9829187440922917
4325.62,0.951294830044633
4326.52,0.9394365996746346
4327.42,0.9520934201682217
4328.32,0.9878739807356501
4329.22,1.0341205049026516
4330.12,1.0784110817880412
4331.02,1.1174370420059343
4331.92,1.1456593884304105
4332.82,1.165477627884256
4333.72,1.1652455079426598
4334.62,1.1645311293973122
4335.52,1.1454533792977446
4336.42,1.113662002772012
4337.32,1.0663298195272666
4338.22,1.0171715062915454
4339.12,0.9655515832556232
4340.02,0.9211264939030758
4340.92,0.9006263385983587
4341.82,0.8980128395224883
4342.72,0.9194483599413559
4343.62,0.9450075752984279
4344.52,0.9886135409994338
4345.42,1.0261222465377986
4346.32,1.0579622872316576
4347.22,1.0812048922575095
4348.12,1.1050122315453634
4349.02,1.1030135828248344
4349.92,1.1024518174153806
4350.82,1.0828936876112079
4351.72,1.0654486571933368
4352.62,1.0397791814331903
4353.52,1.0296448677417953
4354.42,1.0280576721497678
4355.32,1.036296993358395
4356.22,1.051297385988181
4357.12,1.0669325293469405
4358.02,1.0804108862771007
4358.92,1.0865696132879525
4359.83,1.0998939797756533
4360.73,1.110866927141285
4361.63,1.1188588972088986
