wave,flux
3700.85,-0.0027380089540239337
3701.75,-0.002745514928097293
3702.65,-0.0027303550713259845
3703.55,-0.002664251859078656
3704.45,-0.0025876918963377666
3705.35,-0.0025520003500975196
3706.25,-0.002550287775671451
3707.15,-0.0025817152603074805
3708.05,-0.00263922411601356
3708.96,-0.00271697801574665
3709.86,-0.002779835441879971
3710.76,-0.0028369943760915305
3711.66,-0.002913452196528252
3712.56,-0.0030328963423558795
3713.46,-0.00315348685636793
3714.36,-0.0033281882339093755
3715.26,-0.0034627758578197362
3716.16,-0.003586933452394514
3717.06,-0.0036535921522245825
3717.96,-0.003648387586955961
3718.86,-0.003553930373151016
3719.76,-0.003424892693241894
3720.66,-0.003276613356388095
3721.56,-0.0031509189741864897
3722.46,-0.0031298230886730063
3723.36,-0.0032205488177689027
3724.26,-0.0034034134786544603
3725.16,-0.0036360072984807017
3726.06,-0.0038693903580644426
3726.96,-0.004071979339951124
3727.86,-0.004204380797315437
3728.76,-0.004287143372126296
3729.66,-0.0043529787309470064
3730.56,-0.004328626558011899
3731.46,-0.004234505198376949
3732.36,-0.004070214608150805
3733.26,-0.003878182083218365
3734.16,-0.0036727726948951236
3735.06,-0.0035403328274050665
3735.96,-0.003564886607874835
3736.86,-0.0036904987738224536
3737.76,-0.003955893391622445
3738.66,-0.004329584348256497
3739.56,-0.004727344844888194
3740.46,-0.0050792864800501365
3741.36,-0.0053522382548831255
3742.26,-0.005503965226746225
3743.16,-0.0055444677400363854
3744.06,-0.00553538665292841
3744.96,-0.0054406791620059845
3745.86,-0.005293200492877208
3746.76,-0.005102363165475783
3747.67,-0.004883070022103044
3748.57,-0.004714340873589992
3749.47,-0.0045788480104166605
3750.37,-0.004567904514075079
3751.27,-0.004750824768161655
3752.17,-0.005130595054704924
3753.07,-0.0056169748057535215
3753.97,-0.006113667953113124
3754.87,-0.006622402542544501
3755.77,-0.006977534917887737
3756.67,-0.0072492066083585105
3757.57,-0.007321642773794856
3758.47,-0.007355745658002589
3759.37,-0.007379563315701849
3760.27,-0.007463104851974955
3761.17,-0.007605190263849851
3762.07,-0.007843627664409929
3762.97,-0.008072200965388458
3763.87,-0.008259447683612893
3764.77,-0.008389830607472346
3765.67,-0.008445252089709325
3766.57,-0.00836796989025043
3767.47,-0.008200115296795967
3768.37,-0.008039096954488787
3769.27,-0.007883409074408917
3770.17,-0.007718847767449358
3771.07,-0.00771006459094749
3771.97,-0.007958413700094287
3772.87,-0.008271739830088247
3773.77,-0.008808215712756398
3774.67,-0.009344015242324493
3775.57,-0.009952452740917361
3776.47,-0.01048872391583159
3777.37,-0.011060427397730917
3778.27,-0.011549762220567805
3779.17,-0.01215936735897205
3780.07,-0.01257681558341963
3780.97,-0.013146628293677475
3781.87,-0.013568971012199761
3782.77,-0.013898475072876448
3783.67,-0.014129959283017276
3784.57,-0.014275784287315484
3785.47,-0.01432161394244409
3786.38,-0.014314148122737428
3787.28,-0.014166634498601432
3788.18,-0.014157475156962526
3789.08,-0.014120373414220165
3789.98,-0.014153095848941779
3790.88,-0.014177773039998677
3791.78,-0.01415533770722499
3792.68,-0.014015378093726947
3793.58,-0.013815957000388384
3794.48,-0.013482378318979077
3795.38,-0.012999419638016855
3796.28,-0.012498458311499363
3797.18,-0.012045795589403567
3798.08,-0.011867659311255293
3798.98,-0.012053765589827594
3799.88,-0.012657629971346509
3800.78,-0.013645619235783104
3801.68,-0.014901377346847535
3802.58,-0.01626577090458497
3803.48,-0.017628677293079126
3804.38,-0.018769891890923394
3805.28,-0.019729631332295317
3806.18,-0.020299173630707535
3807.08,-0.02100546288936207
3807.98,-0.02180884543428077
3808.88,-0.02255677787865836
3809.78,-0.02326565995018076
3810.68,-0.02396363364946762
3811.58,-0.02448049737479747
3812.48,-0.024701377360893388
3813.38,-0.024975307103831487
3814.28,-0.024867100848108913
3815.18,-0.02504325189413914
3816.08,-0.02540232983238429
3816.98,-0.02587147735807652
3817.88,-0.026490825953900406
3818.78,-0.02692894362923034
3819.68,-0.02737322808501895
3820.58,-0.02788311996363708
3821.48,-0.02796965417883028
3822.38,-0.028293177819683248
3823.28,-0.028458761116601946
3824.18,-0.02848717381774515
3825.09,-0.028404003652979088
3825.99,-0.028322160905982403
3826.89,-0.028234390561039508
3827.79,-0.028179252067646723
3828.69,-0.02807019332843323
3829.59,-0.027825709500027232
3830.49,-0.027706041207993037
3831.39,-0.026935213829171363
3832.29,-0.026109428700099267
3833.19,-0.025152733787207577
3834.09,-0.02395810100879003
3834.99,-0.023371005114107772
3835.89,-0.023244726180960535
3836.79,-0.023624210436660617
3837.69,-0.024763052956371868
3838.59,-0.026439402921701466
3839.49,-0.02855346738561614
3840.39,-0.03114561027481637
3841.29,-0.03393660457226779
3842.19,-0.036844408132300166
3843.09,-0.03995142768661572
3843.99,-0.042818513153249096
3844.89,-0.0454160227912348
3845.79,-0.04793538399698796
3846.69,-0.05036366041863939
3847.59,-0.05221172366284006
3848.49,-0.054034934635597436
3849.39,-0.05557326360729785
3850.29,-0.05727350436130977
3851.19,-0.05925223285986599
3852.09,-0.06114514655156481
3852.99,-0.0629298542660519
3853.89,-0.06461456629866737
3854.79,-0.06621619777953702
3855.69,-0.06744453053119431
3856.59,-0.06853627524652495
3857.49,-0.06942629314620913
3858.39,-0.07010095624925408
3859.29,-0.0715216421724419
3860.19,-0.07331799764490848
3861.09,-0.07530273299831802
3861.99,-0.07839930413321439
3862.9,-0.08173414794874871
3863.8,-0.08512787171731828
3864.7,-0.08813046865943511
3865.6,-0.0906098306887162
3866.5,-0.09282292185943317
3867.4,-0.09475962526245153
3868.3,-0.0967762010424778
3869.2,-0.09920770791939765
3870.1,-0.1006473237156153
3871.0,-0.10179895391272263
3871.9,-0.102244061389677
3872.8,-0.10325198432759435
3873.7,-0.10460907851273356
3874.6,-0.10651740811291126
3875.5,-0.1092548707118135
3876.4,-0.1116486881577141
3877.3,-0.11360000168903668
3878.2,-0.11570537927407801
3879.1,-0.1171275722240178
3880.0,-0.11892771804228422
3880.9,-0.1208774417220325
3881.8,-0.12334935813422525
3882.7,-0.12475044711381159
3883.6,-0.1260440755812376
3884.5,-0.12470043324413228
3885.4,-0.12304321198373547
3886.3,-0.12050509141900023
3887.2,-0.11678366458573629
3888.1,-0.11372288396021228
3889.0,-0.11287956292541318
3889.9,-0.11484008307548849
3890.8,-0.12028289294656407
3891.7,-0.1301736708766241
3892.6,-0.14135935797087268
3893.5,-0.15368570226696524
3894.4,-0.165573084763609
3895.3,-0.1780804608205693
3896.2,-0.19046924010178173
3897.1,-0.20004590399139754
3898.0,-0.21257870881105803
3898.9,-0.22388519230944015
3899.8,-0.23520902330583882
3900.7,-0.2455658221348984
3901.6,-0.25901251409755327
3902.51,-0.26909681038297717
3903.41,-0.2796158626123996
3904.31,-0.2909859110258381
3905.21,-0.3019384816010598
3906.11,-0.31517513887833715
3907.01,-0.3307531056577892
3907.91,-0.3475862242951655
3908.81,-0.3673595292080505
3909.71,-0.39090285950164944
3910.61,-0.4179046116060887
3911.51,-0.43717630390432777
3912.41,-0.458973063752497
3913.31,-0.48077068078484386
3914.21,-0.4993089237644479
3915.11,-0.5192237367772946
3916.01,-0.5409090531652885
3916.91,-0.5621074289431313
3917.81,-0.5827264315593444
3918.71,-0.607455454069645
3919.61,-0.6349511063001901
3920.51,-0.6637428168744404
3921.41,-0.6950368432527566
3922.31,-0.7306413618233248
3923.21,-0.7763134071993807
3924.11,-0.8172376897684056
3925.01,-0.859882926342886
3925.91,-0.900038926096346
3926.81,-0.9351711682280527
3927.71,-0.9524761747436798
3928.61,-0.9659927963923
3929.51,-0.9635113169226679
3930.41,-0.9512559841515432
3931.31,-0.9270245727708477
3932.21,-0.8930784244682473
3933.11,-0.8824570950995448
3934.01,-0.9061062527503607
3934.91,-1.0042255645228555
3935.81,-1.2089023023875278
3936.71,-1.547199423315116
3937.61,-2.070632758552154
3938.51,-2.839953715301086
3939.42,-4.009997115710139
3940.32,-5.845523434987976
3941.22,-9.307850781241603
3942.12,-18.61311059155011
3943.02,-203.58225153865754
3943.92,24.994275981897122
3944.82,12.197594518819974
3945.72,8.187212508467212
3946.62,6.257804739051555
3947.52,5.120290790878306
3948.42,4.327169180363162
3949.32,3.7621599863849555
3950.22,3.350905602217543
3951.12,3.036921250560068
3952.02,2.7613427814233904
3952.92,2.5439087078693055
3953.82,2.3730763310389946
3954.72,2.2075616339164545
3955.62,2.074889447901826
3956.52,1.9457395492543947
3957.42,1.822756581249988
3958.32,1.7157222098542353
3959.22,1.6180137407592807
3960.12,1.5226056435655153
3961.02,1.4199795681717524
3961.92,1.3180000037984534
3962.82,1.2035624839989891
3963.72,1.100689845614117
3964.62,0.9891850488806341
3965.52,0.874237678747189
3966.42,0.7602957391430937
3967.32,0.6516940378534567
3968.22,0.5643972859327152
3969.12,0.5005574685328726
3970.02,0.4709310923791943
3970.92,0.4761054600999837
3971.82,0.5118261658923036
3972.72,0.5666881228145095
3973.62,0.6355098090751365
3974.52,0.6990362406771288
3975.42,0.7623868244647498
3976.32,0.817956603712684
3977.22,0.8622009683267795
3978.13,0.9025285771314149
3979.03,0.9291689123516418
3979.93,0.955319777310187
3980.83,0.9664892853054704
3981.73,0.9772008842164838
3982.63,0.9804882871616838
3983.53,0.9834938760453429
3984.43,0.9849458114089488
3985.33,0.9842842667100928
3986.23,0.9904676030375679
3987.13,0.9929130192957398
3988.03,0.9987618643621052
3988.93,1.0025941531284668
3989.83,1.0059151926183387
3990.73,1.008954163418411
3991.63,1.015841447674378
3992.53,1.0096089095803893
3993.43,1.011891073611488
3994.33,1.005178385036757
3995.23,0.9951642378584803
3996.13,0.9856148046091654
3997.03,0.9738418391608803
3997.93,0.9700295854536162
3998.83,0.9665935977898736
3999.73,0.9735610951569696
4000.63,0.9796949761579011
4001.53,0.9875611921918884
4002.43,0.9897946235805795
4003.33,0.990616241955521
4004.23,0.9849583879537396
4005.13,0.9735671884662228
4006.03,0.9673840408256351
4006.93,0.9627492916488769
4007.83,0.9638392943874827
4008.73,0.9728819106299302
4009.63,0.9837486484604311
4010.53,0.9919288872158516
4011.43,0.9981989233843827
4012.33,0.9977040041001339
4013.23,0.9967711815728538
4014.13,0.9950537474038517
4015.03,1.0010490859812606
4015.93,1.0012160363353595
4016.84,1.0032978676316675
4017.74,1.0032371011958932
4018.64,1.0055597257659084
4019.54,1.0098198233183389
4020.44,1.0107758316145008
4021.34,1.0126158805835719
4022.24,1.0136486410313283
4023.14,1.0086796974613108
4024.04,1.01172258262555
4024.94,1.0114569475715318
4025.84,1.0199431284714748
4026.74,1.0133884455308368
4027.64,1.021817108061527
4028.54,1.0210635758034134
4029.44,1.014869524107134
4030.34,1.0041381895721848
4031.24,0.987559628361674
4032.14,0.9781090672349046
4033.04,0.969453734173608
4033.94,0.9740836301015723
4034.84,0.9803705765054335
4035.74,0.997244833262043
4036.64,1.0142269870476384
4037.54,1.0329226298265195
4038.44,1.0450128156936414
4039.34,1.0570309195322245
4040.24,1.0556008289519565
4041.14,1.0518879433979456
4042.04,1.0419863661922626
4042.94,1.0314746310245182
4043.84,1.0161086866470486
4044.74,1.0084510252586774
4045.64,0.9897608153359171
4046.54,0.9882265724356094
4047.44,0.9921039491734919
4048.34,1.0017632444650584
4049.24,1.0190541408148543
4050.14,1.0360443482195032
4051.04,1.0431309066760097
4051.94,1.0489135571551953
4052.84,1.0478330564595981
4053.74,1.045660394894154
4054.65,1.0371763620476289
4055.55,1.0349127182749545
4056.45,1.0307500779147096
4057.35,1.027192279649128
4058.25,1.028758859234722
4059.15,1.0337473365206176
4060.05,1.0372480131732758
4060.95,1.0369378147587762
4061.85,1.0307236635530435
4062.75,1.0243595871512354
4063.65,1.0164047844001016
4064.55,1.0120598678895747
4065.45,1.0081639834530198
4066.35,1.0087097940649432
4067.25,1.0118222333892115
4068.15,1.0240120246091076
4069.05,1.0320758777638337
4069.95,1.0386301600929453
4070.85,1.0395627392151123
4071.75,1.0357519697202273
4072.65,1.0315477318459731
4073.55,1.031309856072396
4074.45,1.0227650474104812
4075.35,1.0129032906893611
4076.25,0.9974234815768488
4077.15,0.9853025949344074
4078.05,0.9750075583298686
4078.95,0.9708691027164014
4079.85,0.9850796370216761
4080.75,0.9945341396138297
4081.65,1.001143769067658
4082.55,1.0163112547977653
4083.45,1.020346526903896
4084.35,1.0205418648358302
4085.25,1.0224775887817352
4086.15,1.0221994107809418
4087.05,1.0278287353967486
4087.95,1.037098747236905
4088.85,1.0473333359919585
4089.75,1.0505245606256188
4090.65,1.0404132915491404
4091.55,1.0352053934908203
4092.45,1.0263195883401723
4093.36,1.014379369913435
4094.26,0.9938058026633931
4095.16,0.9762279443416224
4096.06,0.9491514629520222
4096.96,0.9182260628845845
4097.86,0.8828480693073769
4098.76,0.8450692021100701
4099.66,0.8043038036563239
4100.56,0.764467256217588
4101.46,0.7303382065954414
4102.36,0.7121849994444917
4103.26,0.710781820371243
4104.16,0.7284800606433838
4105.06,0.7623878240041027
4105.96,0.797876079967467
4106.86,0.8355652830507139
4107.76,0.8728338258887169
4108.66,0.8995023404923403
4109.56,0.9206559244558828
4110.46,0.9350352199494875
4111.36,0.9536640712443079
4112.26,0.9701163590428232
4113.16,0.9829867925622202
4114.06,0.9930109650215122
4114.96,1.0080750385261914
4115.86,1.0180777006425086
4116.76,1.0267775568668538
4117.66,1.0247794016682068
4118.56,1.0248061663384824
4119.46,1.019521240216222
4120.36,1.0191606574077157
4121.26,1.0159062403820163
4122.16,1.020617068747613
4123.06,1.021745751190303
4123.96,1.0272495042516325
4124.86,1.031425506156843
4125.76,1.0364108043485318
4126.66,1.0412941305653038
4127.56,1.042489072942116
4128.46,1.0329393743817907
4129.36,1.024900347862075
4130.26,1.0250659608904675
4131.17,1.0175324802905683
4132.06,1.0140702734239697
4132.97,1.0051054089617115
4133.87,1.0088425045797855
4134.77,1.0095665295240699
4135.67,1.0145481650600021
4136.57,1.0286695685138594
4137.47,1.0465148016685608
4138.37,1.0541192654634037
4139.27,1.0620007798520448
4140.17,1.0671475384796165
4141.07,1.0556074673024307
4141.97,1.051533650531737
4142.87,1.0349492153028474
4143.77,1.0252509146477153
4144.67,1.014805392418776
4145.57,1.0176093861878266
4146.47,1.0244676155118781
4147.37,1.0309282154483312
4148.27,1.0386509842839333
4149.17,1.0426174896488125
4150.07,1.0400402564566493
4150.97,1.0374349705159274
4151.87,1.03838960494942
4152.77,1.0343843080476554
4153.67,1.0276637655450702
4154.57,1.019345714166648
4155.47,1.0218763889527642
4156.37,1.0229329164050944
4157.27,1.0222319481320605
4158.17,1.0242384560590316
4159.07,1.0330524466754123
4159.97,1.0396854895304366
4160.87,1.0495808123391737
4161.77,1.0505599395315128
4162.67,1.0538866043840098
4163.57,1.057620288488387
4164.47,1.0569016605855157
4165.37,1.0512566259928458
4166.27,1.0512633445460156
4167.17,1.0478323121639483
4168.07,1.039684085578934
4168.98,1.0386273221295719
4169.88,1.0254102942026038
4170.78,1.017088882463518
4171.68,0.99901784835402
4172.58,0.9885176122866348
4173.48,0.9816570982627612
4174.38,0.9759617999949353
4175.28,0.9715275807463654
4176.18,0.9732950910492717
4177.08,0.9744266116070212
4177.98,0.986819529785508
4178.88,0.99020894905292
4179.78,0.9950637198103433
4180.68,1.001302652605796
4181.58,1.0088588217747245
4182.48,1.012538317239503
4183.38,1.0085070707577535
4184.28,1.0124781030850167
4185.18,1.0115872692047365
4186.08,1.009720428386619
4186.98,1.0058876183127006
4187.88,1.00496249648999
4188.78,1.0060484077973102
4189.68,1.0100875647525087
4190.58,1.0104461754911678
4191.48,1.0131776900095006
4192.38,1.0198822762304416
4193.28,1.0297686196046556
4194.18,1.0285543260046066
4195.08,1.0252793209354236
4195.98,1.0149500713181994
4196.88,1.0025117881990275
4197.78,0.9940816491034219
4198.68,0.9880891004786446
4199.58,0.9794448536304464
4200.48,0.9754149360626272
4201.38,0.9727180449018188
4202.28,0.9733670330196199
4203.18,0.9758917837929054
4204.08,0.9822062165139805
4204.98,0.9877980171488533
4205.88,0.994986469326423
4206.79,1.002952369090258
4207.69,1.0094159424368025
4208.59,1.0194274070614224
4209.49,1.0210969696511039
4210.39,1.0284570218412046
4211.29,1.0280975519901496
4212.19,1.0230854744228397
4213.09,1.0240949470923537
4213.99,1.0205485042566633
4214.89,1.0112054058099398
4215.79,1.0059013533492416
4216.69,1.0019477127690941
4217.59,1.0034430357521968
4218.49,1.0016651871767526
4219.39,1.0138025757832079
4220.29,1.021217558620184
4221.19,1.0239870813828953
4222.09,1.0158189977441259
4222.99,1.0100269179352899
4223.89,0.990781515517357
4224.79,0.9698791311612265
4225.69,0.9506142810797035
4226.59,0.9339996300200313
4227.49,0.9248447771202744
4228.39,0.9291368258309949
4229.29,0.943187840239122
4230.19,0.9696702923777926
4231.09,0.9857062961916787
4231.99,0.9990592282299167
4232.89,1.0100586365892266
4233.79,1.0023773867993038
4234.69,1.0056036960199823
4235.59,1.0034834862211321
4236.49,0.9975189729848469
4237.39,0.9913103290466532
4238.29,0.9929952577487345
4239.19,0.9983027059890427
4240.09,1.0047427644929383
4240.99,1.0127920287954189
4241.89,1.0196542098963906
4242.79,1.025816051580504
4243.69,1.0285269556583345
4244.59,1.0351548317176844
4245.5,1.0325526838046324
4246.4,1.0215052507892883
4247.3,1.0162112811437627
4248.2,1.0097914085931459
4249.1,1.001924610508631
4250.0,0.9981767447846744
4250.9,0.9973440724561413
4251.8,1.004251067561077
4252.7,1.0112760372397311
4253.6,1.020054559995204
4254.5,1.0205586407216982
4255.4,1.0210029503776712
4256.3,1.031329807995116
4257.2,1.0348885224279865
4258.1,1.030293948122891
4259.0,1.0270864787581468
4259.9,1.021112038633635
4260.8,1.0248597779377202
4261.7,1.0191381849481669
4262.6,1.0297643864021049
4263.5,1.0378422095965385
4264.4,1.051773338159251
4265.3,1.0573430609456085
4266.2,1.0632651176914767
4267.1,1.0627129047469834
4268.0,1.0594590795745886
4268.9,1.047090011212476
4269.8,1.0355920704495958
4270.7,1.0156507967051611
4271.6,1.0008686352161618
4272.5,0.992820823668158
4273.4,0.989134807427839
4274.3,0.9855093042876305
4275.2,0.993600014917212
4276.1,1.0030597552966778
4277.0,1.0194862788610584
4277.9,1.029112905618262
4278.8,1.0390446635692159
4279.7,1.043051054435349
4280.6,1.0418791582636757
4281.5,1.0406839008218698
4282.4,1.0377866918028003
4283.31,1.0344899020850955
4284.21,1.0226866672723398
4285.11,1.0201349055962237
4286.01,1.0130120966038125
4286.91,1.0004009981754471
4287.81,0.9904762643422279
4288.71,0.9856757209983209
4289.61,0.9737467485283958
4290.51,0.9648756487700102
4291.41,0.9644140620398771
4292.31,0.9736374399256853
4293.21,0.9751903204149477
4294.11,0.984975064686647
4295.01,0.991130518814982
4295.91,0.9876526339881428
4296.81,0.9750313857705625
4297.71,0.9593050172610542
4298.61,0.9433008439340835
4299.51,0.9239738860589389
4300.41,0.9072611509409569
4301.31,0.8922195838676996
4302.21,0.8841020631201827
4303.11,0.8839731684430646
4304.01,0.8853101918975296
4304.91,0.8921942855154485
4305.81,0.8900839041872465
4306.71,0.8897736190203701
4307.61,0.8851712790711346
4308.51,0.8889743222601372
4309.41,0.889613866959532
4310.31,0.890523771514473
4311.21,0.8995558051710937
4312.11,0.9177629013955193
4313.01,0.9323698391761112
4313.91,0.950312697171291
4314.81,0.9743909245846928
4315.71,0.9997787688528004
4316.61,1.030885975088616
4317.51,1.0490985189002948
4318.41,1.069040432010349
4319.31,1.0837729024752396
4320.21,1.0818847980856758
4321.12,1.0773965253520863
4322.02,1.0595032905860493
4322.92,1.0357142083943363
4323.82,1.0202659598367227
4324.72,0.9988542812080189
4325.62,0.982486847879405
4326.52,0.9818824962442648
4327.42,0.9805003709377165
4328.32,0.9886649701087112
4329.22,0.9980377599939069
4330.12,1.0116895083720963
4331.02,1.0204795948321805
4331.92,1.0142883374412774
4332.82,1.0189933180576183
4333.72,1.0063177600156783
4334.62,0.9922195975155469
4335.52,0.9662810587266086
4336.42,0.9312687390548929
4337.32,0.8956019634871439
4338.22,0.8509206573702965
4339.12,0.8065492184899102
4340.02,0.7666070393599378
4340.92,0.7501197585110225
4341.82,0.743010761534021
4342.72,0.7599813338880194
4343.62,0.787254902750567
4344.52,0.823796497228665
4345.42,0.8645092737684053
4346.32,0.9036111808498701
4347.22,0.9335658207463547
4348.12,0.9579245391838538
4349.02,0.9743864199147106
4349.92,0.9807780857413112
4350.82,0.9838193542930542
