wave,flux
3700.85,-6.129238422251158e-05
3701.75,-6.089061167090644e-05
3702.65,-5.95891661135023e-05
3703.55,-5.775861469662662e-05
3704.45,-5.62608413350975e-05
3705.35,-5.5077931473954536e-05
3706.25,-5.492051544718543e-05
3707.15,-5.541432088222744e-05
3708.05,-5.665440987588167e-05
3708.96,-5.726511956667071e-05
3709.86,-5.7891624883672705e-05
3710.76,-5.868059687794439e-05
3711.66,-5.9329208468933394e-05
3712.56,-6.036013015523251e-05
3713.46,-6.240775919630938e-05
3714.36,-6.487531681920061e-05
3715.26,-6.725855266089613e-05
3716.16,-6.928509184025114e-05
3717.06,-6.99422495145287e-05
3717.96,-6.94568497987924e-05
3718.86,-6.719690120056259e-05
3719.76,-6.392168804538964e-05
3720.66,-6.107065062164385e-05
3721.56,-5.820612892082799e-05
3722.46,-5.754879028261787e-05
3723.36,-5.8538540511648685e-05
3724.26,-6.151663918989352e-05
3725.16,-6.505049613351487e-05
3726.06,-6.887442387233108e-05
3726.96,-7.168387457201443e-05
3727.86,-7.360019896429472e-05
3728.76,-7.494918110994258e-05
3729.66,-7.494935639855744e-05
3730.56,-7.357211091403056e-05
3731.46,-7.128172096144652e-05
3732.36,-6.763895261577393e-05
3733.26,-6.346440799375605e-05
3734.16,-5.976892440177167e-05
3735.06,-5.738317049468309e-05
3735.96,-5.747705373780889e-05
3736.86,-5.960688292687081e-05
3737.76,-6.369164711178324e-05
3738.66,-6.939342965821349e-05
3739.56,-7.478861956491329e-05
3740.46,-7.978009010926473e-05
3741.36,-8.291639954154243e-05
3742.26,-8.49576682390347e-05
3743.16,-8.50148310127011e-05
3744.06,-8.326626059734484e-05
3744.96,-8.13126871946127e-05
3745.86,-7.808704435371552e-05
3746.76,-7.462818868076503e-05
3747.67,-7.015660192051506e-05
3748.57,-6.667604433184311e-05
3749.47,-6.36736762660127e-05
3750.37,-6.306025275746633e-05
3751.27,-6.45632327834102e-05
3752.17,-6.890938908809065e-05
3753.07,-7.471701283297772e-05
3753.97,-8.111002880172217e-05
3754.87,-8.700305072936776e-05
3755.77,-9.12426170838264e-05
3756.67,-9.461765364365527e-05
3757.57,-9.553850205054096e-05
3758.47,-9.564872784931942e-05
3759.37,-9.585300304637902e-05
3760.27,-9.630412067070066e-05
3761.17,-9.744602081505011e-05
3762.07,-9.951860919415315e-05
3762.97,-0.00010059487049000872
3763.87,-0.00010119244600485686
3764.77,-0.00010087123948582825
3765.67,-9.907092687978337e-05
3766.57,-9.7075062325974e-05
3767.47,-9.349416713014553e-05
3768.37,-8.932752500944111e-05
3769.27,-8.601814988386331e-05
3770.17,-8.289191336231917e-05
3771.07,-8.150039032983395e-05
3771.97,-8.310090872469686e-05
3772.87,-8.575550419168825e-05
3773.77,-9.090557866585006e-05
3774.67,-9.618220536497651e-05
3775.57,-0.00010200382700178496
3776.47,-0.00010754193177848693
3777.37,-0.00011282455096515852
3778.27,-0.00011813185625729998
3779.17,-0.00012322625280372323
3780.07,-0.00012747916598354934
3780.97,-0.00013121497708295114
3781.87,-0.00013390199043085695
3782.77,-0.00013672388823762042
3783.67,-0.00013805787039131715
3784.57,-0.00013775656524275104
3785.47,-0.0001370678822186113
3786.38,-0.0001347955216190725
3787.28,-0.00013231605590139245
3788.18,-0.0001300957156725381
3789.08,-0.00012830841552714006
3789.98,-0.00012645530812561693
3790.88,-0.00012459905329014452
3791.78,-0.00012201617979809996
3792.68,-0.00011861327611830294
3793.58,-0.00011410290190243717
3794.48,-0.00010909572963833301
3795.38,-0.00010312305919718796
3796.28,-9.721017026601819e-05
3797.18,-9.23442313894778e-05
3798.08,-8.933897265454522e-05
3798.98,-8.929002751606039e-05
3799.88,-9.302148292766821e-05
3800.78,-9.920281568921562e-05
3801.68,-0.00010802519632450243
3802.58,-0.00011667569204485495
3803.48,-0.00012537363735965168
3804.38,-0.0001325457793682527
3805.28,-0.00013925231126539389
3806.18,-0.00014401320664090813
3807.08,-0.00014771004493379627
3807.98,-0.0001522444884984512
3808.88,-0.00015616678462442778
3809.78,-0.00015974250151224424
3810.68,-0.00016289283547845116
3811.58,-0.00016558906918487254
3812.48,-0.00016651737052567316
3813.38,-0.00016513678985399948
3814.28,-0.00016513404468246456
3815.18,-0.00016467911836978873
3816.08,-0.0001648868241584424
3816.98,-0.0001660933263687556
3817.88,-0.00016710959267760456
3818.78,-0.00016874538681289317
3819.68,-0.00016862011932705534
3820.58,-0.0001670642800193259
3821.48,-0.00016640915277347886
3822.38,-0.00016596872343230135
3823.28,-0.00016287522399131358
3824.18,-0.00016109425881588593
3825.09,-0.0001571580163866683
3825.99,-0.0001544702749324609
3826.89,-0.00015157064215667773
3827.79,-0.00014799123989659598
3828.69,-0.00014445805924154348
3829.59,-0.0001405005781750827
3830.49,-0.0001358583440505616
3831.39,-0.00012997069700247608
3832.29,-0.0001226970139580589
3833.19,-0.00011539815318377442
3834.09,-0.00010861975826723672
3834.99,-0.00010405841397305644
3835.89,-0.00010082528993993717
3836.79,-0.00010165833129457543
3837.69,-0.00010529291244775671
3838.59,-0.00011142982737936091
3839.49,-0.00011937278356054369
3840.39,-0.0001289983209764778
3841.29,-0.00013921192000316022
3842.19,-0.00014990632764778634
3843.09,-0.0001603214072610719
3843.99,-0.00016934825217341062
3844.89,-0.0001782764231382267
3845.79,-0.0001847331466445051
3846.69,-0.00019133019987838294
3847.59,-0.00019644273777210503
3848.49,-0.0002009302033909899
3849.39,-0.00020499324182780417
3850.29,-0.00020802281222876177
3851.19,-0.00021230740004666608
3852.09,-0.0002159020816927647
3852.99,-0.00021893201762370233
3853.89,-0.00022220484496091137
3854.79,-0.00022464311090363346
3855.69,-0.00022614576342329582
3856.59,-0.00022617234503865297
3857.49,-0.00022606138457162238
3858.39,-0.0002266949349938771
3859.29,-0.00022621804813674484
3860.19,-0.00022883710060859022
3861.09,-0.00023305275306972095
3861.99,-0.00023536537408382904
3862.9,-0.00024016708530735567
3863.8,-0.00024474994668844085
3864.7,-0.0002468722472154617
3865.6,-0.0002488499332455389
3866.5,-0.0002509360938309469
3867.4,-0.0002511458710298652
3868.3,-0.000250317219784359
3869.2,-0.0002511032771154808
3870.1,-0.0002504179695819962
3871.0,-0.0002472566739916501
3871.9,-0.0002452307985549648
3872.8,-0.00024411806833116685
3873.7,-0.00024254633450954098
3874.6,-0.00024186684257068938
3875.5,-0.00024272153857820902
3876.4,-0.00024111264833297184
3877.3,-0.00023950389383907924
3878.2,-0.00023597077522674484
3879.1,-0.0002321273113641889
3880.0,-0.00022959145066157318
3880.9,-0.00022686804302437264
3881.8,-0.00022389533697616076
3882.7,-0.00021886190792838405
3883.6,-0.00021369804319810618
3884.5,-0.00020677418775049203
3885.4,-0.00019829878054811935
3886.3,-0.00018772787482415013
3887.2,-0.0001767403117938115
3888.1,-0.00016869733202652573
3889.0,-0.000163313137011623
3889.9,-0.00016184185127367487
3890.8,-0.00016566318325797843
3891.7,-0.00017429379842290036
3892.6,-0.0001867075082091454
3893.5,-0.0001993794838798626
3894.4,-0.00021089310484619507
3895.3,-0.00022301471616154646
3896.2,-0.00023255351526189967
3897.1,-0.00024183791466469184
3898.0,-0.0002504379232418996
3898.9,-0.0002585688537746517
3899.8,-0.00026594974651708526
3900.7,-0.00027184376245216555
3901.6,-0.00027745042838173606
3902.51,-0.0002831933763643138
3903.41,-0.00028888300158445027
3904.31,-0.00029246011882672415
3905.21,-0.0002966872283916264
3906.11,-0.0003008505114040665
3907.01,-0.0003063135903032955
3907.91,-0.00031424541193106467
3908.81,-0.00032095542138599743
3909.71,-0.0003288638146663693
3910.61,-0.0003351968721412086
3911.51,-0.0003424588371510517
3912.41,-0.00034796298164570374
3913.31,-0.00034905351936742363
3914.21,-0.0003505866384013493
3915.11,-0.0003523803807567461
3916.01,-0.0003519910867674248
3916.91,-0.00035257833432272867
3917.81,-0.0003519398191404543
3918.71,-0.0003519629658026272
3919.61,-0.00035344059493763497
3920.51,-0.0003518152913897284
3921.41,-0.00035374969135310426
3922.31,-0.0003562926551717893
3923.21,-0.00035842197469859537
3924.11,-0.00035935936364237024
3925.01,-0.00035881392142611605
3925.91,-0.0003544535417886851
3926.81,-0.00034788212049186956
3927.71,-0.00034076615676966924
3928.61,-0.00032743290008911967
3929.51,-0.0003107792314697652
3930.41,-0.0002900524023467393
3931.31,-0.00026671672387436443
3932.21,-0.0002463289381815848
3933.11,-0.00022436497875735414
3934.01,-0.00021510280422995013
3934.91,-0.00021325644075243096
3935.81,-0.00022288194554811422
3936.71,-0.00024387883331639942
3937.61,-0.0002693197832461968
3938.51,-0.00029733741165901157
3939.42,-0.00032543268438843553
3940.32,-0.00034722100925232594
3941.22,-0.00036472197396284487
3942.12,-0.00037641524016374046
3943.02,-0.00038815025223475714
3943.92,-0.00039269449360370166
3944.82,-0.00040039294642890954
3945.72,-0.0004057758513862294
3946.62,-0.00041272741035860186
3947.52,-0.00041572161313940993
3948.42,-0.00042078520838484857
3949.32,-0.00042300728022566373
3950.22,-0.00042699536880391986
3951.12,-0.0004291755008390913
3952.02,-0.00043197329337460385
3952.92,-0.0004307769649817399
3953.82,-0.00043273478142936587
3954.72,-0.0004329379175926571
3955.62,-0.0004335428571708882
3956.52,-0.0004297377854810074
3957.42,-0.00042587275702317656
3958.32,-0.00042015989794981647
3959.22,-0.00041556972327371454
3960.12,-0.0004077518519024036
3961.02,-0.0003957354899856242
3961.92,-0.0003818703138696348
3962.82,-0.0003652002432481099
3963.72,-0.00034339840266218
3964.62,-0.00031977309648124555
3965.52,-0.00029432383957887255
3966.42,-0.00026406523014876855
3967.32,-0.0002364290379881858
3968.22,-0.0002108414978573032
3969.12,-0.00019322080192792226
3970.02,-0.000187012761249688
3970.92,-0.0001912620921000504
3971.82,-0.00020814022543033442
3972.72,-0.0002323297530229717
3973.62,-0.00026439857309362464
3974.52,-0.0002965889952821334
3975.42,-0.0003304071285420161
3976.32,-0.0003603900583318588
3977.22,-0.0003884049338326325
3978.13,-0.0004148497922160569
3979.03,-0.0004367262832754244
3979.93,-0.00045780872631235805
3980.83,-0.0004767023863345138
3981.73,-0.0004891508969277575
3982.63,-0.000503402012682253
3983.53,-0.0005124396582667029
3984.43,-0.0005228804549875888
3985.33,-0.0005352557200054701
3986.23,-0.0005452235544134243
3987.13,-0.0005578080523099298
3988.03,-0.0005670275130694612
3988.93,-0.0005783147604350023
3989.83,-0.0005901944747768959
3990.73,-0.0005990531558209015
3991.63,-0.000609060382165993
3992.53,-0.0006168867224743972
3993.43,-0.0006251122342680325
3994.33,-0.0006284661646740104
3995.23,-0.0006322747629751947
3996.13,-0.0006325652666704656
3997.03,-0.0006354172875458632
3997.93,-0.0006378419805046256
3998.83,-0.0006409981877461869
3999.73,-0.0006534014024976572
4000.63,-0.0006615497534020984
4001.53,-0.0006769732480056219
4002.43,-0.00068384830893671
4003.33,-0.0006906154639867437
4004.23,-0.0006918448995425747
4005.13,-0.000693182264767913
4006.03,-0.0006936355267673496
4006.93,-0.0006981310439051287
4007.83,-0.0007057988979101396
4008.73,-0.0007168189267102643
4009.63,-0.000728555477261504
4010.53,-0.0007363725622444733
4011.43,-0.0007459658099828522
4012.33,-0.0007513758811533596
4013.23,-0.0007582448382497466
4014.13,-0.0007666623769951689
4015.03,-0.0007717951747851128
4015.93,-0.0007770925279672288
4016.84,-0.0007815396214143236
4017.74,-0.0007915538067331816
4018.64,-0.0007984070632118802
4019.54,-0.0008080252106725447
4020.44,-0.0008108699671691088
4021.34,-0.0008198541141544755
4022.24,-0.000818881091326203
4023.14,-0.0008290993654489822
4024.04,-0.0008287130816143148
4024.94,-0.0008351199959576982
4025.84,-0.0008438040376687358
4026.74,-0.0008528424767619828
4027.64,-0.0008585552059063615
4028.54,-0.0008618380309425955
4029.44,-0.0008621585891529446
4030.34,-0.000858553405009007
4031.24,-0.0008549393483879575
4032.14,-0.0008509641306374026
4033.04,-0.0008540047025985301
4033.94,-0.0008586975657397126
4034.84,-0.000871117626508801
4035.74,-0.000887797002379387
4036.64,-0.0009067780076787807
4037.54,-0.0009264904715124354
4038.44,-0.0009424418930403725
4039.34,-0.000951953528880775
4040.24,-0.000955644050159325
4041.14,-0.0009594985483717977
4042.04,-0.000956240180704053
4042.94,-0.0009571772275557501
4043.84,-0.0009499452563474368
4044.74,-0.0009466806675550367
4045.64,-0.0009378856030035239
4046.54,-0.0009409311366618262
4047.44,-0.0009506895294124591
4048.34,-0.0009670569482754344
4049.24,-0.0009839271532435206
4050.14,-0.0009978465981582006
4051.04,-0.0010099699028934133
4051.94,-0.0010221361436592207
4052.84,-0.0010309771068384896
4053.74,-0.0010303876780968343
4054.65,-0.0010279956853004092
4055.55,-0.0010285551167254665
4056.45,-0.0010327952545462222
4057.35,-0.0010364580739858742
4058.25,-0.001047656910548662
4059.15,-0.0010551781717142836
4060.05,-0.001063193913745064
4060.95,-0.001067611341273174
4061.85,-0.0010683564269968295
4062.75,-0.0010725200419374587
4063.65,-0.0010701960364614277
4064.55,-0.001069681340406136
4065.45,-0.0010698396682181676
4066.35,-0.0010796847065476381
4067.25,-0.0010965778059496823
4068.15,-0.001110894431364009
4069.05,-0.0011189613407245115
4069.95,-0.0011320456398299708
4070.85,-0.0011359528080196733
4071.75,-0.0011405312056981787
4072.65,-0.0011464619106108776
4073.55,-0.001143019190837778
4074.45,-0.0011441231462254457
4075.35,-0.001137993056103102
4076.25,-0.001130065881016331
4077.15,-0.0011250423727340402
4078.05,-0.0011268593989072304
4078.95,-0.001126354436348491
4079.85,-0.0011394986980712578
4080.75,-0.001158764819295901
4081.65,-0.0011728376065898967
4082.55,-0.0011877785089979365
4083.45,-0.0012011182140863749
4084.35,-0.0012008269448448112
4085.25,-0.0012057334599449362
4086.15,-0.0012098126725762187
4087.05,-0.0012197564421304484
4087.95,-0.0012309687391213867
4088.85,-0.0012361314315769772
4089.75,-0.0012437077106462818
4090.65,-0.0012466293955400473
4091.55,-0.0012393937021594357
4092.45,-0.0012303379993351537
4093.36,-0.0012135919697437473
4094.26,-0.0011922932220027986
4095.16,-0.00116894123140109
4096.06,-0.0011408909016820568
4096.96,-0.0011042724259118894
4097.86,-0.0010674463951200696
4098.76,-0.0010215108336616592
4099.66,-0.0009707890936523058
4100.56,-0.000927421614179371
4101.46,-0.0008857321059331195
4102.36,-0.0008719881969935926
4103.26,-0.0008814978415933902
4104.16,-0.0009064938982867797
4105.06,-0.0009576554002795166
4105.96,-0.0010192272031256185
4106.86,-0.0010843121212133309
4107.76,-0.0011389609208446905
4108.66,-0.0011923777034688473
4109.56,-0.0012398657266739512
4110.46,-0.0012788972850750779
4111.36,-0.0013117974912117516
4112.26,-0.001352138703128856
4113.16,-0.0013899959970061955
4114.06,-0.0014266276158097135
4114.96,-0.0014673085253944043
4115.86,-0.0014950192582681287
4116.76,-0.0015152601310352489
4117.66,-0.001540472231634232
4118.56,-0.00154905142997632
4119.46,-0.001568826403947717
4120.36,-0.0015816157967279282
4121.26,-0.0015970325768583074
4122.16,-0.0016218795049719901
4123.06,-0.0016407872304711442
4123.96,-0.0016524817416276743
4124.86,-0.0016786386262389876
4125.76,-0.0016985913828565522
4126.66,-0.0017248823706472436
4127.56,-0.0017340078103637111
4128.46,-0.0017412655063092448
4129.36,-0.0017528715554773378
4130.26,-0.001758264299910636
4131.17,-0.001770906982887147
4132.06,-0.0017777281218380138
4132.97,-0.00178593493538382
4133.87,-0.0018071736450421094
4134.77,-0.0018322256910705103
4135.67,-0.001858819952195221
4136.57,-0.0018879359894493426
4137.47,-0.0019302948208186075
4138.37,-0.0019582768783756224
4139.27,-0.001990140063838747
4140.17,-0.0020038259178519857
4141.07,-0.002022050683009305
4141.97,-0.002022771666326882
4142.87,-0.0020209104975671393
4143.77,-0.0020192609619873233
4144.67,-0.002023742998204745
4145.57,-0.002033133311828577
4146.47,-0.00206709664854569
4147.37,-0.002091449831106016
4148.27,-0.0021228610640894943
4149.17,-0.0021437683588575447
4150.07,-0.002164888777865547
4150.97,-0.00218319714517669
4151.87,-0.0021925263420388003
4152.77,-0.00219664782649868
4153.67,-0.0022107441951563257
4154.57,-0.0022212764851182298
4155.47,-0.0022263125808500736
4156.37,-0.0022574050786878424
4157.27,-0.0022787224412903475
4158.17,-0.0023006321543779565
4159.07,-0.0023349649358630434
4159.97,-0.0023662509209700275
4160.87,-0.002391125080514749
4161.77,-0.0024221142354506316
4162.67,-0.0024489391205794677
4163.57,-0.002482194694141984
4164.47,-0.0024869006902341045
4165.37,-0.0025199113288106477
4166.27,-0.0025233120988774576
4167.17,-0.0025307229804819665
4168.07,-0.0025535559898432546
4168.98,-0.0025623161485105123
4169.88,-0.0025576929461542785
4170.78,-0.00255960821988909
4171.68,-0.002559300356542963
4172.58,-0.0025346846735019757
4173.48,-0.002528957378171204
4174.38,-0.0025495163924580113
4175.28,-0.002561070059038816
4176.18,-0.0025843677474738018
4177.08,-0.0026114554770702647
4177.98,-0.002646901783351152
4178.88,-0.002689996077961197
4179.78,-0.0027151889864499533
4180.68,-0.002757156886012714
4181.58,-0.0027774436118714048
4182.48,-0.0028296017295430654
4183.38,-0.0028518993680258305
4184.28,-0.0028765307888251324
4185.18,-0.0029049803254812307
4186.08,-0.0029368544804183752
4186.98,-0.002941929249073282
4187.88,-0.002962810347634125
4188.78,-0.002977955778121899
4189.68,-0.0030229717498106807
4190.58,-0.0030510303726597656
4191.48,-0.0030922362995517943
4192.38,-0.0031196997736989214
4193.28,-0.00315332898379761
4194.18,-0.0031875859028311446
4195.08,-0.003199829730162042
4195.98,-0.0032076353233578356
4196.88,-0.0032122175520029844
4197.78,-0.003202031145924578
4198.68,-0.0032054842337538515
4199.58,-0.0032028557280466027
4200.48,-0.0032060187121056
4201.38,-0.0032385226358012313
4202.28,-0.0032586052333630263
4203.18,-0.003309338605175132
4204.08,-0.0033508394222732775
4204.98,-0.003389417036454673
4205.88,-0.003450226553666791
4206.79,-0.0034956748596575247
4207.69,-0.003557384525136311
4208.59,-0.003615203755162134
4209.49,-0.0036432564363445513
4210.39,-0.0036858991442798535
4211.29,-0.0037100654744450776
4212.19,-0.0037447403054123134
4213.09,-0.003773958682013952
4213.99,-0.003769809932831761
4214.89,-0.003792443981474506
4215.79,-0.0037882592186271958
4216.69,-0.003813832803900105
4217.59,-0.003849815180530682
4218.49,-0.003905142520716242
4219.39,-0.003959543143317075
4220.29,-0.003996315264955914
4221.19,-0.004035445688653178
4222.09,-0.004071670935117885
4222.99,-0.00406771737399613
4223.89,-0.004038455577352036
4224.79,-0.0039774615221464865
4225.69,-0.003939602490233102
4226.59,-0.003909535687313299
4227.49,-0.003916460478283827
4228.39,-0.003979633390905047
4229.29,-0.004062462873049836
4230.19,-0.004179764311423232
4231.09,-0.0042832667004652925
4231.99,-0.0043471005507312145
4232.89,-0.0044172664824742094
4233.79,-0.004462053989118086
4234.69,-0.004490147269878816
4235.59,-0.004495086219251699
4236.49,-0.004526815789060376
4237.39,-0.004548464654108421
4238.29,-0.004580641286029383
4239.19,-0.004650897615062925
4240.09,-0.0046855136949697776
4240.99,-0.004775546008607241
4241.89,-0.00483844080664066
4242.79,-0.00489123011479257
4243.69,-0.004962523886185713
4244.59,-0.004984687934441654
4245.5,-0.0050516822459441306
4246.4,-0.005041818109277691
4247.3,-0.005053780616877884
4248.2,-0.0050533185599482364
4249.1,-0.005080799771114021
4250.0,-0.0050756034903836665
4250.9,-0.005154974626918202
4251.8,-0.00520551241531647
4252.7,-0.005271678090379095
4253.6,-0.005333298133318313
4254.5,-0.0053861821794136434
4255.4,-0.005451026976699725
4256.3,-0.005511151534783809
4257.2,-0.005581241561921911
4258.1,-0.005626977121724713
4259.0,-0.005660429670618795
4259.9,-0.005673185211507348
4260.8,-0.005697308291327051
4261.7,-0.005740841994476112
4262.6,-0.005810156766618354
4263.5,-0.005950255245392608
4264.4,-0.0060358138519218335
4265.3,-0.006127010209607704
4266.2,-0.006218417150948392
4267.1,-0.006260532186409997
4268.0,-0.006272611950993051
4268.9,-0.006270985282102248
4269.8,-0.006230131358837582
4270.7,-0.006203985736153358
4271.6,-0.006157213182381861
4272.5,-0.006158162189016499
4273.4,-0.006194012343287661
4274.3,-0.006256941547419942
4275.2,-0.0063438075392534205
4276.1,-0.006430142066715346
4277.0,-0.006586287862507688
4277.9,-0.006713009474316335
4278.8,-0.006791705914173771
4279.7,-0.006882359582053632
4280.6,-0.006943839999114294
4281.5,-0.006989470178974534
4282.4,-0.007017022926241134
