wave,flux
3700.85,-5.653457818144948e-07
3701.75,-5.637176796044561e-07
3702.65,-5.451318961566278e-07
3703.55,-5.259898762354508e-07
3704.45,-5.039572356442592e-07
3705.35,-4.88017170892221e-07
3706.25,-4.798896708478285e-07
3707.15,-4.7498288129191805e-07
3708.05,-4.8076680612398e-07
3708.96,-4.882300042239839e-07
3709.86,-4.933559889901783e-07
3710.76,-5.04963006371815e-07
3711.66,-5.151630647339464e-07
3712.56,-5.297547796517665e-07
3713.46,-5.464620495407229e-07
3714.36,-5.665235175642948e-07
3715.26,-5.840640756140065e-07
3716.16,-5.937831798561343e-07
3717.06,-5.93717077797223e-07
3717.96,-5.828230960403891e-07
3718.86,-5.592807979152512e-07
3719.76,-5.283468686392589e-07
3720.66,-4.994178340384346e-07
3721.56,-4.73208750287748e-07
3722.46,-4.643316587605745e-07
3723.36,-4.729663738202558e-07
3724.26,-4.96224818912029e-07
3725.16,-5.213939951987336e-07
3726.06,-5.46073278369115e-07
3726.96,-5.652226386798938e-07
3727.86,-5.782469995450078e-07
3728.76,-5.803055428857088e-07
3729.66,-5.760856840950886e-07
3730.56,-5.672263016800137e-07
3731.46,-5.489672138368821e-07
3732.36,-5.249816585192743e-07
3733.26,-4.910813583129096e-07
3734.16,-4.594553256718619e-07
3735.06,-4.367849010112587e-07
3735.96,-4.30247772916528e-07
3736.86,-4.3840134104180706e-07
3737.76,-4.627724951832547e-07
3738.66,-4.967057182906236e-07
3739.56,-5.328442664736696e-07
3740.46,-5.655900824888107e-07
3741.36,-5.864526790921238e-07
3742.26,-5.965544897955184e-07
3743.16,-5.931249534699079e-07
3744.06,-5.792344525535473e-07
3744.96,-5.619366153579175e-07
3745.86,-5.400636445587537e-07
3746.76,-5.142399312873411e-07
3747.67,-4.886474587971041e-07
3748.57,-4.651676203953742e-07
3749.47,-4.496026284541784e-07
3750.37,-4.4626421973918604e-07
3751.27,-4.614211380830701e-07
3752.17,-4.912367488118833e-07
3753.07,-5.278103188906809e-07
3753.97,-5.684803598079809e-07
3754.87,-6.038361751570454e-07
3755.77,-6.239742797662685e-07
3756.67,-6.325049556490518e-07
3757.57,-6.295117358786582e-07
3758.47,-6.138591546311615e-07
3759.37,-6.043032123164321e-07
3760.27,-5.998002125656565e-07
3761.17,-6.03501183215e-07
3762.07,-6.123574108116813e-07
3762.97,-6.233553767334128e-07
3763.87,-6.308337176118771e-07
3764.77,-6.358941876158474e-07
3765.67,-6.298635513283998e-07
3766.57,-6.226387421942861e-07
3767.47,-6.083664152701855e-07
3768.37,-5.925111326025195e-07
3769.27,-5.723243425749961e-07
3770.17,-5.59503029421734e-07
3771.07,-5.555583080908202e-07
3771.97,-5.624498015702608e-07
3772.87,-5.789698255139509e-07
3773.77,-6.028550009200476e-07
3774.67,-6.281625876412968e-07
3775.57,-6.504495995773166e-07
3776.47,-6.726359650417999e-07
3777.37,-6.889535163833665e-07
3778.27,-7.06942903911226e-07
3779.17,-7.261858326402693e-07
3780.07,-7.434647667528647e-07
3780.97,-7.601862284316373e-07
3781.87,-7.706724364861381e-07
3782.77,-7.787254355356029e-07
3783.67,-7.764340960640317e-07
3784.57,-7.709970596492275e-07
3785.47,-7.598055684316316e-07
3786.38,-7.449572013072591e-07
3787.28,-7.280845312935995e-07
3788.18,-7.133851561440182e-07
3789.08,-7.006515014623185e-07
3789.98,-6.896277396552802e-07
3790.88,-6.822674770414153e-07
3791.78,-6.749409927880838e-07
3792.68,-6.646006402647966e-07
3793.58,-6.488550086484451e-07
3794.48,-6.245168384327564e-07
3795.38,-5.972451171753214e-07
3796.28,-5.715484630956373e-07
3797.18,-5.45972170322867e-07
3798.08,-5.3119412630626e-07
3798.98,-5.290649593175275e-07
3799.88,-5.459510027793465e-07
3800.78,-5.76406761080498e-07
3801.68,-6.188593578707817e-07
3802.58,-6.591281374215256e-07
3803.48,-7.014436427355156e-07
3804.38,-7.28175009324941e-07
3805.28,-7.497697784508285e-07
3806.18,-7.593830215208861e-07
3807.08,-7.681918680031003e-07
3807.98,-7.73582526530419e-07
3808.88,-7.823951685312457e-07
3809.78,-7.936701223533459e-07
3810.68,-7.963572880285754e-07
3811.58,-8.002380415079391e-07
3812.48,-7.907163806039106e-07
3813.38,-7.738340829567959e-07
3814.28,-7.585023190791293e-07
3815.18,-7.451638107976716e-07
3816.08,-7.379930822645982e-07
3816.98,-7.360309383497968e-07
3817.88,-7.398045749310464e-07
3818.78,-7.410910113673277e-07
3819.68,-7.373630729460453e-07
3820.58,-7.315460391510528e-07
3821.48,-7.246883035219618e-07
3822.38,-7.21154536414861e-07
3823.28,-7.117687982331059e-07
3824.18,-7.006693158398333e-07
3825.09,-6.860622884977139e-07
3825.99,-6.757798875550775e-07
3826.89,-6.562594450919123e-07
3827.79,-6.441290400381935e-07
3828.69,-6.336058353874377e-07
3829.59,-6.236808748159838e-07
3830.49,-6.078988140109771e-07
3831.39,-5.870359779732015e-07
3832.29,-5.616732791320447e-07
3833.19,-5.323193550750981e-07
3834.09,-5.050218636886427e-07
3834.99,-4.85254166813341e-07
3835.89,-4.760967308275476e-07
3836.79,-4.767073159303703e-07
3837.69,-4.869632718237811e-07
3838.59,-5.027004992139882e-07
3839.49,-5.331968407732778e-07
3840.39,-5.634489103474058e-07
3841.29,-6.028107988479454e-07
3842.19,-6.4111793231509e-07
3843.09,-6.749593297714696e-07
3843.99,-7.127751925594497e-07
3844.89,-7.406432098767812e-07
3845.79,-7.643907044063421e-07
3846.69,-7.84333230858236e-07
3847.59,-7.967848408775583e-07
3848.49,-8.071926423226058e-07
3849.39,-8.087919180964898e-07
3850.29,-8.163005903827595e-07
3851.19,-8.18314381325417e-07
3852.09,-8.285252917673488e-07
3852.99,-8.311098420162787e-07
3853.89,-8.34129319746894e-07
3854.79,-8.352010952690055e-07
3855.69,-8.284055044688399e-07
3856.59,-8.195135134594531e-07
3857.49,-8.05849202905261e-07
3858.39,-7.969953208864877e-07
3859.29,-7.842011691293094e-07
3860.19,-7.880345877025677e-07
3861.09,-7.933549270890099e-07
3861.99,-8.071917921101693e-07
3862.9,-8.270712485840743e-07
3863.8,-8.454172706334688e-07
3864.7,-8.575969564646188e-07
3865.6,-8.653624987603054e-07
3866.5,-8.687016577290577e-07
3867.4,-8.694774794315789e-07
3868.3,-8.64931577204571e-07
3869.2,-8.619981130398696e-07
3870.1,-8.537520078282533e-07
3871.0,-8.380126769400388e-07
3871.9,-8.214178460962245e-07
3872.8,-8.064450354536787e-07
3873.7,-7.989421703633495e-07
3874.6,-7.959797132516975e-07
3875.5,-7.9513533620921e-07
3876.4,-7.976853673177746e-07
3877.3,-7.950233362519566e-07
3878.2,-7.911090240877863e-07
3879.1,-7.852109750625715e-07
3880.0,-7.801082117301556e-07
3880.9,-7.783035277525893e-07
3881.8,-7.785807196181621e-07
3882.7,-7.676888618465933e-07
3883.6,-7.572203506787871e-07
3884.5,-7.352546087776623e-07
3885.4,-7.09714918876063e-07
3886.3,-6.78050698316702e-07
3887.2,-6.437580473529426e-07
3888.1,-6.13941109419022e-07
3889.0,-5.93734197039947e-07
3889.9,-5.939692820469912e-07
3890.8,-6.05887975757113e-07
3891.7,-6.291277118263826e-07
3892.6,-6.611891116269172e-07
3893.5,-6.953150580718551e-07
3894.4,-7.218179721214135e-07
3895.3,-7.441661951570107e-07
3896.2,-7.643591532568404e-07
3897.1,-7.811989346317464e-07
3898.0,-7.974597469889126e-07
3898.9,-8.080186787232569e-07
3899.8,-8.173218306733298e-07
3900.7,-8.270139122357982e-07
3901.6,-8.325990499856353e-07
3902.51,-8.32289895374722e-07
3903.41,-8.35676574722705e-07
3904.31,-8.345327615288208e-07
3905.21,-8.331458760425093e-07
3906.11,-8.303122398522178e-07
3907.01,-8.428320099682557e-07
3907.91,-8.528301261498313e-07
3908.81,-8.725776394900478e-07
3909.71,-8.886315588038769e-07
3910.61,-9.107310083649712e-07
3911.51,-9.246448030749667e-07
3912.41,-9.298925729278206e-07
3913.31,-9.273388529598144e-07
3914.21,-9.261006973758227e-07
3915.11,-9.207311243123112e-07
3916.01,-9.134062787171621e-07
3916.91,-9.054723930727715e-07
3917.81,-8.934100956433288e-07
3918.71,-8.809996527244317e-07
3919.61,-8.711679544193003e-07
3920.51,-8.647362977009781e-07
3921.41,-8.570154998063774e-07
3922.31,-8.509108264153246e-07
3923.21,-8.409574027187756e-07
3924.11,-8.386110078007551e-07
3925.01,-8.195208270573381e-07
3925.91,-8.050059538867791e-07
3926.81,-7.757963358434357e-07
3927.71,-7.317414231887018e-07
3928.61,-6.783545193958836e-07
3929.51,-6.161025375414422e-07
3930.41,-5.510743066947688e-07
3931.31,-4.825486962534825e-07
3932.21,-4.1859120335695526e-07
3933.11,-3.6710509997417526e-07
3934.01,-3.371790036029151e-07
3934.91,-3.312974639197125e-07
3935.81,-3.515682770078393e-07
3936.71,-3.9734749080820056e-07
3937.61,-4.579344574737406e-07
3938.51,-5.301083508705015e-07
3939.42,-6.022021580848342e-07
3940.32,-6.656445769463405e-07
3941.22,-7.192244564426664e-07
3942.12,-7.579186533914347e-07
3943.02,-7.844351189491813e-07
3943.92,-8.081648769707753e-07
3944.82,-8.267345069076482e-07
3945.72,-8.47761900019883e-07
3946.62,-8.682426962485556e-07
3947.52,-8.854403180172297e-07
3948.42,-8.987029798582874e-07
3949.32,-9.038254674691574e-07
3950.22,-9.15337963483665e-07
3951.12,-9.218571223373927e-07
3952.02,-9.265653381871003e-07
3952.92,-9.305520573802664e-07
3953.82,-9.346860948354096e-07
3954.72,-9.366340060138086e-07
3955.62,-9.351793688609868e-07
3956.52,-9.272136898041734e-07
3957.42,-9.231237104887555e-07
3958.32,-9.148763484916153e-07
3959.22,-8.992674682702138e-07
3960.12,-8.839961568917973e-07
3961.02,-8.541751996313257e-07
3961.92,-8.239574461645462e-07
3962.82,-7.73973361526465e-07
3963.72,-7.253988442240631e-07
3964.62,-6.669018205855196e-07
3965.52,-6.024072330470244e-07
3966.42,-5.322682772707702e-07
3967.32,-4.651591487404018e-07
3968.22,-4.07733455866023e-07
3969.12,-3.7180814731498333e-07
3970.02,-3.608158154303421e-07
3970.92,-3.779731302727818e-07
3971.82,-4.191517542692043e-07
3972.72,-4.792907128922617e-07
3973.62,-5.499828312680113e-07
3974.52,-6.193441264891688e-07
3975.42,-6.865373601707257e-07
3976.32,-7.50578322420336e-07
3977.22,-8.077440971271338e-07
3978.13,-8.565543918093064e-07
3979.03,-8.958428540586422e-07
3979.93,-9.281026792932726e-07
3980.83,-9.547587695645002e-07
3981.73,-9.679561539006918e-07
3982.63,-9.82104369697651e-07
3983.53,-9.87120714167375e-07
3984.43,-9.987307798144675e-07
3985.33,-1.0045549677552316e-06
3986.23,-1.0196025900921515e-06
3987.13,-1.0294416541817597e-06
3988.03,-1.0406672231861116e-06
3988.93,-1.0558480807416013e-06
3989.83,-1.0644053738477079e-06
3990.73,-1.0726277366913506e-06
3991.63,-1.0890491117126717e-06
3992.53,-1.0905798779054583e-06
3993.43,-1.0958905000160678e-06
3994.33,-1.0924166950843865e-06
3995.23,-1.08837805178049e-06
3996.13,-1.0797495316270502e-06
3997.03,-1.0756896316984586e-06
3997.93,-1.072562818942271e-06
3998.83,-1.0718149073344383e-06
3999.73,-1.0808816293043157e-06
4000.63,-1.0963385466478123e-06
4001.53,-1.1086046646207153e-06
4002.43,-1.1163700266145147e-06
4003.33,-1.1207462677350261e-06
4004.23,-1.1157403821947184e-06
4005.13,-1.111821168628492e-06
4006.03,-1.1008306254271474e-06
4006.93,-1.0983140047139026e-06
4007.83,-1.0987056723606488e-06
4008.73,-1.1121924238591087e-06
4009.63,-1.1280574950806457e-06
4010.53,-1.1406719833173856e-06
4011.43,-1.149578860135926e-06
4012.33,-1.1579641473672295e-06
4013.23,-1.1565262783928154e-06
4014.13,-1.164483560454327e-06
4015.03,-1.1650848420091771e-06
4015.93,-1.1648467355397714e-06
4016.84,-1.16936257293623e-06
4017.74,-1.175646599285934e-06
4018.64,-1.175776282343736e-06
4019.54,-1.1815649851673345e-06
4020.44,-1.188659622814378e-06
4021.34,-1.1831894692841253e-06
4022.24,-1.1908409547966788e-06
4023.14,-1.1865997214041388e-06
4024.04,-1.189457900520537e-06
4024.94,-1.1896562874151056e-06
4025.84,-1.1947335069861045e-06
4026.74,-1.2019430485269508e-06
4027.64,-1.2066149241409282e-06
4028.54,-1.2090153753911966e-06
4029.44,-1.1990680613950985e-06
4030.34,-1.184715819369302e-06
4031.24,-1.157990570419375e-06
4032.14,-1.1449122088750639e-06
4033.04,-1.1397786569253928e-06
4033.94,-1.1368964992875058e-06
4034.84,-1.1494291832851058e-06
4035.74,-1.1737457989052235e-06
4036.64,-1.189371159349266e-06
4037.54,-1.2165327490549443e-06
4038.44,-1.2382168508603784e-06
4039.34,-1.2456147111953166e-06
4040.24,-1.2515179403112398e-06
4041.14,-1.2468659779043267e-06
4042.04,-1.2344342379818304e-06
4042.94,-1.2143855063224795e-06
4043.84,-1.1986532044662642e-06
4044.74,-1.180137752557581e-06
4045.64,-1.1615858667770958e-06
4046.54,-1.154088830841375e-06
4047.44,-1.1589189968178481e-06
4048.34,-1.173318231154127e-06
4049.24,-1.1980908868552225e-06
4050.14,-1.2133002065531866e-06
4051.04,-1.234234803328287e-06
4051.94,-1.2388495026997321e-06
4052.84,-1.2464040897222755e-06
4053.74,-1.2348029102977958e-06
4054.65,-1.2301292681538186e-06
4055.55,-1.218269161887469e-06
4056.45,-1.214369651720774e-06
4057.35,-1.2142540335342143e-06
4058.25,-1.2132589057105812e-06
4059.15,-1.2187297149367105e-06
4060.05,-1.2255617524453296e-06
4060.95,-1.2258933908229621e-06
4061.85,-1.220083728091729e-06
4062.75,-1.2111727218817564e-06
4063.65,-1.1947023987253164e-06
4064.55,-1.1888747166669069e-06
4065.45,-1.1843310971215019e-06
4066.35,-1.1854738842216476e-06
4067.25,-1.1932698099514945e-06
4068.15,-1.2125574242506853e-06
4069.05,-1.2174095939273458e-06
4069.95,-1.232086273111729e-06
4070.85,-1.2317818650555115e-06
4071.75,-1.227943001279463e-06
4072.65,-1.226166663479578e-06
4073.55,-1.220399734369013e-06
4074.45,-1.214141940088364e-06
4075.35,-1.2004263934521044e-06
4076.25,-1.189146086174396e-06
4077.15,-1.1682069884318807e-06
4078.05,-1.1603968019177842e-06
4078.95,-1.1597555605660906e-06
4079.85,-1.1622907743922375e-06
4080.75,-1.1874871018324976e-06
4081.65,-1.2027912084850138e-06
4082.55,-1.223920072506835e-06
4083.45,-1.2349361727608005e-06
4084.35,-1.237971647096406e-06
4085.25,-1.2432403519211972e-06
4086.15,-1.2500699512550944e-06
4087.05,-1.2642243907070792e-06
4087.95,-1.2821623224352581e-06
4088.85,-1.292969499836914e-06
4089.75,-1.3050622644196236e-06
4090.65,-1.3026905653471245e-06
4091.55,-1.3008985378247445e-06
4092.45,-1.2976375354819244e-06
4093.36,-1.2800818759028918e-06
4094.26,-1.2632271378140439e-06
4095.16,-1.240920410268783e-06
4096.06,-1.2148447882949047e-06
4096.96,-1.1813592142921985e-06
4097.86,-1.1445668251639895e-06
4098.76,-1.1065223989866213e-06
4099.66,-1.058235368825254e-06
4100.56,-1.0070629483821818e-06
4101.46,-9.705128547888347e-07
4102.36,-9.476081336626176e-07
4103.26,-9.405618886541996e-07
4104.16,-9.68371971425284e-07
4105.06,-1.0059349123642803e-06
4105.96,-1.0535103016177032e-06
4106.86,-1.1090778679302963e-06
4107.76,-1.1443708844117955e-06
4108.66,-1.1801955214702588e-06
4109.56,-1.2041874826208129e-06
4110.46,-1.217141701015627e-06
4111.36,-1.239055612708867e-06
4112.26,-1.2530315265726185e-06
4113.16,-1.2635724773126238e-06
4114.06,-1.2860595197404216e-06
4114.96,-1.2991523912086382e-06
4115.86,-1.3124367476926459e-06
4116.76,-1.3198990003356294e-06
4117.66,-1.3259701726320885e-06
4118.56,-1.3127359460923798e-06
4119.46,-1.315157436541908e-06
4120.36,-1.3001405738690636e-06
4121.26,-1.3090325407299304e-06
4122.16,-1.3064469449816196e-06
4123.06,-1.3132074875004232e-06
4123.96,-1.3201823078810652e-06
4124.86,-1.3255181484610697e-06
4125.76,-1.3279955545503385e-06
4126.66,-1.3318952622571396e-06
4127.56,-1.338201809404566e-06
4128.46,-1.3346387459542118e-06
4129.36,-1.3200592974596286e-06
4130.26,-1.316232129542009e-06
4131.17,-1.3087453592610284e-06
4132.06,-1.3030149218672881e-06
4132.97,-1.3005991553469425e-06
4133.87,-1.2982996174185024e-06
4134.77,-1.30873749365618e-06
4135.67,-1.3195700099055165e-06
4136.57,-1.3373188126938154e-06
4137.47,-1.3579377271139824e-06
4138.37,-1.3758938211746006e-06
4139.27,-1.3934732472350293e-06
4140.17,-1.3886373454743422e-06
4141.07,-1.3849573152215446e-06
4141.97,-1.3708982390656628e-06
4142.87,-1.3558136519552165e-06
4143.77,-1.3379457690816189e-06
4144.67,-1.3366425805734277e-06
4145.57,-1.3416792860711993e-06
4146.47,-1.345206464259778e-06
4147.37,-1.359413405022298e-06
4148.27,-1.3728865581949082e-06
4149.17,-1.3821972208008332e-06
4150.07,-1.3867094659453613e-06
4150.97,-1.3862357142396522e-06
4151.87,-1.3795809806351605e-06
4152.77,-1.3772902844131217e-06
4153.67,-1.376107040537386e-06
4154.57,-1.3680964679606002e-06
4155.47,-1.3696180549347972e-06
4156.37,-1.3690833967623642e-06
4157.27,-1.3746225469345355e-06
4158.17,-1.3857641151597732e-06
4159.07,-1.3986409991461075e-06
4159.97,-1.4071644110822378e-06
4160.87,-1.42197874702553e-06
4161.77,-1.4350666491686638e-06
4162.67,-1.4421024632029202e-06
4163.57,-1.4467601260494384e-06
4164.47,-1.4465688985980822e-06
4165.37,-1.4476092380019003e-06
4166.27,-1.4438544797485423e-06
4167.17,-1.4392439958987517e-06
4168.07,-1.4325738810867278e-06
4168.98,-1.4305385904575989e-06
4169.88,-1.412479401487021e-06
4170.78,-1.3983172435470463e-06
4171.68,-1.377243857090566e-06
4172.58,-1.36081504273449e-06
4173.48,-1.3467341952992042e-06
4174.38,-1.3370008174060225e-06
4175.28,-1.3385016366633316e-06
4176.18,-1.3425712455692236e-06
4177.08,-1.3619571798182203e-06
4177.98,-1.3678063429235503e-06
4178.88,-1.3794586237568473e-06
4179.78,-1.3962869924650407e-06
4180.68,-1.4070927687087085e-06
4181.58,-1.4094910490605394e-06
4182.48,-1.4252831790137291e-06
4183.38,-1.4174248772982849e-06
4184.28,-1.4217436613948514e-06
4185.18,-1.4221813153555294e-06
4186.08,-1.4243126696265869e-06
4186.98,-1.4282870721815758e-06
4187.88,-1.4171731194063725e-06
4188.78,-1.4180373313241767e-06
4189.68,-1.4204942730138827e-06
4190.58,-1.4339659933915475e-06
4191.48,-1.4400670620873212e-06
4192.38,-1.4456710394049773e-06
4193.28,-1.463273415065356e-06
4194.18,-1.4622182696476887e-06
4195.08,-1.4622519053000575e-06
4195.98,-1.4577298572921862e-06
4196.88,-1.4339398783650405e-06
4197.78,-1.4264576403154625e-06
4198.68,-1.4041583925471497e-06
4199.58,-1.394141807197197e-06
4200.48,-1.3873998481213528e-06
4201.38,-1.3917131557330061e-06
4202.28,-1.3973181633278577e-06
4203.18,-1.4017212211316159e-06
4204.08,-1.4048451963157842e-06
4204.98,-1.4182050091971339e-06
4205.88,-1.4274645093498602e-06
4206.79,-1.4409241198918113e-06
4207.69,-1.461000802432906e-06
4208.59,-1.472027061669755e-06
4209.49,-1.4870315919947939e-06
4210.39,-1.490921212322069e-06
4211.29,-1.4961144932822326e-06
4212.19,-1.5036169239823087e-06
4213.09,-1.496057096882782e-06
4213.99,-1.4877004178028952e-06
4214.89,-1.472740176363093e-06
4215.79,-1.4666875563347684e-06
4216.69,-1.4584966272264907e-06
4217.59,-1.4540947045421837e-06
4218.49,-1.472881045440484e-06
4219.39,-1.4799996079624325e-06
4220.29,-1.4809925653175147e-06
4221.19,-1.4952876087921103e-06
4222.09,-1.4921323528268705e-06
4222.99,-1.475529078694239e-06
4223.89,-1.4423182121991916e-06
4224.79,-1.4028702665304786e-06
4225.69,-1.3689906344615047e-06
4226.59,-1.3471040954893232e-06
4227.49,-1.3373599545493984e-06
4228.39,-1.3384728195109527e-06
4229.29,-1.3713449514645432e-06
4230.19,-1.402919471501323e-06
4231.09,-1.4396704058141595e-06
4231.99,-1.4673170117272075e-06
4232.89,-1.4769873542802733e-06
4233.79,-1.47983644089003e-06
4234.69,-1.4825379266144334e-06
4235.59,-1.4727936502022562e-06
4236.49,-1.46474365919388e-06
4237.39,-1.4651456054277168e-06
4238.29,-1.4634086536733416e-06
4239.19,-1.4637695031374375e-06
4240.09,-1.48349194958852e-06
4240.99,-1.4998821570953043e-06
4241.89,-1.505721772053954e-06
4242.79,-1.519823702030438e-06
4243.69,-1.5294577624408887e-06
4244.59,-1.5286879804106273e-06
4245.5,-1.5253532150971173e-06
4246.4,-1.5174847740340053e-06
4247.3,-1.5072848311691217e-06
4248.2,-1.4947849810754417e-06
4249.1,-1.4863945075193696e-06
4250.0,-1.4791079741709104e-06
4250.9,-1.4863679378870063e-06
4251.8,-1.4873608090803936e-06
4252.7,-1.5027521589206549e-06
4253.6,-1.5098212565882612e-06
4254.5,-1.5170200514991032e-06
4255.4,-1.5236482662362204e-06
4256.3,-1.5308341266484557e-06
4257.2,-1.529920480924684e-06
4258.1,-1.5308778260229248e-06
4259.0,-1.5267942367311703e-06
4259.9,-1.5178500623386364e-06
4260.8,-1.5115495759643673e-06
4261.7,-1.5237771593158499e-06
4262.6,-1.5281801228352496e-06
4263.5,-1.5530949486328525e-06
4264.4,-1.5694085244745862e-06
4265.3,-1.5856357283123672e-06
4266.2,-1.6016974609835204e-06
4267.1,-1.5938903050734007e-06
4268.0,-1.5829472335686361e-06
4268.9,-1.5636817849627994e-06
4269.8,-1.5407762360584105e-06
4270.7,-1.5110912809206038e-06
4271.6,-1.4838818997810459e-06
4272.5,-1.4711387400789199e-06
4273.4,-1.4574550397319661e-06
4274.3,-1.462747421004231e-06
4275.2,-1.473661085390645e-06
4276.1,-1.4951532533220278e-06
