wave,flux
3700.85,-6.456375958096168e-07
3701.75,-6.378835852224393e-07
3702.65,-6.149252054052744e-07
3703.55,-5.815603787599745e-07
3704.45,-5.433318449259008e-07
3705.35,-5.117406882218852e-07
3706.25,-4.839233595734641e-07
3707.15,-4.6908755604410903e-07
3708.05,-4.687284400109998e-07
3708.96,-4.778427850394294e-07
3709.86,-4.986785443801083e-07
3710.76,-5.260698510450243e-07
3711.66,-5.62416599144755e-07
3712.56,-5.949371336586975e-07
3713.46,-6.28689098365192e-07
3714.36,-6.52943345454549e-07
3715.26,-6.618627250137797e-07
3716.16,-6.553334702101675e-07
3717.06,-6.34936601565421e-07
3717.96,-6.019636449447585e-07
3718.86,-5.559018482542012e-07
3719.76,-5.076164271267657e-07
3720.66,-4.6671627385826415e-07
3721.56,-4.418815175482611e-07
3722.46,-4.3685867441318126e-07
3723.36,-4.5841045657213587e-07
3724.26,-4.870502369046846e-07
3725.16,-5.233536568664429e-07
3726.06,-5.480477369192429e-07
3726.96,-5.638180235260511e-07
3727.86,-5.688536434158608e-07
3728.76,-5.685307150035784e-07
3729.66,-5.619398968006448e-07
3730.56,-5.496247951341984e-07
3731.46,-5.267498402817554e-07
3732.36,-4.956436425850499e-07
3733.26,-4.570333286802652e-07
3734.16,-4.190670408407348e-07
3735.06,-3.8913397158746547e-07
3735.96,-3.7618800787639434e-07
3736.86,-3.8207694416758295e-07
3737.76,-4.0594791334336265e-07
3738.66,-4.4472475679197784e-07
3739.56,-4.851888345627224e-07
3740.46,-5.252711715658448e-07
3741.36,-5.484449032010619e-07
3742.26,-5.540990592570823e-07
3743.16,-5.429056614544777e-07
3744.06,-5.175062799728396e-07
3744.96,-4.883515006355911e-07
3745.86,-4.5766733996923553e-07
3746.76,-4.307598888560933e-07
3747.67,-4.0851625639634395e-07
3748.57,-3.951581793994847e-07
3749.47,-3.918161520037229e-07
3750.37,-4.061291177881527e-07
3751.27,-4.3825787500406674e-07
3752.17,-4.822248600313922e-07
3753.07,-5.325657265711089e-07
3753.97,-5.82574592198586e-07
3754.87,-6.136324001477087e-07
3755.77,-6.285588765286766e-07
3756.67,-6.233284956865559e-07
3757.57,-6.004179153724785e-07
3758.47,-5.698320746531761e-07
3759.37,-5.470253677221475e-07
3760.27,-5.364380953848047e-07
3761.17,-5.385256818041435e-07
3762.07,-5.453136160879594e-07
3762.97,-5.541554704141866e-07
3763.87,-5.616626922137247e-07
3764.77,-5.651296173835438e-07
3765.67,-5.657046294084462e-07
3766.57,-5.63728107528103e-07
3767.47,-5.63876472931821e-07
3768.37,-5.603833904950171e-07
3769.27,-5.659177107374129e-07
3770.17,-5.742166969999906e-07
3771.07,-5.887056178611665e-07
3771.97,-6.080402194069498e-07
3772.87,-6.305991185883267e-07
3773.77,-6.52029155340098e-07
3774.67,-6.680397471482951e-07
3775.57,-6.839611705679604e-07
3776.47,-6.932723783279402e-07
3777.37,-7.037329657291714e-07
3778.27,-7.141333779104355e-07
3779.17,-7.254913403141538e-07
3780.07,-7.403171952315697e-07
3780.97,-7.599143546701831e-07
3781.87,-7.693396592804078e-07
3782.77,-7.761488212826614e-07
3783.67,-7.733746303630819e-07
3784.57,-7.591418109278248e-07
3785.47,-7.378713766586078e-07
3786.38,-7.090785078425888e-07
3787.28,-6.725711107092798e-07
3788.18,-6.437007902555312e-07
3789.08,-6.218553662747783e-07
3789.98,-6.111290644524991e-07
3790.88,-6.038288565123599e-07
3791.78,-6.033727520427431e-07
3792.68,-5.993051980381272e-07
3793.58,-5.905841746623852e-07
3794.48,-5.735806426877242e-07
3795.38,-5.549156684333141e-07
3796.28,-5.339080231370819e-07
3797.18,-5.187206517079551e-07
3798.08,-5.108049339810774e-07
3798.98,-5.143319528581532e-07
3799.88,-5.271745794389935e-07
3800.78,-5.581556501591039e-07
3801.68,-5.972767707163926e-07
3802.58,-6.376688797346468e-07
3803.48,-6.76287865819057e-07
3804.38,-7.020521342035715e-07
3805.28,-7.141641440343399e-07
3806.18,-7.178944715243096e-07
3807.08,-7.174459889725099e-07
3807.98,-7.132505839187205e-07
3808.88,-7.217858601515336e-07
3809.78,-7.294885725987378e-07
3810.68,-7.337315433378253e-07
3811.58,-7.289680356607501e-07
3812.48,-7.1327258794939e-07
3813.38,-6.837816109927039e-07
3814.28,-6.498201799955881e-07
3815.18,-6.186373159255602e-07
3816.08,-5.977920752419219e-07
3816.98,-5.853209732287278e-07
3817.88,-5.813684448164791e-07
3818.78,-5.755766311010745e-07
3819.68,-5.680221116991131e-07
3820.58,-5.577214391725593e-07
3821.48,-5.478918569970542e-07
3822.38,-5.405773341365813e-07
3823.28,-5.356619476607987e-07
3824.18,-5.244756711604373e-07
3825.09,-5.088091527872991e-07
3825.99,-4.886811222297455e-07
3826.89,-4.759445002955517e-07
3827.79,-4.648688433435979e-07
3828.69,-4.6187179776377194e-07
3829.59,-4.6244888135141537e-07
3830.49,-4.59484922843333e-07
3831.39,-4.5268188762932326e-07
3832.29,-4.421120036783416e-07
3833.19,-4.275587131035702e-07
3834.09,-4.168229073254429e-07
3834.99,-4.116440335501281e-07
3835.89,-4.095485848484882e-07
3836.79,-4.1200360267911536e-07
3837.69,-4.1740362199301084e-07
3838.59,-4.246688209224163e-07
3839.49,-4.3743180251346697e-07
3840.39,-4.575788916070092e-07
3841.29,-4.854629212990767e-07
3842.19,-5.206463251813344e-07
3843.09,-5.615222739666184e-07
3843.99,-5.994658794569334e-07
3844.89,-6.284114990894353e-07
3845.79,-6.522236226951418e-07
3846.69,-6.683354151963386e-07
3847.59,-6.742546341225194e-07
3848.49,-6.794712889500183e-07
3849.39,-6.792414613145564e-07
3850.29,-6.779187322345265e-07
3851.19,-6.77686244938496e-07
3852.09,-6.740866886098562e-07
3852.99,-6.767133514831598e-07
3853.89,-6.74496665285035e-07
3854.79,-6.655249699772677e-07
3855.69,-6.508780257994882e-07
3856.59,-6.313436290123457e-07
3857.49,-6.141428005479757e-07
3858.39,-5.967412834822157e-07
3859.29,-5.832919231447744e-07
3860.19,-5.818226540761239e-07
3861.09,-5.930875981311274e-07
3861.99,-6.165686769163193e-07
3862.9,-6.496682334243045e-07
3863.8,-6.738805648641779e-07
3864.7,-6.954941948361998e-07
3865.6,-7.040956548384155e-07
3866.5,-7.049857077663374e-07
3867.4,-6.973744359258068e-07
3868.3,-6.888937162409706e-07
3869.2,-6.722646951850053e-07
3870.1,-6.5770450946045e-07
3871.0,-6.379720259491676e-07
3871.9,-6.266585705190164e-07
3872.8,-6.23915825151098e-07
3873.7,-6.28176134335051e-07
3874.6,-6.438480321120947e-07
3875.5,-6.637259765697908e-07
3876.4,-6.702744211159564e-07
3877.3,-6.751081956219158e-07
3878.2,-6.625444416221252e-07
3879.1,-6.54626372546323e-07
3880.0,-6.45655133178621e-07
3880.9,-6.432500496657161e-07
3881.8,-6.433976749698083e-07
3882.7,-6.416795571377771e-07
3883.6,-6.368313054256922e-07
3884.5,-6.285401837355662e-07
3885.4,-6.183630003551152e-07
3886.3,-6.009388488757272e-07
3887.2,-5.876667059108287e-07
3888.1,-5.737158370463006e-07
3889.0,-5.758504091440551e-07
3889.9,-5.912735599210549e-07
3890.8,-6.201088513388126e-07
3891.7,-6.556505485600211e-07
3892.6,-6.935348418587572e-07
3893.5,-7.233733465893688e-07
3894.4,-7.456270151979105e-07
3895.3,-7.552661364416288e-07
3896.2,-7.663735483977266e-07
3897.1,-7.716021184318645e-07
3898.0,-7.803643576560428e-07
3898.9,-7.879954319114879e-07
3899.8,-7.893280471896032e-07
3900.7,-7.937550683610245e-07
3901.6,-7.958018117933596e-07
3902.51,-7.889194519267404e-07
3903.41,-7.83876623137419e-07
3904.31,-7.728382911429926e-07
3905.21,-7.666168067229027e-07
3906.11,-7.636261915675071e-07
3907.01,-7.772578628932483e-07
3907.91,-7.989239674795858e-07
3908.81,-8.271319789537589e-07
3909.71,-8.590464597584148e-07
3910.61,-8.874040265920363e-07
3911.51,-9.049595263753588e-07
3912.41,-9.162878933939915e-07
3913.31,-9.235645648416763e-07
3914.21,-9.208220698035757e-07
3915.11,-9.124707801070291e-07
3916.01,-9.031166295966286e-07
3916.91,-8.854370078066812e-07
3917.81,-8.655670912044316e-07
3918.71,-8.426911259954398e-07
3919.61,-8.162155450151316e-07
3920.51,-7.899615997754202e-07
3921.41,-7.722757045235994e-07
3922.31,-7.564083418430245e-07
3923.21,-7.47516690711683e-07
3924.11,-7.354418342433608e-07
3925.01,-7.236614054072204e-07
3925.91,-7.00030943843021e-07
3926.81,-6.630211712551022e-07
3927.71,-6.165907927567586e-07
3928.61,-5.564879397721644e-07
3929.51,-4.919084915902117e-07
3930.41,-4.310667505806697e-07
3931.31,-3.739001767997442e-07
3932.21,-3.229684840497288e-07
3933.11,-2.849766446974804e-07
3934.01,-2.640907924536388e-07
3934.91,-2.6369647375626053e-07
3935.81,-2.812544524736478e-07
3936.71,-3.190911023169355e-07
3937.61,-3.7038312266288757e-07
3938.51,-4.3198640287731026e-07
3939.42,-4.932523381427084e-07
3940.32,-5.500363380715148e-07
3941.22,-5.941742318715634e-07
3942.12,-6.323113329196676e-07
3943.02,-6.586209301563165e-07
3943.92,-6.801320847035147e-07
3944.82,-7.103210054101583e-07
3945.72,-7.355247397107386e-07
3946.62,-7.776206412906603e-07
3947.52,-8.053865080050137e-07
3948.42,-8.35103790812704e-07
3949.32,-8.67102664918413e-07
3950.22,-8.86617805216489e-07
3951.12,-9.018907281600331e-07
3952.02,-9.175633853905164e-07
3952.92,-9.255786168340415e-07
3953.82,-9.324424037274822e-07
3954.72,-9.332050777892187e-07
3955.62,-9.27943235026284e-07
3956.52,-9.260839098677109e-07
3957.42,-9.119606306671346e-07
3958.32,-8.98607010105392e-07
3959.22,-8.827436234902755e-07
3960.12,-8.481752360125054e-07
3961.02,-8.056054755835165e-07
3961.92,-7.541191676568832e-07
3962.82,-6.963267239459067e-07
3963.72,-6.373442612303117e-07
3964.62,-5.772628878409745e-07
3965.52,-5.180613429938871e-07
3966.42,-4.594824345039436e-07
3967.32,-4.042081621621536e-07
3968.22,-3.603240489021199e-07
3969.12,-3.362958265680485e-07
3970.02,-3.3286101157687125e-07
3970.92,-3.5542820579957475e-07
3971.82,-3.978864552502346e-07
3972.72,-4.5850830100017817e-07
3973.62,-5.243226502240117e-07
3974.52,-5.968056406765111e-07
3975.42,-6.65322988235739e-07
3976.32,-7.360177279982499e-07
3977.22,-7.995366254493098e-07
3978.13,-8.607913504935709e-07
3979.03,-9.154529058539129e-07
3979.93,-9.59345263683198e-07
3980.83,-9.90473448409466e-07
3981.73,-1.014414725059028e-06
3982.63,-1.0309090340398583e-06
3983.53,-1.0397434441655685e-06
3984.43,-1.0440235143181086e-06
3985.33,-1.0494182390191172e-06
3986.23,-1.0690876654103052e-06
3987.13,-1.0778908468108e-06
3988.03,-1.0920207449566383e-06
3988.93,-1.1109605181769032e-06
3989.83,-1.1274192323788493e-06
3990.73,-1.1404700328227138e-06
3991.63,-1.1501034238778798e-06
3992.53,-1.1599964205751363e-06
3993.43,-1.1638865278749454e-06
3994.33,-1.166470945288843e-06
3995.23,-1.1594769143032066e-06
3996.13,-1.1524204517273033e-06
3997.03,-1.138625103231587e-06
3997.93,-1.14446063786377e-06
3998.83,-1.1484021490735766e-06
3999.73,-1.1696982466866475e-06
4000.63,-1.1938211161573377e-06
4001.53,-1.2114275201715975e-06
4002.43,-1.2273016504579487e-06
4003.33,-1.2249090235319055e-06
4004.23,-1.2110229289152706e-06
4005.13,-1.1843337101225408e-06
4006.03,-1.1683658572421672e-06
4006.93,-1.1578322679037052e-06
4007.83,-1.1554091029233218e-06
4008.73,-1.1739430394782954e-06
4009.63,-1.2016439245770625e-06
4010.53,-1.2232680509064694e-06
4011.43,-1.2448821086533977e-06
4012.33,-1.259555057373313e-06
4013.23,-1.270884853284729e-06
4014.13,-1.2857068074055537e-06
4015.03,-1.2890377921393976e-06
4015.93,-1.2933182402399243e-06
4016.84,-1.2999568903754382e-06
4017.74,-1.3063944915015965e-06
4018.64,-1.3071624824767201e-06
4019.54,-1.3123700902925705e-06
4020.44,-1.3185350612720886e-06
4021.34,-1.3277588106188786e-06
4022.24,-1.3192929092660603e-06
4023.14,-1.3138141258491068e-06
4024.04,-1.3124833646698046e-06
4024.94,-1.3128545573824019e-06
4025.84,-1.3152838943508522e-06
4026.74,-1.332088488961352e-06
4027.64,-1.3329792970330408e-06
4028.54,-1.3273261055446775e-06
4029.44,-1.3034702118583763e-06
4030.34,-1.2702882223857549e-06
4031.24,-1.2271482361074852e-06
4032.14,-1.1834214717588617e-06
4033.04,-1.1589336328717687e-06
4033.94,-1.1560675796094307e-06
4034.84,-1.1644450732486225e-06
4035.74,-1.2051471468145884e-06
4036.64,-1.2529306640683068e-06
4037.54,-1.3054778448241388e-06
4038.44,-1.348000502919342e-06
4039.34,-1.3670806235489683e-06
4040.24,-1.3747296757992308e-06
4041.14,-1.3710175412352902e-06
4042.04,-1.3427912275611222e-06
4042.94,-1.310218503006809e-06
4043.84,-1.2664842112100103e-06
4044.74,-1.2218479201259272e-06
4045.64,-1.1788694997469292e-06
4046.54,-1.158174011819636e-06
4047.44,-1.16572856781005e-06
4048.34,-1.2025890725343275e-06
4049.24,-1.2516574194187263e-06
4050.14,-1.3007139898391472e-06
4051.04,-1.3379055514562114e-06
4051.94,-1.354635740330498e-06
4052.84,-1.3510534100660693e-06
4053.74,-1.3321660168543281e-06
4054.65,-1.3125317098336014e-06
4055.55,-1.2887034571010402e-06
4056.45,-1.2647777161679436e-06
4057.35,-1.2565762394738942e-06
4058.25,-1.2434776141810115e-06
4059.15,-1.2446460382265706e-06
4060.05,-1.2540352256781775e-06
4060.95,-1.2468306782185493e-06
4061.85,-1.2402371476034646e-06
4062.75,-1.2242400062232662e-06
4063.65,-1.2028857098441042e-06
4064.55,-1.1908461354843746e-06
4065.45,-1.1888800461223128e-06
4066.35,-1.1985868653698029e-06
4067.25,-1.2249789387970254e-06
4068.15,-1.2586598856887248e-06
4069.05,-1.2810605559070377e-06
4069.95,-1.2938310106560417e-06
4070.85,-1.2996798210583968e-06
4071.75,-1.3001145862763737e-06
4072.65,-1.2887946140844435e-06
4073.55,-1.2850499944102734e-06
4074.45,-1.2793434111475953e-06
4075.35,-1.2658546472851385e-06
4076.25,-1.2492707314302348e-06
4077.15,-1.231913192108543e-06
4078.05,-1.2255481905404513e-06
4078.95,-1.2374231121148022e-06
4079.85,-1.2653058732961265e-06
4080.75,-1.303128313050967e-06
4081.65,-1.343309374514723e-06
4082.55,-1.373552331984727e-06
4083.45,-1.3841262419425544e-06
4084.35,-1.3915174603415027e-06
4085.25,-1.409230254045701e-06
4086.15,-1.413128695722249e-06
4087.05,-1.4364053527096839e-06
4087.95,-1.4655635156880666e-06
4088.85,-1.4875914719676668e-06
4089.75,-1.5043472097562443e-06
4090.65,-1.5094772111746814e-06
4091.55,-1.5025720609584795e-06
4092.45,-1.4883335414597123e-06
4093.36,-1.4657866127133806e-06
4094.26,-1.4495967785138068e-06
4095.16,-1.4159424419428508e-06
4096.06,-1.3780095437568809e-06
4096.96,-1.3407607848459652e-06
4097.86,-1.3003553100120289e-06
4098.76,-1.2556465160732394e-06
4099.66,-1.2113400639918306e-06
4100.56,-1.1677628690941769e-06
4101.46,-1.1352942645336232e-06
4102.36,-1.117283280382057e-06
4103.26,-1.1250933894629165e-06
4104.16,-1.1543303455528342e-06
4105.06,-1.2026009835528019e-06
4105.96,-1.2588778886090378e-06
4106.86,-1.3073925540449517e-06
4107.76,-1.34522402059693e-06
4108.66,-1.368619089119211e-06
4109.56,-1.3907973436320357e-06
4110.46,-1.3887735850608372e-06
4111.36,-1.3995369287697677e-06
4112.26,-1.4093305974332164e-06
4113.16,-1.4281077972414156e-06
4114.06,-1.4430656725940217e-06
4114.96,-1.463727348907068e-06
4115.86,-1.478414594778005e-06
4116.76,-1.4878833177877115e-06
4117.66,-1.4821703873437944e-06
4118.56,-1.4734028944400375e-06
4119.46,-1.4665003266232146e-06
4120.36,-1.4469464682790212e-06
4121.26,-1.444608153371949e-06
4122.16,-1.44132031204566e-06
4123.06,-1.4512542678284817e-06
4123.96,-1.4574227901693853e-06
4124.86,-1.464827230640489e-06
4125.76,-1.4652210573559027e-06
4126.66,-1.4619877947437397e-06
4127.56,-1.4589707123538611e-06
4128.46,-1.438169558264636e-06
4129.36,-1.4262247617941147e-06
4130.26,-1.4079829878112353e-06
4131.17,-1.3878139057758242e-06
4132.06,-1.3712234295361037e-06
4132.97,-1.3555281216526542e-06
4133.87,-1.3574981542634973e-06
4134.77,-1.370220231578291e-06
4135.67,-1.3993021148362108e-06
4136.57,-1.4393776038453695e-06
4137.47,-1.4734896167466648e-06
4138.37,-1.5030898083463132e-06
4139.27,-1.520022179318276e-06
4140.17,-1.5249861318624708e-06
4141.07,-1.5087688719992171e-06
4141.97,-1.477604474635679e-06
4142.87,-1.441440727040911e-06
4143.77,-1.4111158853005633e-06
4144.67,-1.3889217711141293e-06
4145.57,-1.3875768920026568e-06
4146.47,-1.402582587663566e-06
4147.37,-1.4181864238923823e-06
4148.27,-1.4421546588058585e-06
4149.17,-1.4518810412096857e-06
4150.07,-1.4571632821478346e-06
4150.97,-1.4469952549542292e-06
4151.87,-1.438239454308116e-06
4152.77,-1.4301542004522563e-06
4153.67,-1.4196406634586903e-06
4154.57,-1.4120947045214107e-06
4155.47,-1.412702792815928e-06
4156.37,-1.4127927367561175e-06
4157.27,-1.4267737336508694e-06
4158.17,-1.446146499681695e-06
4159.07,-1.4732944481949003e-06
4159.97,-1.4994529730601118e-06
4160.87,-1.5270494791644724e-06
4161.77,-1.5555667753301574e-06
4162.67,-1.5745717683161493e-06
4163.57,-1.5736492442043854e-06
4164.47,-1.5829472275376883e-06
4165.37,-1.5791796549393826e-06
4166.27,-1.5665573417672822e-06
4167.17,-1.5494821446615888e-06
4168.07,-1.5309734349915342e-06
4168.98,-1.5205573368320463e-06
4169.88,-1.500346714247535e-06
4170.78,-1.4808562820081528e-06
4171.68,-1.4585759246009913e-06
4172.58,-1.420021039959763e-06
4173.48,-1.4070209219908225e-06
4174.38,-1.3884175359102249e-06
4175.28,-1.3838217055478311e-06
4176.18,-1.3895095235755751e-06
4177.08,-1.3999763378331168e-06
4177.98,-1.4087532578247542e-06
4178.88,-1.4377209099059678e-06
4179.78,-1.4488520335709419e-06
4180.68,-1.4614812184422814e-06
4181.58,-1.475849428959253e-06
4182.48,-1.4839671232129904e-06
4183.38,-1.4937591537577285e-06
4184.28,-1.4982290110266229e-06
4185.18,-1.5083485385910595e-06
4186.08,-1.515454672767443e-06
4186.98,-1.509125143264163e-06
4187.88,-1.498851071915943e-06
4188.78,-1.5113312043984273e-06
4189.68,-1.5205520615860726e-06
4190.58,-1.5334335749591856e-06
4191.48,-1.5538131886824392e-06
4192.38,-1.5694429678067638e-06
4193.28,-1.5868392688070533e-06
4194.18,-1.5853181777910477e-06
4195.08,-1.5693266353488172e-06
4195.98,-1.5501184471016968e-06
4196.88,-1.5170991826251315e-06
4197.78,-1.4814260980991642e-06
4198.68,-1.4543600501956425e-06
4199.58,-1.4379769705390216e-06
4200.48,-1.425183604055001e-06
4201.38,-1.4324891739962357e-06
4202.28,-1.4435584691869711e-06
4203.18,-1.463367724549447e-06
4204.08,-1.492427263330542e-06
4204.98,-1.517719949104816e-06
4205.88,-1.558485802506123e-06
4206.79,-1.5940583933463444e-06
4207.69,-1.6278566843262385e-06
4208.59,-1.6427165762475339e-06
4209.49,-1.6597379571735561e-06
4210.39,-1.6658066677280337e-06
4211.29,-1.665655314097216e-06
4212.19,-1.6656247112818487e-06
4213.09,-1.6481498002657197e-06
4213.99,-1.6365208901802824e-06
4214.89,-1.6263398558528417e-06
4215.79,-1.6091401786494638e-06
4216.69,-1.6091096027771691e-06
4217.59,-1.6304804721518643e-06
4218.49,-1.6555239297997718e-06
4219.39,-1.6881944673774554e-06
4220.29,-1.7113667360697056e-06
4221.19,-1.720197002551981e-06
4222.09,-1.6980184453101726e-06
4222.99,-1.6577933325159023e-06
4223.89,-1.5904281630218776e-06
4224.79,-1.507930345613663e-06
4225.69,-1.4211754448310646e-06
4226.59,-1.3623833457399344e-06
4227.49,-1.3403392319136212e-06
4228.39,-1.3534707824039413e-06
4229.29,-1.4096046221107913e-06
4230.19,-1.4826808714555997e-06
4231.09,-1.5553995814807308e-06
4231.99,-1.6166400246497283e-06
4232.89,-1.6415438757739208e-06
4233.79,-1.6552287527460323e-06
4234.69,-1.6458203550221667e-06
4235.59,-1.6301836352994828e-06
4236.49,-1.6171516398079087e-06
4237.39,-1.6079259454824658e-06
4238.29,-1.6158521538653746e-06
4239.19,-1.630781185604785e-06
4240.09,-1.648952312548339e-06
4240.99,-1.6810360541279176e-06
4241.89,-1.7084455336319136e-06
4242.79,-1.7516458967880965e-06
4243.69,-1.777087881738241e-06
4244.59,-1.8011851328410297e-06
4245.5,-1.8031604767172198e-06
4246.4,-1.7909046509960119e-06
4247.3,-1.7690957611915405e-06
4248.2,-1.727596502189447e-06
4249.1,-1.684677985861639e-06
4250.0,-1.6624417119568128e-06
4250.9,-1.6413083234968103e-06
4251.8,-1.632068383927133e-06
4252.7,-1.6327763025466175e-06
4253.6,-1.6439730515856932e-06
4254.5,-1.6562788623051348e-06
4255.4,-1.6677745457381435e-06
4256.3,-1.6798047115436755e-06
4257.2,-1.6858859923090972e-06
4258.1,-1.6880574642466743e-06
4259.0,-1.6770435687846162e-06
4259.9,-1.6618853329740655e-06
4260.8,-1.6550113391977758e-06
4261.7,-1.6690281478580945e-06
4262.6,-1.6950198635172047e-06
4263.5,-1.7469863264881744e-06
4264.4,-1.7906409701718537e-06
4265.3,-1.842542261980077e-06
4266.2,-1.8621235721116899e-06
4267.1,-1.8627247193716443e-06
4268.0,-1.8340893430804822e-06
4268.9,-1.7773666425755426e-06
4269.8,-1.7209863953763414e-06
4270.7,-1.650418659164246e-06
4271.6,-1.5816019829611145e-06
4272.5,-1.5347164490365158e-06
4273.4,-1.50165777015121e-06
4274.3,-1.5064758716401713e-06
4275.2,-1.5431929748036685e-06
