wave,flux
3700.85,0.03418103589761968
3701.75,0.03405246149585145
3702.65,0.03304061917071407
3703.55,0.03147964656935894
3704.45,0.029610035635620393
3705.35,0.027932586964774093
3706.25,0.026566138901600287
3707.15,0.025907322512937193
3708.05,0.025984261110559837
3708.96,0.02690216186046554
3709.86,0.028227191212515466
3710.76,0.030278844176976058
3711.66,0.03268730841089987
3712.56,0.03520194020943768
3713.46,0.03733029103350312
3714.36,0.03920196677800666
3715.26,0.040034144561868615
3716.16,0.03983163842032096
3717.06,0.03865820267727148
3717.96,0.03663921682578617
3718.86,0.03394881983023865
3719.76,0.031059304915577558
3720.66,0.02872220972131261
3721.56,0.027245054658695547
3722.46,0.02740869330213099
3723.36,0.028874076534033125
3724.26,0.03134745386752016
3725.16,0.03395270107313253
3726.06,0.03604738455221562
3726.96,0.037339296493844334
3727.86,0.03802508398464402
3728.76,0.038257145479376205
3729.66,0.03819735275060996
3730.56,0.03759038993553063
3731.46,0.036256909807292126
3732.36,0.034365923527980013
3733.26,0.03185828678861572
3734.16,0.02929692294556571
3735.06,0.027234651788492055
3735.96,0.02646504271520545
3736.86,0.027006049227995002
3737.76,0.02893286428281871
3738.66,0.03221578159496999
3739.56,0.03563322705683813
3740.46,0.038818546650940464
3741.36,0.04120373016513819
3742.26,0.04208660320769924
3743.16,0.04132202727850796
3744.06,0.0397017922117882
3744.96,0.037629497429148416
3745.86,0.03549543462366002
3746.76,0.033621960215137796
3747.67,0.032144379898474844
3748.57,0.03143580754135701
3749.47,0.03172737290076301
3750.37,0.033362916687834136
3751.27,0.03651137645815631
3752.17,0.04077174411421109
3753.07,0.04542221629505854
3753.97,0.04993128266737182
3754.87,0.05322544494304227
3755.77,0.054929287200303135
3756.67,0.05479316094828885
3757.57,0.053176699542670014
3758.47,0.050655234437045636
3759.37,0.04929256253856559
3760.27,0.048676791838473156
3761.17,0.04917507370138586
3762.07,0.0503994590368046
3762.97,0.0516396752367006
3763.87,0.052546285548967835
3764.77,0.053584832650134265
3765.67,0.05407137364967008
3766.57,0.05476710922552784
3767.47,0.05506613203709403
3768.37,0.05618781917042989
3769.27,0.05748415213256698
3770.17,0.05933585670217433
3771.07,0.06181487371033893
3771.97,0.06464021823241868
3772.87,0.06740098459738497
3773.77,0.069646272736119
3774.67,0.07230503172997352
3775.57,0.0740864460431708
3776.47,0.07578163883836984
3777.37,0.07750572806051872
3778.27,0.07943251587047727
3779.17,0.0813988676789458
3780.07,0.08401585865099315
3780.97,0.08608858914032536
3781.87,0.08847793062394194
3782.77,0.09031783649011482
3783.67,0.0906861541855185
3784.57,0.09015947692981027
3785.47,0.08837745897331589
3786.38,0.08508664753348323
3787.28,0.08181916682229795
3788.18,0.07865468315846641
3789.08,0.07652729314041938
3789.98,0.07610941678672867
3790.88,0.07604253131830868
3791.78,0.07665356346145148
3792.68,0.07705776548141448
3793.58,0.07709072648512667
3794.48,0.07571234587284412
3795.38,0.07428893847457094
3796.28,0.07238600823161373
3797.18,0.07109135360903139
3798.08,0.07073623745854606
3798.98,0.07154146910884526
3799.88,0.07422988454475347
3800.78,0.07936708152437646
3801.68,0.08568818111832457
3802.58,0.09271496382334797
3803.48,0.09893519562115544
3804.38,0.10339781609557286
3805.28,0.10673569895407665
3806.18,0.10798411713758255
3807.08,0.10821971484090631
3807.98,0.1093444030031683
3808.88,0.11143957179496958
3809.78,0.11349972958499303
3810.68,0.11506463705094988
3811.58,0.11514537801747396
3812.48,0.11402529163356905
3813.38,0.1105702689857302
3814.28,0.10590978885768211
3815.18,0.10169162203078579
3816.08,0.09832820222815757
3816.98,0.09704131919229537
3817.88,0.09710228704025564
3818.78,0.0967188047183493
3819.68,0.09596065547446045
3820.58,0.09467778092536014
3821.48,0.09428530825132007
3822.38,0.0941522883365645
3823.28,0.09349070541106132
3824.18,0.09241930428131297
3825.09,0.09065422749933814
3825.99,0.08792803411940095
3826.89,0.08604501555472413
3827.79,0.08512012087740994
3828.69,0.08582139802771774
3829.59,0.08698600835791209
3830.49,0.08729188449309162
3831.39,0.08750165862711792
3832.29,0.086483735444526
3833.19,0.08557311429231852
3834.09,0.08426002749099501
3834.99,0.08392911142144878
3835.89,0.08493011797978879
3836.79,0.08679437875625393
3837.69,0.08867834819352091
3838.59,0.09062834734149151
3839.49,0.09360486776920161
3840.39,0.09797014466137897
3841.29,0.10497067996536674
3842.19,0.11415765499900629
3843.09,0.12582494423324106
3843.99,0.13577950198888955
3844.89,0.14514320274976467
3845.79,0.15238870224190212
3846.69,0.15759186539792314
3847.59,0.16070756785145227
3848.49,0.1623284043453672
3849.39,0.16397956463859606
3850.29,0.16468952352307156
3851.19,0.1659515786888732
3852.09,0.1676659043308756
3852.99,0.16918709864444445
3853.89,0.16990049059916584
3854.79,0.16968563906723327
3855.69,0.16796663386827562
3856.59,0.16356037691024258
3857.49,0.1603176657408015
3858.39,0.15671925394835917
3859.29,0.15417908697980215
3860.19,0.15434392945566658
3861.09,0.15877862448444952
3861.99,0.16879927052615334
3862.9,0.17905607792493253
3863.8,0.1891400150176765
3864.7,0.19760041387085367
3865.6,0.20354999106832997
3866.5,0.20624062705278912
3867.4,0.2061533347258973
3868.3,0.20426747360396955
3869.2,0.20199615603126575
3870.1,0.19867516494169304
3871.0,0.1942512553798411
3871.9,0.1927098830520992
3872.8,0.19363037783195683
3873.7,0.19867544995689074
3874.6,0.20569783393597266
3875.5,0.21466249780790964
3876.4,0.22029134981066004
3877.3,0.22242808160515892
3878.2,0.22192206797279715
3879.1,0.2202886632248925
3880.0,0.21936572490859865
3880.9,0.22024289727075502
3881.8,0.22280834222544355
3882.7,0.22463568134344444
3883.6,0.22820917711961697
3884.5,0.22831146095333518
3885.4,0.22806697677782053
3886.3,0.22553818546580476
3887.2,0.22227411785888498
3888.1,0.22205922697710026
3889.0,0.22692782723813887
3889.9,0.23491723291661631
3890.8,0.24875931041338295
3891.7,0.2680446927372161
3892.6,0.2849586276795377
3893.5,0.29832662195678333
3894.4,0.31065801987797786
3895.3,0.31657436917491066
3896.2,0.3226193871941032
3897.1,0.3297510895340743
3898.0,0.3339015442153795
3898.9,0.33885342600649065
3899.8,0.343057441922724
3900.7,0.34794305873601394
3901.6,0.35029194700312916
3902.51,0.3522908037217092
3903.41,0.3512651121285076
3904.31,0.35165175827685596
3905.21,0.3481392993648285
3906.11,0.3519722084034961
3907.01,0.35981721804994876
3907.91,0.3756163975119509
3908.81,0.3923210356006161
3909.71,0.4103083739210311
3910.61,0.4292782587669037
3911.51,0.44366751807835486
3912.41,0.4538260697345315
3913.31,0.4595645773046468
3914.21,0.463938333522008
3915.11,0.46337597796637753
3916.01,0.46193751868739424
3916.91,0.45516720818300843
3917.81,0.44748873831232744
3918.71,0.43845562204304483
3919.61,0.42932232272959175
3920.51,0.41882511627085356
3921.41,0.407839523243851
3922.31,0.40154626632242013
3923.21,0.3991862240181701
3924.11,0.3961728353365164
3925.01,0.39478848304388253
3925.91,0.38366505074003837
3926.81,0.3658824232423306
3927.71,0.3422370936869202
3928.61,0.31042104604935494
3929.51,0.27847041679681256
3930.41,0.24532337020758718
3931.31,0.21449808811033236
3932.21,0.18825074338639075
3933.11,0.1676209350726916
3934.01,0.15758370638381697
3934.91,0.15726282559886215
3935.81,0.1693255518918638
3936.71,0.19243712467064114
3937.61,0.22317550834731706
3938.51,0.2609495271089484
3939.42,0.29936050284613486
3940.32,0.33672883596804315
3941.22,0.3665614831531505
3942.12,0.3910842402201981
3943.02,0.4123890655270005
3943.92,0.42953662704700957
3944.82,0.4503800659072858
3945.72,0.47349121264768707
3946.62,0.49807061218481424
3947.52,0.5220304390250127
3948.42,0.5495526329353159
3949.32,0.5737327976922343
3950.22,0.5904968796766691
3951.12,0.6060141804164242
3952.02,0.6215188632450389
3952.92,0.6292934680872374
3953.82,0.6378771311579126
3954.72,0.6416057985885246
3955.62,0.6443171224786272
3956.52,0.6402498937824066
3957.42,0.6354249520220782
3958.32,0.6297868945065517
3959.22,0.618168576357729
3960.12,0.5947404720988791
3961.02,0.5687737870363522
3961.92,0.5298512660422257
3962.82,0.48980680298203827
3963.72,0.44955595118205455
3964.62,0.4083617047268915
3965.52,0.3669107551021873
3966.42,0.3283135399785312
3967.32,0.2896399006579038
3968.22,0.2589060404849997
3969.12,0.24372914173395052
3970.02,0.24241549339862678
3970.92,0.2582403866307895
3971.82,0.29205511953993335
3972.72,0.3367743521760008
3973.62,0.3871400416823987
3974.52,0.44201552782173564
3975.42,0.4970363936148184
3976.32,0.55561179759416
3977.22,0.6044763300464245
3978.13,0.6565353364925514
3979.03,0.6961887165743017
3979.93,0.733075614393285
3980.83,0.761119313776174
3981.73,0.7824616034972426
3982.63,0.792637223435187
3983.53,0.8010649012535007
3984.43,0.8108105573963269
3985.33,0.8166781537428216
3986.23,0.834040662711594
3987.13,0.8478033346700642
3988.03,0.8645368162233654
3988.93,0.8759721533253012
3989.83,0.8885474238229577
3990.73,0.9019554700847241
3991.63,0.9091064860079379
3992.53,0.9211731154291746
3993.43,0.9246197104637014
3994.33,0.9278001423540165
3995.23,0.9218553459641692
3996.13,0.9169326891361872
3997.03,0.9079808127362992
3997.93,0.9115768951953958
3998.83,0.9205245937911212
3999.73,0.9359262403925659
4000.63,0.9598561720696588
4001.53,0.9727847727485778
4002.43,0.9869331738819587
4003.33,0.9823981682443319
4004.23,0.9703833329402264
4005.13,0.9555110841811144
4006.03,0.9378264574942016
4006.93,0.9274162783934388
4007.83,0.9299117709521497
4008.73,0.9533647117241115
4009.63,0.9673428446841775
4010.53,0.9895925004695273
4011.43,1.003757534396643
4012.33,1.01800971190057
4013.23,1.0308159962321997
4014.13,1.037789018599277
4015.03,1.043626870018931
4015.93,1.04832663084261
4016.84,1.0499181717896509
4017.74,1.0528272930264315
4018.64,1.0564627803584414
4019.54,1.056203230572105
4020.44,1.0581552934642546
4021.34,1.0619385497928011
4022.24,1.063806864856536
4023.14,1.0568065310632178
4024.04,1.0548906992365312
4024.94,1.0547542593138515
4025.84,1.058389851035615
4026.74,1.0664104511058212
4027.64,1.0647789065784752
4028.54,1.0657633367251445
4029.44,1.0531044072055578
4030.34,1.02126035117157
4031.24,0.981566291084488
4032.14,0.9526198051842433
4033.04,0.927620905313607
4033.94,0.9222974635332151
4034.84,0.9322832977913675
4035.74,0.9594646060505774
4036.64,0.9984163364434867
4037.54,1.035792082103793
4038.44,1.0692646223845712
4039.34,1.0870388623018916
4040.24,1.0933243718837644
4041.14,1.087958114500528
4042.04,1.0630296128739116
4042.94,1.03387821724905
4043.84,0.995860589997103
4044.74,0.958555047838148
4045.64,0.9205262054265226
4046.54,0.9060544773407505
4047.44,0.9066112425974774
4048.34,0.9412004732314703
4049.24,0.9755345648467565
4050.14,1.0146948846654935
4051.04,1.0434337783803977
4051.94,1.0578955566591925
4052.84,1.0563832088386687
4053.74,1.0490093567669412
4054.65,1.0287177337056204
4055.55,1.0093145495850206
4056.45,0.9935513005199456
4057.35,0.9790562792870938
4058.25,0.9693530159669299
4059.15,0.9715919230742536
4060.05,0.9704637700630339
4060.95,0.9658081295156216
4061.85,0.9568058464048325
4062.75,0.9461006825592081
4063.65,0.9219427596111036
4064.55,0.9130065629650369
4065.45,0.9091756071052014
4066.35,0.9183954431870732
4067.25,0.936152792748169
4068.15,0.9565729563893972
4069.05,0.9774616040883207
4069.95,0.9890207740799559
4070.85,0.9900606272628717
4071.75,0.983440837270798
4072.65,0.9756225746395198
4073.55,0.9756758525306967
4074.45,0.9648620157008503
4075.35,0.9567315815750742
4076.25,0.9508443395221988
4077.15,0.9342773041260584
4078.05,0.9261176467501024
4078.95,0.9337047430673211
4079.85,0.9555998826827041
4080.75,0.9785611318743486
4081.65,1.0087317412981451
4082.55,1.027133605378198
4083.45,1.0399775210596995
4084.35,1.0502040384397935
4085.25,1.052770978834168
4086.15,1.0588631478918968
4087.05,1.072270787097246
4087.95,1.09422945256332
4088.85,1.1098332693819306
4089.75,1.1249924968848761
4090.65,1.1221235958369553
4091.55,1.1240207303767227
4092.45,1.1123528352683842
4093.36,1.0892404951731396
4094.26,1.0727490289047086
4095.16,1.0482889473162276
4096.06,1.0236404099439915
4096.96,0.9961072225265881
4097.86,0.9628356621767644
4098.76,0.933424447698084
4099.66,0.9001123357697475
4100.56,0.8672109451034287
4101.46,0.8472579422056116
4102.36,0.8332440637819891
4103.26,0.8373674807126809
4104.16,0.8575101526072273
4105.06,0.8884953962425782
4105.96,0.9234366403849341
4106.86,0.9601290559579507
4107.76,0.983061736477995
4108.66,1.0015317346367592
4109.56,1.010664325355811
4110.46,1.011863591152503
4111.36,1.014302087189024
4112.26,1.01862141423637
4113.16,1.0288901091810998
4114.06,1.040765973258667
4114.96,1.0529098897065912
4115.86,1.0631816919893176
4116.76,1.070139305160322
4117.66,1.0620218744128351
4118.56,1.05675076003945
4119.46,1.0452381975911689
4120.36,1.028450532722478
4121.26,1.0317106736249813
4122.16,1.0250445959574583
4123.06,1.027893405573634
4123.96,1.0291477385270036
4124.86,1.0389481603865334
4125.76,1.0401629048093857
4126.66,1.0337576772866355
4127.56,1.0336566130785103
4128.46,1.0177277056260092
4129.36,1.0047450979645742
4130.26,0.9912956998777968
4131.17,0.9732741007770291
4132.06,0.9567084208556544
4132.97,0.9458528680502215
4133.87,0.9484864956990094
4134.77,0.9533105340465191
4135.67,0.9728923436500322
4136.57,1.0000911937492252
4137.47,1.0237246338745996
4138.37,1.0430486753684864
4139.27,1.0521568105304693
4140.17,1.0545116971677693
4141.07,1.039736851339276
4141.97,1.01443527783829
4142.87,0.9871226667414157
4143.77,0.9600336495875615
4144.67,0.9497154838651491
4145.57,0.9481309837911798
4146.47,0.9570346891107948
4147.37,0.9729142998320973
4148.27,0.9876828836351853
4149.17,0.99639299404791
4150.07,0.9978212958170407
4150.97,0.9896805018765553
4151.87,0.9850044172781078
4152.77,0.9767171453391366
4153.67,0.9765227466375025
4154.57,0.9623422111624697
4155.47,0.9591803988027198
4156.37,0.9599086223384112
4157.27,0.9753285065742208
4158.17,0.9827207810803573
4159.07,1.0012948279021818
4159.97,1.0223249967754002
4160.87,1.0407025516382147
4161.77,1.0505725581194554
4162.67,1.066730693930085
4163.57,1.0697485450433202
4164.47,1.069152030253393
4165.37,1.0637157783322948
4166.27,1.051361279608363
4167.17,1.044441330423127
4168.07,1.0307606085829826
4168.98,1.0188407180598031
4169.88,1.0101710592296165
4170.78,0.9958560358564192
4171.68,0.9732819329002861
4172.58,0.9568881511882363
4173.48,0.9396941963732979
4174.38,0.9310816401019757
4175.28,0.9279082748098517
4176.18,0.9314559731863203
4177.08,0.9370343192829736
4177.98,0.9522717790077204
4178.88,0.9575941184079849
4179.78,0.9698571858338038
4180.68,0.9773771249165639
4181.58,0.9825002818165699
4182.48,0.9878944281094398
4183.38,0.9957485012072627
4184.28,0.997092446176329
4185.18,1.004954659081306
4186.08,0.9975970692963088
4186.98,1.000122740455403
4187.88,0.999123809072317
4188.78,0.993422421345411
4189.68,1.0002825131513293
4190.58,1.0089102661576057
4191.48,1.0226222973882781
4192.38,1.0293332429376194
4193.28,1.0428410693509644
4194.18,1.0358615960530382
4195.08,1.0312878799017697
4195.98,1.009102722253126
4196.88,0.9877124201771368
4197.78,0.9686163060399113
4198.68,0.9450141598047137
4199.58,0.9310979594239853
4200.48,0.9260690324486921
4201.38,0.9259133585098012
4202.28,0.9350280657716127
4203.18,0.9490761384849725
4204.08,0.9655401945616825
4204.98,0.9835096943804756
4205.88,1.0112441419153049
4206.79,1.0347507621277474
4207.69,1.0508038127118116
4208.59,1.072547496834407
4209.49,1.0776591129974493
4210.39,1.0793344176403061
4211.29,1.0843354956642077
4212.19,1.0756973488950197
4213.09,1.0712954041492615
4213.99,1.058134347741508
4214.89,1.0398090901372032
4215.79,1.0374303592746756
4216.69,1.0373572972223002
4217.59,1.043567405633858
4218.49,1.0648229469667583
4219.39,1.0827467845505754
4220.29,1.0974985333502252
4221.19,1.0989154225897217
4222.09,1.0855409644279364
4222.99,1.0561334709700223
4223.89,1.0074074276526437
4224.79,0.9527501781140357
4225.69,0.8994762641239571
4226.59,0.8551179116177158
4227.49,0.8382386676373484
4228.39,0.8491678612470789
4229.29,0.8788181195320712
4230.19,0.92886070634939
4231.09,0.9743827840477222
4231.99,1.0181274502025186
4232.89,1.0360370604853446
4233.79,1.0428542642602592
4234.69,1.0383085959202205
4235.59,1.026005064050691
4236.49,1.0160619291244346
4237.39,1.0088024092803347
4238.29,1.013806957162756
4239.19,1.0155205934717177
4240.09,1.0366560083183742
4240.99,1.0530462204103006
4241.89,1.0721718473170174
4242.79,1.0943551755828003
4243.69,1.1142133461319863
4244.59,1.12475097578865
4245.5,1.1256455501660356
4246.4,1.1185680933088469
4247.3,1.1015831932972244
4248.2,1.0759305284556884
4249.1,1.0476375702050644
4250.0,1.0264942914029855
4250.9,1.009594656460926
4251.8,1.0048954218692865
4252.7,1.0009406694034426
4253.6,1.0043956046217324
4254.5,1.0140743817713687
4255.4,1.0165931567948294
4256.3,1.0235606086774056
4257.2,1.0300855871019217
4258.1,1.0275212572087336
4259.0,1.0194706788213246
4259.9,1.0157078425190904
4260.8,1.0089841237317645
4261.7,1.0132533921514175
4262.6,1.029097603294521
4263.5,1.062138916361304
4264.4,1.0905941415015261
4265.3,1.11280417180948
4266.2,1.1292020703122874
4267.1,1.1283279990069384
4268.0,1.1046812977794045
4268.9,1.0734346931868128
4269.8,1.0320280096927763
4270.7,0.9828265678517074
4271.6,0.9442379405154828
4272.5,0.9126700398050451
4273.4,0.8932469408367748
4274.3,0.8962124217090117
4275.2,0.9101123990984528
4276.1,0.9450754044707042
4277.0,0.9825060770508406
4277.9,1.0126932427915019
4278.8,1.0391638069207378
4279.7,1.0549944987563191
4280.6,1.0614243325572177
4281.5,1.0567095453157545
4282.4,1.0486346333575813
4283.31,1.0454952482669098
4284.21,1.0335287736440746
4285.11,1.0288939633895342
4286.01,1.0140038001232703
4286.91,0.9975788000437341
4287.81,0.9738936987252264
4288.71,0.9505419175061512
4289.61,0.9352050840478096
4290.51,0.9246402119070831
4291.41,0.918892029286944
4292.31,0.9310662007619425
4293.21,0.9411528555069543
4294.11,0.9528523780823526
4295.01,0.9572944582420704
4295.91,0.9527000088531602
4296.81,0.9346069936492039
4297.71,0.905940625508533
4298.61,0.8691449671483257
4299.51,0.825816184330994
4300.41,0.7928411095794254
4301.31,0.7700409842833298
4302.21,0.7562395430177421
4303.11,0.748427928616009
4304.01,0.7483219635636116
4304.91,0.7452750104404343
4305.81,0.7409161445827677
4306.71,0.730752573039939
4307.61,0.7226339681700732
4308.51,0.715198402998124
4309.41,0.7155885570642836
4310.31,0.7284216809990687
4311.21,0.7530408983916658
4312.11,0.7909230830054046
4313.01,0.8414605821853104
4313.91,0.9002573824554108
4314.81,0.9606494086735493
4315.71,1.0294709357627219
4316.61,1.0865561031584634
4317.51,1.1371597226950003
4318.41,1.1721000455177517
4319.31,1.1934851544764953
4320.21,1.1940811305277266
4321.12,1.1717714304166942
4322.02,1.124024921340301
4322.92,1.0831487521018666
4323.82,1.0247219944653345
4324.72,0.9873412154295571
4325.62,0.9499234656801623
4326.52,0.9401257916146091
4327.42,0.9547414881614918
4328.32,0.9876116898117905
4329.22,1.0344913614587874
4330.12,1.0761596466617724
4331.02,1.1111040580509144
4331.92,1.138175043878142
4332.82,1.1455550203940092
4333.72,1.1575776433780989
4334.62,1.1506451730977665
4335.52,1.1354091501131638
4336.42,1.0970729767704235
4337.32,1.0557307113595915
4338.22,1.004124850124279
4339.12,0.9558563798769966
4340.02,0.9107640219228423
4340.92,0.8893112721518021
4341.82,0.8872447550896158
4342.72,0.9030901530053445
4343.62,0.9315696367180697
4344.52,0.9715858133402351
4345.42,1.0149453484665045
4346.32,1.0452552452455817
4347.22,1.0710918206390005
4348.12,1.0968051180315743
4349.02,1.0958772255400338
4349.92,1.0908179421221156
4350.82,1.078864250619116
4351.72,1.0596463125985582
4352.62,1.03903321424462
4353.52,1.0290933458718472
4354.42,1.0258854077366253
4355.32,1.0358424882664057
4356.22,1.0489171686834384
4357.12,1.0647527115657118
4358.02,1.076118424492754
4358.92,1.0888685626455525
4359.83,1.0970052816464237
4360.73,1.1032697223256196
4361.63,1.1181074004054201
4362.53,1.1316291069386144
4363.43,1.1413065583890198
