wave,flux
3700.85,-5.357819610170358e-07
3701.75,-5.289835100265545e-07
3702.65,-5.125069395187387e-07
3703.55,-4.930661692232194e-07
3704.45,-4.6818904992479375e-07
3705.35,-4.47901420413049e-07
3706.25,-4.3328780428644617e-07
3707.15,-4.288308701873747e-07
3708.05,-4.3158506246408056e-07
3708.96,-4.3934872914186735e-07
3709.86,-4.475971409953431e-07
3710.76,-4.604686441989958e-07
3711.66,-4.783014614905939e-07
3712.56,-4.968933818326791e-07
3713.46,-5.157692296139674e-07
3714.36,-5.384237011809367e-07
3715.26,-5.497463724978492e-07
3716.16,-5.553979048199402e-07
3717.06,-5.494906714621575e-07
3717.96,-5.336839322650132e-07
3718.86,-5.044164423061405e-07
3719.76,-4.7317587188130285e-07
3720.66,-4.416263791398029e-07
3721.56,-4.199696045183327e-07
3722.46,-4.1345183768341565e-07
3723.36,-4.2426932323368454e-07
3724.26,-4.4558940650447945e-07
3725.16,-4.735021527900834e-07
3726.06,-4.978280452599488e-07
3726.96,-5.120671908484675e-07
3727.86,-5.188419004066898e-07
3728.76,-5.223392253525521e-07
3729.66,-5.187478741666191e-07
3730.56,-5.102199990975963e-07
3731.46,-4.922683746533335e-07
3732.36,-4.6683808183421553e-07
3733.26,-4.3462622783442676e-07
3734.16,-4.0517628502547484e-07
3735.06,-3.817541905527866e-07
3735.96,-3.7084757409302656e-07
3736.86,-3.771680277174571e-07
3737.76,-4.0011864198250645e-07
3738.66,-4.3044859161244417e-07
3739.56,-4.6815186953421343e-07
3740.46,-4.973325416688789e-07
3741.36,-5.193102056544608e-07
3742.26,-5.241681815106933e-07
3743.16,-5.205768086760999e-07
3744.06,-5.059504868856962e-07
3744.96,-4.862709091804026e-07
3745.86,-4.6160232275695894e-07
3746.76,-4.3707091961282927e-07
3747.67,-4.182671254463385e-07
3748.57,-3.9856684348496727e-07
3749.47,-3.8762828039667807e-07
3750.37,-3.9045076815905906e-07
3751.27,-4.0850544485035923e-07
3752.17,-4.412591570161863e-07
3753.07,-4.790344035690697e-07
3753.97,-5.178968218797173e-07
3754.87,-5.490568233444609e-07
3755.77,-5.632217985581275e-07
3756.67,-5.677909621589893e-07
3757.57,-5.576743857344613e-07
3758.47,-5.407373797702093e-07
3759.37,-5.278175852156671e-07
3760.27,-5.209779968151691e-07
3761.17,-5.228946719657147e-07
3762.07,-5.312191417383198e-07
3762.97,-5.391889293532162e-07
3763.87,-5.490738169638883e-07
3764.77,-5.516027718455546e-07
3765.67,-5.521256048615948e-07
3766.57,-5.470891810223521e-07
3767.47,-5.382804383483493e-07
3768.37,-5.266175074060193e-07
3769.27,-5.176410281511916e-07
3770.17,-5.122351245482703e-07
3771.07,-5.147178396380713e-07
3771.97,-5.238860418407858e-07
3772.87,-5.399709466831352e-07
3773.77,-5.593112130322594e-07
3774.67,-5.799671784696384e-07
3775.57,-5.988167110928833e-07
3776.47,-6.144911894155525e-07
3777.37,-6.280257496563917e-07
3778.27,-6.40164615438083e-07
3779.17,-6.537996293455401e-07
3780.07,-6.725039754939625e-07
3780.97,-6.836134473272262e-07
3781.87,-6.963824956863454e-07
3782.77,-7.015859726537044e-07
3783.67,-7.025430201346911e-07
3784.57,-6.96492485029111e-07
3785.47,-6.799887097530463e-07
3786.38,-6.625701085812916e-07
3787.28,-6.411122042523421e-07
3788.18,-6.203184973870082e-07
3789.08,-6.075023063451423e-07
3789.98,-5.986739261125842e-07
3790.88,-5.93898464214267e-07
3791.78,-5.905802433303427e-07
3792.68,-5.803253225515141e-07
3793.58,-5.682833038004115e-07
3794.48,-5.495212760548476e-07
3795.38,-5.284357609423081e-07
3796.28,-5.097938301477936e-07
3797.18,-4.885787822797798e-07
3798.08,-4.7669768346205577e-07
3798.98,-4.78278536599319e-07
3799.88,-4.901003193324923e-07
3800.78,-5.180819212838589e-07
3801.68,-5.538203939634386e-07
3802.58,-5.954702036566377e-07
3803.48,-6.302441231759131e-07
3804.38,-6.536958955578939e-07
3805.28,-6.724831187030265e-07
3806.18,-6.793199273168719e-07
3807.08,-6.845969625169847e-07
3807.98,-6.835904051634285e-07
3808.88,-6.91808266046462e-07
3809.78,-6.968332302135373e-07
3810.68,-7.033890094836207e-07
3811.58,-7.021725001015129e-07
3812.48,-6.895581887782783e-07
3813.38,-6.734239048868966e-07
3814.28,-6.507880526274437e-07
3815.18,-6.31947132438932e-07
3816.08,-6.220037812646609e-07
3816.98,-6.190048560877856e-07
3817.88,-6.145783367100159e-07
3818.78,-6.162818996839435e-07
3819.68,-6.120953840729577e-07
3820.58,-6.028692448593818e-07
3821.48,-5.968714373241964e-07
3822.38,-5.917584451007085e-07
3823.28,-5.837206460868193e-07
3824.18,-5.756397534146211e-07
3825.09,-5.620174936038419e-07
3825.99,-5.478020389648519e-07
3826.89,-5.319004713311625e-07
3827.79,-5.220516890615297e-07
3828.69,-5.147493147885223e-07
3829.59,-5.080820909571707e-07
3830.49,-4.996517713448185e-07
3831.39,-4.872209150662126e-07
3832.29,-4.670164235249826e-07
3833.19,-4.4697289422880896e-07
3834.09,-4.2703413086270706e-07
3834.99,-4.141213928831738e-07
3835.89,-4.0944638032711465e-07
3836.79,-4.083998435706689e-07
3837.69,-4.1619669177648055e-07
3838.59,-4.279931013756952e-07
3839.49,-4.465639871862352e-07
3840.39,-4.721275621069533e-07
3841.29,-5.042462404963418e-07
3842.19,-5.393092404036685e-07
3843.09,-5.770385961569582e-07
3843.99,-6.099704339136554e-07
3844.89,-6.386645241040871e-07
3845.79,-6.615892515860907e-07
3846.69,-6.764611080515049e-07
3847.59,-6.844933038009133e-07
3848.49,-6.932011745879017e-07
3849.39,-6.972041914500214e-07
3850.29,-7.002633917743143e-07
3851.19,-6.98944741653257e-07
3852.09,-7.039728499985238e-07
3852.99,-7.115230206986335e-07
3853.89,-7.089085114016071e-07
3854.79,-7.026710448601115e-07
3855.69,-6.965375319518074e-07
3856.59,-6.851442560305167e-07
3857.49,-6.698697616867967e-07
3858.39,-6.565710651296663e-07
3859.29,-6.459805084272889e-07
3860.19,-6.44536984623551e-07
3861.09,-6.536056277414245e-07
3861.99,-6.701833224025947e-07
3862.9,-6.915839280956411e-07
3863.8,-7.139512776695996e-07
3864.7,-7.246065686777895e-07
3865.6,-7.317987443114732e-07
3866.5,-7.363969091454082e-07
3867.4,-7.352570248776318e-07
3868.3,-7.312682385652968e-07
3869.2,-7.242758313233e-07
3870.1,-7.111847738154143e-07
3871.0,-6.966273144035406e-07
3871.9,-6.823665288273009e-07
3872.8,-6.699361662413846e-07
3873.7,-6.68399661543791e-07
3874.6,-6.703447972656085e-07
3875.5,-6.737119761500591e-07
3876.4,-6.793039965828725e-07
3877.3,-6.76347151910208e-07
3878.2,-6.691455483420242e-07
3879.1,-6.659652778573914e-07
3880.0,-6.633132377104543e-07
3880.9,-6.588129404959654e-07
3881.8,-6.586774203979195e-07
3882.7,-6.527937897671556e-07
3883.6,-6.477632498652447e-07
3884.5,-6.314455668460996e-07
3885.4,-6.112152357418843e-07
3886.3,-5.894227187095048e-07
3887.2,-5.645080288440862e-07
3888.1,-5.445776127871441e-07
3889.0,-5.309041968693183e-07
3889.9,-5.34155289215142e-07
3890.8,-5.514951974210594e-07
3891.7,-5.742468326698174e-07
3892.6,-6.07990662293693e-07
3893.5,-6.320705644310109e-07
3894.4,-6.55260328039694e-07
3895.3,-6.731228395244419e-07
3896.2,-6.871530109548765e-07
3897.1,-6.98307297930982e-07
3898.0,-7.077574751864659e-07
3898.9,-7.163466013674614e-07
3899.8,-7.276788345168866e-07
3900.7,-7.326914958785173e-07
3901.6,-7.349802441511184e-07
3902.51,-7.369460279147404e-07
3903.41,-7.351048501690561e-07
3904.31,-7.3097612396744e-07
3905.21,-7.288507010924403e-07
3906.11,-7.277275038960111e-07
3907.01,-7.350594619015234e-07
3907.91,-7.48241828828959e-07
3908.81,-7.638648042439716e-07
3909.71,-7.868035049713202e-07
3910.61,-8.060760392691138e-07
3911.51,-8.201076914336132e-07
3912.41,-8.307567474562149e-07
3913.31,-8.305764792470163e-07
3914.21,-8.313489061027358e-07
3915.11,-8.195600125560982e-07
3916.01,-8.09536082715225e-07
3916.91,-8.004183515984857e-07
3917.81,-7.891217976296074e-07
3918.71,-7.760421127989463e-07
3919.61,-7.628138014685636e-07
3920.51,-7.473310557813721e-07
3921.41,-7.374592898912313e-07
3922.31,-7.314460917845795e-07
3923.21,-7.222852688353617e-07
3924.11,-7.168361844799035e-07
3925.01,-7.03973081603722e-07
3925.91,-6.84609300197059e-07
3926.81,-6.541766437382673e-07
3927.71,-6.114900102433366e-07
3928.61,-5.611985836395763e-07
3929.51,-5.074064171938136e-07
3930.41,-4.463813603555074e-07
3931.31,-3.895002185013301e-07
3932.21,-3.3724481810908427e-07
3933.11,-2.9620313924489366e-07
3934.01,-2.715654241016827e-07
3934.91,-2.669164666872749e-07
3935.81,-2.848729406885944e-07
3936.71,-3.2248186247261235e-07
3937.61,-3.734920299888561e-07
3938.51,-4.3503880735082127e-07
3939.42,-4.947163887726861e-07
3940.32,-5.512771360703028e-07
3941.22,-5.965867551598396e-07
3942.12,-6.313734707242576e-07
3943.02,-6.604567163273381e-07
3943.92,-6.83598341002766e-07
3944.82,-7.039251091916466e-07
3945.72,-7.218422358414013e-07
3946.62,-7.449142083470234e-07
3947.52,-7.67423920305388e-07
3948.42,-7.843977372398627e-07
3949.32,-7.957562426387694e-07
3950.22,-8.081253848593521e-07
3951.12,-8.171931730678862e-07
3952.02,-8.260854635863692e-07
3952.92,-8.30414792010757e-07
3953.82,-8.347516740193991e-07
3954.72,-8.368824868490805e-07
3955.62,-8.326585893205851e-07
3956.52,-8.32186788020451e-07
3957.42,-8.24796519735165e-07
3958.32,-8.133665017192872e-07
3959.22,-7.965638287600681e-07
3960.12,-7.820196804021091e-07
3961.02,-7.52625069173321e-07
3961.92,-7.137038565329574e-07
3962.82,-6.663939756709759e-07
3963.72,-6.197070787181413e-07
3964.62,-5.645688734590102e-07
3965.52,-5.083206916061385e-07
3966.42,-4.485238270869064e-07
3967.32,-3.932299663238726e-07
3968.22,-3.4837368489210443e-07
3969.12,-3.17781965743846e-07
3970.02,-3.1175388770046976e-07
3970.92,-3.293572124721475e-07
3971.82,-3.640582053746918e-07
3972.72,-4.185694387965802e-07
3973.62,-4.799892039919968e-07
3974.52,-5.446031758905547e-07
3975.42,-6.065520939493688e-07
3976.32,-6.654345156892155e-07
3977.22,-7.166433453298634e-07
3978.13,-7.650632685367642e-07
3979.03,-8.057346157617335e-07
3979.93,-8.382146772771813e-07
3980.83,-8.633373756833188e-07
3981.73,-8.80289789801509e-07
3982.63,-8.913609402241019e-07
3983.53,-8.952446721595291e-07
3984.43,-9.088647994306433e-07
3985.33,-9.150568181452922e-07
3986.23,-9.260344737944871e-07
3987.13,-9.394549719645305e-07
3988.03,-9.488806439491607e-07
3988.93,-9.619145784707642e-07
3989.83,-9.75371891725735e-07
3990.73,-9.810585595625372e-07
3991.63,-9.90623363237217e-07
3992.53,-9.962337311355932e-07
3993.43,-1.0016869815112902e-06
3994.33,-9.995589475433134e-07
3995.23,-9.942463560742214e-07
3996.13,-9.86376728917546e-07
3997.03,-9.794975461513746e-07
3997.93,-9.753235589325737e-07
3998.83,-9.784655158562743e-07
3999.73,-9.89583216201419e-07
4000.63,-1.0090359674791262e-06
4001.53,-1.0227968506899975e-06
4002.43,-1.032299865458768e-06
4003.33,-1.0307136523023485e-06
4004.23,-1.0219939010187894e-06
4005.13,-1.011058399274435e-06
4006.03,-1.0029452041902167e-06
4006.93,-9.9359595871811e-07
4007.83,-9.976940949252098e-07
4008.73,-1.0123921001751723e-06
4009.63,-1.0271852948059812e-06
4010.53,-1.0443529776226689e-06
4011.43,-1.0562410594581422e-06
4012.33,-1.0676057157888285e-06
4013.23,-1.073294379570622e-06
4014.13,-1.0721981803601955e-06
4015.03,-1.0746194489751758e-06
4015.93,-1.0800892836987685e-06
4016.84,-1.0790740174780904e-06
4017.74,-1.0848312347544052e-06
4018.64,-1.0881284336190986e-06
4019.54,-1.0921523034091586e-06
4020.44,-1.0946018638255053e-06
4021.34,-1.097433785100467e-06
4022.24,-1.0981695177533953e-06
4023.14,-1.0934592561787593e-06
4024.04,-1.0982626360394757e-06
4024.94,-1.099413366610348e-06
4025.84,-1.1062005679780168e-06
4026.74,-1.1054908835192175e-06
4027.64,-1.1148930326302965e-06
4028.54,-1.1104443470005072e-06
4029.44,-1.1010238342614786e-06
4030.34,-1.0881456581681365e-06
4031.24,-1.0610909760369761e-06
4032.14,-1.0412227708117543e-06
4033.04,-1.032602646536334e-06
4033.94,-1.0307299048321798e-06
4034.84,-1.042953410696189e-06
4035.74,-1.0572258154286423e-06
4036.64,-1.0927510335478127e-06
4037.54,-1.120117818480338e-06
4038.44,-1.1400034082704675e-06
4039.34,-1.1561737901888602e-06
4040.24,-1.1570342257653312e-06
4041.14,-1.1478463733546743e-06
4042.04,-1.1367409002974187e-06
4042.94,-1.115333762769975e-06
4043.84,-1.0855334681251397e-06
4044.74,-1.0639993566639708e-06
4045.64,-1.042988090235435e-06
4046.54,-1.0372022800070905e-06
4047.44,-1.0459782846396336e-06
4048.34,-1.0648259114393691e-06
4049.24,-1.091789423548481e-06
4050.14,-1.1157175688667476e-06
4051.04,-1.1317013396909788e-06
4051.94,-1.142667880361349e-06
4052.84,-1.1435507840022774e-06
4053.74,-1.136813774544687e-06
4054.65,-1.1243004501453514e-06
4055.55,-1.1170664389005746e-06
4056.45,-1.1088177220164377e-06
4057.35,-1.103161987229235e-06
4058.25,-1.1025399569615458e-06
4059.15,-1.1080048525284317e-06
4060.05,-1.1063808310276547e-06
4060.95,-1.1085568057561842e-06
4061.85,-1.103552043809741e-06
4062.75,-1.0960199908706684e-06
4063.65,-1.0851615922473552e-06
4064.55,-1.0693821941838064e-06
4065.45,-1.0668774065493588e-06
4066.35,-1.06934794797384e-06
4067.25,-1.0854067615165104e-06
4068.15,-1.1019296770053411e-06
4069.05,-1.118700812183519e-06
4069.95,-1.1281119355268266e-06
4070.85,-1.1241575471123562e-06
4071.75,-1.1267655152147401e-06
4072.65,-1.121565069195946e-06
4073.55,-1.1137713039111381e-06
4074.45,-1.1110223812109864e-06
4075.35,-1.0959131719274521e-06
4076.25,-1.0833274690339845e-06
4077.15,-1.0693291713375152e-06
4078.05,-1.0600909238046146e-06
4078.95,-1.0657602628812148e-06
4079.85,-1.075724211007623e-06
4080.75,-1.0927076304070079e-06
4081.65,-1.1236285408415447e-06
4082.55,-1.1374943718496525e-06
4083.45,-1.149070237929702e-06
4084.35,-1.1585334517978941e-06
4085.25,-1.1600584175167284e-06
4086.15,-1.1682585031454148e-06
4087.05,-1.184481584533545e-06
4087.95,-1.1986666090760449e-06
4088.85,-1.2182025491182056e-06
4089.75,-1.2284117819625007e-06
4090.65,-1.234083193209373e-06
4091.55,-1.235611486034377e-06
4092.45,-1.2238535948712889e-06
4093.36,-1.2075150754781148e-06
4094.26,-1.194663893778722e-06
4095.16,-1.1743788809872764e-06
4096.06,-1.150103859564646e-06
4096.96,-1.1183212141824122e-06
4097.86,-1.0855800674797144e-06
4098.76,-1.0464215564368008e-06
4099.66,-1.0064007429104107e-06
4100.56,-9.591123858497127e-07
4101.46,-9.281851223089415e-07
4102.36,-9.108904962772657e-07
4103.26,-9.078691107998969e-07
4104.16,-9.293867665889835e-07
4105.06,-9.702097620247066e-07
4105.96,-1.0148022326457236e-06
4106.86,-1.0588020381718174e-06
4107.76,-1.093452786478302e-06
4108.66,-1.1163097252348236e-06
4109.56,-1.135542849741048e-06
4110.46,-1.149362809867089e-06
4111.36,-1.1643831458597158e-06
4112.26,-1.1719238839805894e-06
4113.16,-1.1938636961494132e-06
4114.06,-1.2090826099940598e-06
4114.96,-1.2220484675939474e-06
4115.86,-1.2327927230058914e-06
4116.76,-1.2432140511562232e-06
4117.66,-1.2425175973656639e-06
4118.56,-1.2332669642460575e-06
4119.46,-1.2295768100040717e-06
4120.36,-1.2183427949715538e-06
4121.26,-1.217615657875313e-06
4122.16,-1.2181893127494901e-06
4123.06,-1.2206430337782163e-06
4123.96,-1.229936165849127e-06
4124.86,-1.2400152979543005e-06
4125.76,-1.2417636942986381e-06
4126.66,-1.2422821108272118e-06
4127.56,-1.2353986239055503e-06
4128.46,-1.2269957691397167e-06
4129.36,-1.2203138057258011e-06
4130.26,-1.2133472134571506e-06
4131.17,-1.2045988333993737e-06
4132.06,-1.1915448168489984e-06
4132.97,-1.1854316856469862e-06
4133.87,-1.1950135500276607e-06
4134.77,-1.1980856601440819e-06
4135.67,-1.2142697247701628e-06
4136.57,-1.2346112018679043e-06
4137.47,-1.2594340062547548e-06
4138.37,-1.2798576569418597e-06
4139.27,-1.2886848772691065e-06
4140.17,-1.2919785736578161e-06
4141.07,-1.2885097044055703e-06
4141.97,-1.2659230192281655e-06
4142.87,-1.2479949099054314e-06
4143.77,-1.227441096287283e-06
4144.67,-1.2165862910003008e-06
4145.57,-1.2195083591247367e-06
4146.47,-1.2305811289087572e-06
4147.37,-1.2465591366278529e-06
4148.27,-1.2562194204055931e-06
4149.17,-1.263056009650439e-06
4150.07,-1.2695099911867481e-06
4150.97,-1.2719815815501247e-06
4151.87,-1.2712507277953467e-06
4152.77,-1.263464544838476e-06
4153.67,-1.2596283143126845e-06
4154.57,-1.2597536915625957e-06
4155.47,-1.250658667772112e-06
4156.37,-1.2549105839906942e-06
4157.27,-1.2580151766195619e-06
4158.17,-1.2708899544417221e-06
4159.07,-1.287299976735074e-06
4159.97,-1.3074153856100752e-06
4160.87,-1.3236918034868406e-06
4161.77,-1.332516567946791e-06
4162.67,-1.3398356461036444e-06
4163.57,-1.3382674435214613e-06
4164.47,-1.3499388735914309e-06
4165.37,-1.346567734826165e-06
4166.27,-1.3415000355353348e-06
4167.17,-1.3317119290242885e-06
4168.07,-1.3234748547502886e-06
4168.98,-1.309346592079362e-06
4169.88,-1.2993735183270721e-06
4170.78,-1.284934617328199e-06
4171.68,-1.2717202105828951e-06
4172.58,-1.2477488280543467e-06
4173.48,-1.2302545483466952e-06
4174.38,-1.2238816010407458e-06
4175.28,-1.2228962936808395e-06
4176.18,-1.2302414166583284e-06
4177.08,-1.2391056468102517e-06
4177.98,-1.2599205080576335e-06
4178.88,-1.2668726663033704e-06
4179.78,-1.277796266901036e-06
4180.68,-1.2905787901883493e-06
4181.58,-1.2942258250012416e-06
4182.48,-1.2982883957198722e-06
4183.38,-1.3089136306729266e-06
4184.28,-1.3097977323753279e-06
4185.18,-1.3122836686154348e-06
4186.08,-1.312102376230987e-06
4186.98,-1.3091225280259034e-06
4187.88,-1.3049004948311014e-06
4188.78,-1.3091184730318443e-06
4189.68,-1.3125599039453314e-06
4190.58,-1.3179481499564994e-06
4191.48,-1.327107906901422e-06
4192.38,-1.3415400518911114e-06
4193.28,-1.3530588755159638e-06
4194.18,-1.3522437942271325e-06
4195.08,-1.350595983443401e-06
4195.98,-1.3320768638275425e-06
4196.88,-1.3217123110812265e-06
4197.78,-1.301876888025139e-06
4198.68,-1.2805426986095342e-06
4199.58,-1.2693422514253966e-06
4200.48,-1.2668027410644552e-06
4201.38,-1.2653437987745272e-06
4202.28,-1.2731262291682285e-06
4203.18,-1.281551260395518e-06
4204.08,-1.294393309080052e-06
4204.98,-1.3083088391371317e-06
4205.88,-1.322923019310443e-06
4206.79,-1.3453578454335324e-06
4207.69,-1.3607935487251037e-06
4208.59,-1.3744896027568632e-06
4209.49,-1.3880853322780164e-06
4210.39,-1.3977815135084524e-06
4211.29,-1.3971019317271226e-06
4212.19,-1.3959123755741568e-06
4213.09,-1.394168988311107e-06
4213.99,-1.384326796746794e-06
4214.89,-1.3764576701109141e-06
4215.79,-1.3617352928781688e-06
4216.69,-1.3597764982405986e-06
4217.59,-1.3591316982569216e-06
4218.49,-1.3692171566985844e-06
4219.39,-1.3867822868627572e-06
4220.29,-1.399132380934455e-06
4221.19,-1.4095837411086587e-06
4222.09,-1.3994445995436708e-06
4222.99,-1.3761437445764683e-06
4223.89,-1.3406272393013135e-06
4224.79,-1.2939736500234873e-06
4225.69,-1.249758773055373e-06
4226.59,-1.2126311815588685e-06
4227.49,-1.2032171641541799e-06
4228.39,-1.2153131645867932e-06
4229.29,-1.2430786256986356e-06
4230.19,-1.2888040715248164e-06
4231.09,-1.3276665506314394e-06
4231.99,-1.3630174645080096e-06
4232.89,-1.3803057205163493e-06
4233.79,-1.3796936298136147e-06
4234.69,-1.3806402473781553e-06
4235.59,-1.371474254138925e-06
4236.49,-1.3619412311706195e-06
4237.39,-1.3607820184317826e-06
4238.29,-1.3552658361865826e-06
4239.19,-1.3664283913445265e-06
4240.09,-1.3739042835874718e-06
4240.99,-1.396415393781313e-06
4241.89,-1.4070813008111981e-06
4242.79,-1.429143571699757e-06
4243.69,-1.4349122792052088e-06
4244.59,-1.44415493528989e-06
4245.5,-1.4395191763416942e-06
4246.4,-1.428926239083091e-06
4247.3,-1.4179151280943966e-06
4248.2,-1.3935871394555001e-06
4249.1,-1.3920778043189017e-06
4250.0,-1.3719952409915627e-06
4250.9,-1.3722691739239684e-06
4251.8,-1.3728077364160024e-06
4252.7,-1.3938737044612488e-06
4253.6,-1.3925729124301822e-06
4254.5,-1.4004888418204071e-06
4255.4,-1.410593881016812e-06
4256.3,-1.4069928767609598e-06
4257.2,-1.4203683407125022e-06
4258.1,-1.4181028913129067e-06
4259.0,-1.409237985826366e-06
4259.9,-1.4038326894374134e-06
4260.8,-1.3965850543042437e-06
4261.7,-1.3958907033804337e-06
4262.6,-1.4219436222917568e-06
4263.5,-1.4401671211167112e-06
4264.4,-1.4621016162756648e-06
4265.3,-1.4833612757904076e-06
4266.2,-1.4997671335071736e-06
4267.1,-1.4973675151706069e-06
4268.0,-1.4800207837690385e-06
4268.9,-1.4577275653665158e-06
4269.8,-1.4343961163417412e-06
4270.7,-1.3934571433453067e-06
4271.6,-1.3687462082044505e-06
4272.5,-1.3371544390413575e-06
4273.4,-1.3256910294739275e-06
4274.3,-1.3290690237121875e-06
4275.2,-1.3383959542147592e-06
