wave,flux
3700.85,0.012357330727647628
3701.75,0.012273343021502476
3702.65,0.01189911958453772
3703.55,0.011320174584083863
3704.45,0.010663811430843152
3705.35,0.010018497854808827
3706.25,0.009515189077178503
3707.15,0.009296715530893037
3708.05,0.009373431335001488
3708.96,0.009695440061695624
3709.86,0.010315438864038096
3710.76,0.011085541097196836
3711.66,0.012033425419214816
3712.56,0.013092652816077478
3713.46,0.01399035475141784
3714.36,0.014644633920477256
3715.26,0.015019808307750317
3716.16,0.014870844373413999
3717.06,0.014346293139157654
3717.96,0.013530367668043082
3718.86,0.012353224738423771
3719.76,0.011230695023342343
3720.66,0.01031282196977154
3721.56,0.009845031174523516
3722.46,0.009969514247022339
3723.36,0.010596557480420262
3724.26,0.011676567918361434
3725.16,0.012723844869965065
3726.06,0.013597566296846006
3726.96,0.014124623173950121
3727.86,0.014451948502663507
3728.76,0.014593868977374547
3729.66,0.014618518135062299
3730.56,0.01439973265896461
3731.46,0.013899970684236887
3732.36,0.01315924128889637
3733.26,0.012201303572608603
3734.16,0.011100200101571138
3735.06,0.010276465088742399
3735.96,0.009850686323662821
3736.86,0.010016555219212428
3737.76,0.010817620878845679
3738.66,0.012058351433730673
3739.56,0.013590841094438071
3740.46,0.014926518031544888
3741.36,0.015926226094510026
3742.26,0.01626009709130009
3743.16,0.016060407987472228
3744.06,0.015299533325242635
3744.96,0.014482362470953587
3745.86,0.013495689550046193
3746.76,0.012791975963026486
3747.67,0.012262583295948455
3748.57,0.012041052750477007
3749.47,0.012322447073087557
3750.37,0.013179223602727082
3751.27,0.01464604073167966
3752.17,0.01643721430268613
3753.07,0.018468722611370284
3753.97,0.020399017358114363
3754.87,0.021867390537611286
3755.77,0.022507122506688182
3756.67,0.022306112017159607
3757.57,0.021500439215473552
3758.47,0.02064265608911867
3759.37,0.01997162723034809
3760.27,0.019755183728726016
3761.17,0.020069057895921394
3762.07,0.02061925535232115
3762.97,0.021320375996424917
3763.87,0.021745305917636803
3764.77,0.02232543567826649
3765.67,0.02268028169270055
3766.57,0.02295919235378577
3767.47,0.023593443281352402
3768.37,0.024264700452372397
3769.27,0.02521900707319442
3770.17,0.026308849250600397
3771.07,0.02747860955376473
3771.97,0.02876627193722344
3772.87,0.030176372413783334
3773.77,0.031235040887147573
3774.67,0.03214313556138633
3775.57,0.0330700078136473
3776.47,0.033727642209614876
3777.37,0.03423318221713837
3778.27,0.03514442003670029
3779.17,0.0360336317089435
3780.07,0.037267335807307664
3780.97,0.038419661117288194
3781.87,0.03949014810292202
3782.77,0.040233954709137376
3783.67,0.04071408855920727
3784.57,0.040373890503895456
3785.47,0.03942925156152244
3786.38,0.03835025128196046
3787.28,0.03671242082904168
3788.18,0.03539328578445751
3789.08,0.03467638397008974
3789.98,0.03441038283998828
3790.88,0.034707581913992945
3791.78,0.03519509086227465
3792.68,0.03564637886095111
3793.58,0.035692605180900575
3794.48,0.035358861137740075
3795.38,0.0348643455260127
3796.28,0.034219510382057346
3797.18,0.03386317565888951
3798.08,0.033681756173384765
3798.98,0.03430591369510686
3799.88,0.035867104155201
3800.78,0.03825101061367193
3801.68,0.04126364416298705
3802.58,0.044677756513445875
3803.48,0.04790780522620639
3804.38,0.05005437312941581
3805.28,0.051564498879564206
3806.18,0.05219324720469146
3807.08,0.0525701458295321
3807.98,0.05285159693766543
3808.88,0.05365262359145239
3809.78,0.054852374503140636
3810.68,0.05556659695753455
3811.58,0.05578595629056743
3812.48,0.05479944337261886
3813.38,0.05293766582965391
3814.28,0.050841300090423314
3815.18,0.048652003114708235
3816.08,0.0472486923611662
3816.98,0.04662151958426827
3817.88,0.046221484191650425
3818.78,0.046165537931841166
3819.68,0.04581971367603865
3820.58,0.04528827152410233
3821.48,0.04479751934928286
3822.38,0.044687012754736126
3823.28,0.04457127961172067
3824.18,0.043938325649224355
3825.09,0.04305053323118759
3825.99,0.042062653980966126
3826.89,0.04122682852529592
3827.79,0.041054767023718054
3828.69,0.041417305963554925
3829.59,0.042475651270385155
3830.49,0.04311736444058749
3831.39,0.043357782311253215
3832.29,0.043273782107854326
3833.19,0.042949294944960664
3834.09,0.04303203015412327
3834.99,0.04347634716585148
3835.89,0.04449717609028463
3836.79,0.04547382730382822
3837.69,0.0463615252413978
3838.59,0.04719875162866456
3839.49,0.04860759920398408
3840.39,0.05097496647967013
3841.29,0.05495805118498119
3842.19,0.060558245612349855
3843.09,0.06693955448809992
3843.99,0.07344861337962265
3844.89,0.07887964384371499
3845.79,0.08301757887852422
3846.69,0.08652640036864195
3847.59,0.08848192087081433
3848.49,0.08955141975324504
3849.39,0.09018786940894456
3850.29,0.09044109571304865
3851.19,0.09132966893105293
3852.09,0.09246453643921294
3852.99,0.09304680363284328
3853.89,0.09374189412251907
3854.79,0.093684926393895
3855.69,0.09252213264717019
3856.59,0.0900284019860016
3857.49,0.08731523639448908
3858.39,0.08520738434669409
3859.29,0.08390326723929514
3860.19,0.084395033983885
3861.09,0.08739774716544915
3861.99,0.09326775917542732
3862.9,0.10055104192533316
3863.8,0.10756618820054634
3864.7,0.11342141720148438
3865.6,0.11732064419893946
3866.5,0.11938617847524985
3867.4,0.12020139859800376
3868.3,0.11990608736451555
3869.2,0.11857882115039936
3870.1,0.11726359004328857
3871.0,0.11541905043901297
3871.9,0.11398123191299067
3872.8,0.115272033067839
3873.7,0.118405107601706
3874.6,0.12310794000280408
3875.5,0.12875802476887627
3876.4,0.1326885433540776
3877.3,0.1346333711520551
3878.2,0.1340234094734028
3879.1,0.134419180079841
3880.0,0.13409039832569306
3880.9,0.13539996019772688
3881.8,0.13895911895688454
3882.7,0.14108643118699665
3883.6,0.14390977010195152
3884.5,0.14590792385596918
3885.4,0.1465467493598905
3886.3,0.1457353893702723
3887.2,0.1447001242918864
3888.1,0.1463850363348358
3889.0,0.1509233061724912
3889.9,0.1587775798517719
3890.8,0.16923737870575548
3891.7,0.18175593811739532
3892.6,0.1933272658822833
3893.5,0.2023216458028358
3894.4,0.20888460128132152
3895.3,0.21494621981808637
3896.2,0.21922334967846438
3897.1,0.22203768564664655
3898.0,0.22618089536985359
3898.9,0.22983380197558476
3899.8,0.23389322994107584
3900.7,0.23711806492061158
3901.6,0.24026860558622282
3902.51,0.24188408530735664
3903.41,0.24268458013707392
3904.31,0.24223471927451176
3905.21,0.2431272596542604
3906.11,0.24634567517797687
3907.01,0.25268837252260495
3907.91,0.26513423918408063
3908.81,0.2793927485646302
3909.71,0.2932192353959692
3910.61,0.30773808854112994
3911.51,0.32001435177135584
3912.41,0.3311550383683932
3913.31,0.337567144874388
3914.21,0.3403813717193123
3915.11,0.3430059170360107
3916.01,0.34158101755958464
3916.91,0.3388365424249993
3917.81,0.3354738232570913
3918.71,0.3276989297297215
3919.61,0.3197210726331651
3920.51,0.31229433674624146
3921.41,0.3033692873032093
3922.31,0.29980669495953577
3923.21,0.29792755299376844
3924.11,0.2986093274056432
3925.01,0.2953113708739646
3925.91,0.2897110446429122
3926.81,0.2777068695441627
3927.71,0.2587771238559755
3928.61,0.23690060832237037
3929.51,0.21187486994491417
3930.41,0.18731875862504008
3931.31,0.1641436551657993
3932.21,0.1453790713094531
3933.11,0.13141799606445287
3934.01,0.12427155470658463
3934.91,0.12541948074390638
3935.81,0.1351158403381501
3936.71,0.15338333528303358
3937.61,0.17839201119177647
3938.51,0.20969232481813518
3939.42,0.24110230286386572
3940.32,0.27170826795929265
3941.22,0.29779462269465873
3942.12,0.3186375130297619
3943.02,0.33996975153116354
3943.92,0.3544863742866469
3944.82,0.3751635581301729
3945.72,0.39638119479177014
3946.62,0.42097397316315893
3947.52,0.44897855166625333
3948.42,0.4723654237421845
3949.32,0.4958453075058605
3950.22,0.5131737903993453
3951.12,0.5326329289140814
3952.02,0.5455830875288465
3952.92,0.5555422005762807
3953.82,0.5668748547231023
3954.72,0.5727656490709859
3955.62,0.5745472179776931
3956.52,0.5733593007007252
3957.42,0.572579515434799
3958.32,0.5629213004601524
3959.22,0.5533500121858811
3960.12,0.5320775719076952
3961.02,0.5056836432763819
3961.92,0.47198036723522657
3962.82,0.4349028646974958
3963.72,0.3976608362077316
3964.62,0.36252887019685126
3965.52,0.32620902226289816
3966.42,0.294170555502803
3967.32,0.2616625108382067
3968.22,0.23586975498440382
3969.12,0.2219614105800329
3970.02,0.222356226195262
3970.92,0.24071478217893805
3971.82,0.2710633812172718
3972.72,0.31550528549054996
3973.62,0.3643167323073029
3974.52,0.41908425144043404
3975.42,0.47505109517022837
3976.32,0.5284944537302873
3977.22,0.5814566910967801
3978.13,0.6322283185535981
3979.03,0.6744664096485216
3979.93,0.7112516031879338
3980.83,0.7394991453199732
3981.73,0.7610065456455208
3982.63,0.772371408587314
3983.53,0.785336272726205
3984.43,0.798006932151817
3985.33,0.8077893039071217
3986.23,0.8268771356063582
3987.13,0.8377084227363414
3988.03,0.8528799943021856
3988.93,0.8675232557892333
3989.83,0.8831507274198183
3990.73,0.8939117313599179
3991.63,0.9063999558131148
3992.53,0.9150252483131185
3993.43,0.9201921886229618
3994.33,0.9215075725315476
3995.23,0.9227101088883166
3996.13,0.9087467763958318
3997.03,0.9050722220527815
3997.93,0.9082450554816223
3998.83,0.9145972445556735
3999.73,0.9272534979594564
4000.63,0.9483620560494304
4001.53,0.96515966721207
4002.43,0.9745835511996083
4003.33,0.9751115406473151
4004.23,0.969177136802714
4005.13,0.9533280709457026
4006.03,0.9349153829718007
4006.93,0.9323765343287574
4007.83,0.9354932129143532
4008.73,0.9507103962679191
4009.63,0.9747304414280106
4010.53,0.9966782669151449
4011.43,1.0152345937982503
4012.33,1.028701021438037
4013.23,1.0334084526401044
4014.13,1.0435674869789338
4015.03,1.0487867290822352
4015.93,1.0503669685560306
4016.84,1.0471821787497733
4017.74,1.0488864944943785
4018.64,1.048259900289783
4019.54,1.054993631925592
4020.44,1.0539414440748716
4021.34,1.060731323158068
4022.24,1.0593539158463192
4023.14,1.0572492355615262
4024.04,1.0571536072256613
4024.94,1.0564298010973912
4025.84,1.0652671067663924
4026.74,1.067066591813907
4027.64,1.0788096206393036
4028.54,1.0694588610778217
4029.44,1.05430084563958
4030.34,1.0262659679833923
4031.24,0.9910229152585213
4032.14,0.960085241504945
4033.04,0.9358032396268362
4033.94,0.9302679936657481
4034.84,0.9390753502889584
4035.74,0.9671089250816904
4036.64,1.003058547509878
4037.54,1.0455290446801833
4038.44,1.0725941886614418
4039.34,1.0895388780403894
4040.24,1.0972237991601395
4041.14,1.0876828037075845
4042.04,1.066390561234571
4042.94,1.0378730359826278
4043.84,0.9928680966990561
4044.74,0.9465864271398031
4045.64,0.915677222703422
4046.54,0.8944811378338469
4047.44,0.9014295659235037
4048.34,0.9322583807924324
4049.24,0.9673709852356002
4050.14,1.0093115528867238
4051.04,1.0398009913008932
4051.94,1.0510466636933724
4052.84,1.0550957986055738
4053.74,1.0485288138944413
4054.65,1.028485402026069
4055.55,1.016267955945427
4056.45,0.9991482295189585
4057.35,0.9882541068919571
4058.25,0.9822746496470945
4059.15,0.9809203732511321
4060.05,0.9785455845994402
4060.95,0.9717398445681189
4061.85,0.9611615257755617
4062.75,0.9391775802746506
4063.65,0.9217396653885237
4064.55,0.9071628485294227
4065.45,0.8996648844519758
4066.35,0.9111645390224392
4067.25,0.929205649881593
4068.15,0.9508670911472321
4069.05,0.9712073906531742
4069.95,0.9849287533114718
4070.85,0.9834650857604792
4071.75,0.9769876990899933
4072.65,0.9707074912816703
4073.55,0.9615276083569516
4074.45,0.9588291650944049
4075.35,0.9477758937500828
4076.25,0.93965408526645
4077.15,0.9270145742844674
4078.05,0.9229262029308761
4078.95,0.9280006922459283
4079.85,0.9487310450906422
4080.75,0.9767574547773469
4081.65,1.0020326874530063
4082.55,1.016439699646953
4083.45,1.030109701017817
4084.35,1.0353843836096102
4085.25,1.0437220061878978
4086.15,1.056015480302074
4087.05,1.069019231497108
4087.95,1.0916263076631068
4088.85,1.1114270234421648
4089.75,1.1243923584130118
4090.65,1.129015038140152
4091.55,1.1275535349890389
4092.45,1.1137563955060055
4093.36,1.1016833920054372
4094.26,1.0788357546766183
4095.16,1.0537113456008493
4096.06,1.0302412590915815
4096.96,1.004942953969961
4097.86,0.9732732483872927
4098.76,0.9462002914421355
4099.66,0.9194411756364825
4100.56,0.8892932977315035
4101.46,0.8652313408484251
4102.36,0.8558815060005514
4103.26,0.8624260003003034
4104.16,0.8768049662719494
4105.06,0.9037084344058675
4105.96,0.9392425947878822
4106.86,0.968284201306974
4107.76,0.9873896595521303
4108.66,1.0063143071767169
4109.56,1.0108986150639836
4110.46,1.0113360011092631
4111.36,1.0122302905872842
4112.26,1.015879211800346
4113.16,1.0230746926373906
4114.06,1.0392888766377033
4114.96,1.0444703954879915
4115.86,1.0544299920915245
4116.76,1.0590166531425447
4117.66,1.0490631556985797
4118.56,1.0466265516187176
4119.46,1.033541158612917
4120.36,1.0249731376937408
4121.26,1.0209182051193437
4122.16,1.0195230048706971
4123.06,1.0306481477254594
4123.96,1.0314829636002092
4124.86,1.0303081855775014
4125.76,1.0366295828658891
4126.66,1.0348687621006938
4127.56,1.027053068360831
4128.46,1.022245547027367
4129.36,1.0013584421094657
4130.26,0.9855035346818657
4131.17,0.9672907315418865
4132.06,0.9468986905454728
4132.97,0.9402372864016074
4133.87,0.9380744122218525
4134.77,0.9440126716354956
4135.67,0.9650840025152118
4136.57,0.9852884984712122
4137.47,1.011571535839649
4138.37,1.0318024224878508
4139.27,1.042728855948367
4140.17,1.041449171883153
4141.07,1.025939748802128
4141.97,1.002440321607163
4142.87,0.966463741914703
4143.77,0.9429807584846399
4144.67,0.9333127717583021
4145.57,0.9292832935028754
4146.47,0.944001394394286
4147.37,0.9597900841934176
4148.27,0.9813138827009541
4149.17,0.9897420890329823
4150.07,0.9962475123729604
4150.97,0.9922894849903838
4151.87,0.9855227732090706
4152.77,0.9844004988805215
4153.67,0.9759762466733054
4154.57,0.9700253822784372
4155.47,0.9729828049502435
4156.37,0.9755103033800177
4157.27,0.9828979988949973
4158.17,0.9944439546095266
4159.07,1.0150919780269683
4159.97,1.0302890967466511
4160.87,1.048946267534867
4161.77,1.0592348059919685
4162.67,1.0698031870533848
4163.57,1.0757922038923486
4164.47,1.074634453788052
4165.37,1.0647313306642658
4166.27,1.0565097223762225
4167.17,1.0443973677145713
4168.07,1.0325492296297114
4168.98,1.0237136725370815
4169.88,1.0105345652627131
4170.78,0.9974405336337205
4171.68,0.9838108499336131
4172.58,0.9652111336173154
4173.48,0.9462475410187854
4174.38,0.9347277763161369
4175.28,0.9382942974324063
4176.18,0.9411576323449644
4177.08,0.951223582477606
4177.98,0.964056913075938
4178.88,0.9751263178579432
4179.78,0.9871870545465691
4180.68,0.9926761025221044
4181.58,0.999508293208199
4182.48,1.0041227116699585
4183.38,1.0050904902607491
4184.28,1.0088250465359692
4185.18,1.0064114739502799
4186.08,1.0072096656572458
4186.98,0.9993521344351566
4187.88,0.9962219423017532
4188.78,0.9925541673759918
4189.68,0.9982687846332521
4190.58,1.0081918794879816
4191.48,1.0204501883347195
4192.38,1.0316456559151952
4193.28,1.0375682532226458
4194.18,1.0348068576676315
4195.08,1.036612898707874
4195.98,1.017619133578529
4196.88,0.9951091410417247
4197.78,0.970513855818886
4198.68,0.9522695777887278
4199.58,0.9408335471204404
4200.48,0.9305536572492779
4201.38,0.9324885751036057
4202.28,0.941077931320786
4203.18,0.9525514243810799
4204.08,0.9715029279464344
4204.98,0.9911879315884468
4205.88,1.0162014697969928
4206.79,1.0342073530109308
4207.69,1.0630391521278897
4208.59,1.0775483270574593
4209.49,1.0835822132602
4210.39,1.0906090805854882
4211.29,1.091856357664079
4212.19,1.091653538475102
4213.09,1.0805086779307493
4213.99,1.0645571210009162
4214.89,1.054918897874275
4215.79,1.0452671436370207
4216.69,1.0442913814060333
4217.59,1.0480167568303635
4218.49,1.0626076281531707
4219.39,1.0803727966624777
4220.29,1.0944261981510839
4221.19,1.091434464491744
4222.09,1.0809949755703518
4222.99,1.0442283726095105
4223.89,0.9990806487375795
4224.79,0.9396437643997052
4225.69,0.8851584711674287
4226.59,0.8366296209023825
4227.49,0.8223403447277801
4228.39,0.8356842755578824
4229.29,0.8704647201640692
4230.19,0.9165306159845521
4231.09,0.9682314958704141
4231.99,1.0055728845624443
4232.89,1.0264507057102552
4233.79,1.0366783037774725
4234.69,1.037249864413877
4235.59,1.024972582344353
4236.49,1.0156852401891687
4237.39,1.0119399420017825
4238.29,1.0116441327779138
4239.19,1.022270452071339
4240.09,1.0352575528388646
4240.99,1.0522462851712744
4241.89,1.075971692161809
4242.79,1.0951319645016173
4243.69,1.107628011955862
4244.59,1.1168307592826225
4245.5,1.118363369050195
4246.4,1.1095781246356247
4247.3,1.0936659529477923
4248.2,1.0691674060710104
4249.1,1.0422833639740707
4250.0,1.0178476443514062
4250.9,1.0026089273474066
4251.8,0.9984823435008128
4252.7,0.9953457578552772
4253.6,1.0071494848329712
4254.5,1.0110064443913866
4255.4,1.0150314917769299
4256.3,1.0228706889242685
4257.2,1.027868735946106
4258.1,1.0246491802531097
4259.0,1.0237854802174466
4259.9,1.0115186831621672
4260.8,1.009717490817219
4261.7,1.0120923395052766
4262.6,1.0286577997532576
4263.5,1.0542155335406467
4264.4,1.0852999360752387
4265.3,1.1103482710365615
4266.2,1.121266168305067
4267.1,1.1194279318539573
4268.0,1.1013879808569706
4268.9,1.0727966338939425
4269.8,1.029302149025766
4270.7,0.9860919540881994
4271.6,0.9427135340616692
4272.5,0.9128780918171551
4273.4,0.8913996575549723
4274.3,0.892095894194892
4275.2,0.9103891653027987
4276.1,0.9393866094090845
4277.0,0.9711544353538356
4277.9,1.0094010521889292
4278.8,1.03519554608448
4279.7,1.0509968540666845
4280.6,1.052657990678606
4281.5,1.0519508700913374
4282.4,1.046710821956005
4283.31,1.0355841946316486
4284.21,1.033484919418148
4285.11,1.0196457388586806
4286.01,1.003192159584221
4286.91,0.9892649574788472
4287.81,0.9695764439461105
4288.71,0.9507970003705208
4289.61,0.9317566986403962
4290.51,0.921533800846479
4291.41,0.9218180770281355
4292.31,0.9251392227430304
4293.21,0.9409977581761135
4294.11,0.9494704702309978
4295.01,0.950393500719542
4295.91,0.9464680676965216
4296.81,0.9231289380694117
4297.71,0.8948074268030953
4298.61,0.8544448710627366
4299.51,0.8217967345127203
4300.41,0.7851239301847303
4301.31,0.7577981767677947
4302.21,0.7429744794602705
4303.11,0.7376789064614234
4304.01,0.7340428128287834
4304.91,0.7318134277919672
4305.81,0.7245666444387134
4306.71,0.7182438095028523
4307.61,0.7093107661748482
4308.51,0.7028778389779112
4309.41,0.7008555702136686
4310.31,0.7104867441012074
4311.21,0.7341357138817114
4312.11,0.7723504957695412
4313.01,0.8218211442673556
4313.91,0.8856238030012603
4314.81,0.9497835565445993
4315.71,1.0227448304630558
4316.61,1.0922957966690259
4317.51,1.1437372945763045
4318.41,1.181935091965982
4319.31,1.2043975727116154
4320.21,1.1974768377770661
4321.12,1.177467187671287
4322.02,1.1376527722719958
4322.92,1.0879140942096295
4323.82,1.0354962285299238
4324.72,0.9887390667003857
4325.62,0.9568964644434841
4326.52,0.9442443424184688
4327.42,0.9583218159251622
4328.32,0.9969598479638458
4329.22,1.0440282890866404
4330.12,1.0876951815513136
4331.02,1.1247889278042067
4331.92,1.1549890723910916
4332.82,1.170255410691173
4333.72,1.1757856945109284
4334.62,1.1688785785525984
4335.52,1.1539414882057792
4336.42,1.1243483086001311
4337.32,1.077259305371202
4338.22,1.0336880139641331
4339.12,0.9842699510529017
4340.02,0.9486432840461637
4340.92,0.9247187252608461
4341.82,0.9237960355968751
4342.72,0.9415534004228555
4343.62,0.9747893401842894
4344.52,1.008344799056266
4345.42,1.0469331566290792
4346.32,1.0750601748752244
4347.22,1.1013339853385047
4348.12,1.1124298006139353
4349.02,1.1151941576905544
4349.92,1.1053151556001852
4350.82,1.085101704232857
4351.72,1.0663541141933799
4352.62,1.047068653277263
4353.52,1.0303241114123831
4354.42,1.0342870915352638
4355.32,1.0363234088832005
4356.22,1.0508413769476816
4357.12,1.0661338451192262
4358.02,1.0799694995968772
4358.92,1.0857638263615101
4359.83,1.0934060222245512
4360.73,1.1026778020648922
