wave,flux
3700.85,-0.00012165636637122833
3701.75,-0.00012083102286585112
3702.65,-0.0001180337740164614
3703.55,-0.00011341784911272415
3704.45,-0.00010918462836760189
3705.35,-0.00010498071457350628
3706.25,-0.00010269608058508996
3707.15,-0.00010273190707489095
3708.05,-0.00010331776776449482
3708.96,-0.00010563330891138582
3709.86,-0.00010884257271486955
3710.76,-0.00011154040714065747
3711.66,-0.00011588494557513518
3712.56,-0.00012047186326496481
3713.46,-0.00012467809695464492
3714.36,-0.00012970834017179343
3715.26,-0.00013343322706806858
3716.16,-0.00013563718264950062
3717.06,-0.00013482235770413822
3717.96,-0.00013110130786673458
3718.86,-0.00012593979934322387
3719.76,-0.00011869759595977776
3720.66,-0.00011169083895256249
3721.56,-0.00010753455151953695
3722.46,-0.00010626209874701723
3723.36,-0.0001093632852417905
3724.26,-0.0001153692076943743
3725.16,-0.00012267790250647409
3726.06,-0.00012892071544552406
3726.96,-0.00013300048295269333
3727.86,-0.0001357193971873979
3728.76,-0.00013684664780301757
3729.66,-0.00013672708816130566
3730.56,-0.00013586119334824823
3731.46,-0.00013221309300128064
3732.36,-0.00012624386303708744
3733.26,-0.00011815521213653572
3734.16,-0.00011119327241282102
3735.06,-0.00010601840237342826
3735.96,-0.00010417527931210537
3736.86,-0.0001066367473411065
3737.76,-0.0001122487586776045
3738.66,-0.00012069981324917303
3739.56,-0.00013024957277604738
3740.46,-0.00013849287267348888
3741.36,-0.0001439780628767574
3742.26,-0.00014704734679028863
3743.16,-0.0001464566537635961
3744.06,-0.0001431449697567861
3744.96,-0.00013871503422599888
3745.86,-0.00013311519888120458
3746.76,-0.00012751284574614468
3747.67,-0.00012206709386025293
3748.57,-0.00011720430177740898
3749.47,-0.00011533882232460962
3750.37,-0.00011635717710740906
3751.27,-0.00012278723739684468
3752.17,-0.00013222746506916114
3753.07,-0.00014336421362282935
3753.97,-0.00015555726577272445
3754.87,-0.00016446569813916465
3755.77,-0.00016995210709755477
3756.67,-0.00017052421168611522
3757.57,-0.0001681074600266094
3758.47,-0.00016372374112832874
3759.37,-0.00016090157148884997
3760.27,-0.0001604689324844532
3761.17,-0.00016189548056359235
3762.07,-0.00016517220338154823
3762.97,-0.00016932071162655216
3763.87,-0.0001725730572329809
3764.77,-0.00017505666330169963
3765.67,-0.00017527011251166076
3766.57,-0.00017507818789985998
3767.47,-0.00017319221572907766
3768.37,-0.00017028279286856687
3769.27,-0.00016826443674662517
3770.17,-0.00016737730918006384
3771.07,-0.00016926937246283523
3771.97,-0.00017253386309552446
3772.87,-0.00017786732857644208
3773.77,-0.00018475924489749125
3774.67,-0.00019191038515752943
3775.57,-0.00019763738377525278
3776.47,-0.0002039716014149282
3777.37,-0.00020801162896314708
3778.27,-0.0002139982228326083
3779.17,-0.00021909056356627686
3780.07,-0.0002244146026385721
3780.97,-0.00022954902075512072
3781.87,-0.00023412047843677735
3782.77,-0.00023688947106240987
3783.67,-0.0002374387894656633
3784.57,-0.00023660038858975912
3785.47,-0.00023223029256986074
3786.38,-0.0002276461920887435
3787.28,-0.0002229646399485961
3788.18,-0.00021952734058215017
3789.08,-0.0002161965476430931
3789.98,-0.00021506367762273032
3790.88,-0.00021512882888728087
3791.78,-0.00021511403022332368
3792.68,-0.00021274333624899465
3793.58,-0.00021014389808464968
3794.48,-0.00020594814501322264
3795.38,-0.00019914451360221146
3796.28,-0.0001918137827758715
3797.18,-0.00018629972307946944
3798.08,-0.00018217802501133883
3798.98,-0.00018342269126884138
3799.88,-0.00019024706325347312
3800.78,-0.00020073616463736456
3801.68,-0.0002154125146024135
3802.58,-0.00022996840293114065
3803.48,-0.00024339830765157623
3804.38,-0.0002524316548759231
3805.28,-0.0002585000077360382
3806.18,-0.00026150541453919245
3807.08,-0.00026387599221145704
3807.98,-0.00026543514192972303
3808.88,-0.00026972670927302814
3809.78,-0.00027142194885268863
3810.68,-0.0002741754536049464
3811.58,-0.00027520375462898383
3812.48,-0.00026973442761838405
3813.38,-0.0002644561301679128
3814.28,-0.0002592344080921789
3815.18,-0.00025379309022102546
3816.08,-0.0002513204392967917
3816.98,-0.0002505678589732474
3817.88,-0.00025253335036672954
3818.78,-0.0002530071797203257
3819.68,-0.00025306981645680296
3820.58,-0.0002511554269237809
3821.48,-0.0002504028465266049
3822.38,-0.0002501247577583399
3823.28,-0.0002477969688761694
3824.18,-0.0002459500858296243
3825.09,-0.0002412550612687786
3825.99,-0.00023750556959051386
3826.89,-0.00023296381316216912
3827.79,-0.0002300884883050786
3828.69,-0.00022875687850946062
3829.59,-0.00022799145761988313
3830.49,-0.00022483237604930132
3831.39,-0.00022080951674600266
3832.29,-0.00021231004037318183
3833.19,-0.0002055492362181246
3834.09,-0.0001981243533444268
3834.99,-0.0001933315707500831
3835.89,-0.0001918743248764378
3836.79,-0.00019250080191981844
3837.69,-0.0001976747793684708
3838.59,-0.00020499752590656878
3839.49,-0.00021464527816486445
3840.39,-0.00022674121988821246
3841.29,-0.00024185430718680998
3842.19,-0.0002575388071568456
3843.09,-0.00027431726105686286
3843.99,-0.00029111064220825947
3844.89,-0.0003049023459774286
3845.79,-0.00031566164520307886
3846.69,-0.0003238623343051332
3847.59,-0.00032935487690849565
3848.49,-0.0003336030339538796
3849.39,-0.00033498155889500643
3850.29,-0.00033806550750628675
3851.19,-0.0003396179784100857
3852.09,-0.00034278810801737213
3852.99,-0.0003457441473095781
3853.89,-0.0003489881035034406
3854.79,-0.0003490964874218311
3855.69,-0.0003462384492150576
3856.59,-0.0003414374294705028
3857.49,-0.0003345932978988572
3858.39,-0.00033058055597101616
3859.29,-0.00032519383323994085
3860.19,-0.0003268519858646648
3861.09,-0.00033160297450125016
3861.99,-0.0003422758402683189
3862.9,-0.0003538275983532202
3863.8,-0.0003655496045049671
3864.7,-0.0003754181215040432
3865.6,-0.0003823827842740988
3866.5,-0.0003854410289995136
3867.4,-0.00038739833686837765
3868.3,-0.0003879226607606957
3869.2,-0.0003879579025581512
3870.1,-0.0003844759795267476
3871.0,-0.0003788126233484276
3871.9,-0.000370906086740494
3872.8,-0.00036517746957811045
3873.7,-0.0003625120420482602
3874.6,-0.0003643161757314323
3875.5,-0.00036781933277278196
3876.4,-0.00037183405841610694
3877.3,-0.00037277450441639405
3878.2,-0.0003739716421970609
3879.1,-0.0003739600243471826
3880.0,-0.00037655713367240753
3880.9,-0.0003785475349566367
3881.8,-0.0003816258643708767
3882.7,-0.00038216939383070467
3883.6,-0.00037901922629109515
3884.5,-0.00037293870660985647
3885.4,-0.0003629106627725554
3886.3,-0.00034954208357153055
3887.2,-0.00033549179972737936
3888.1,-0.0003258577307332348
3889.0,-0.00032060825944320813
3889.9,-0.00032205944434223626
3890.8,-0.00033249713935433277
3891.7,-0.0003464863135068686
3892.6,-0.00036541006470378485
3893.5,-0.0003821119678984207
3894.4,-0.00039487271952784973
3895.3,-0.0004059685485169392
3896.2,-0.0004166357740672733
3897.1,-0.00042327541957240886
3898.0,-0.0004312039713930175
3898.9,-0.0004356389621257623
3899.8,-0.0004408205934390972
3900.7,-0.00044575387192995804
3901.6,-0.00044965878544901716
3902.51,-0.0004541359896720837
3903.41,-0.00045464044250577814
3904.31,-0.00045361992156655706
3905.21,-0.00045232959231438126
3906.11,-0.0004556474145077786
3907.01,-0.00046130770180948346
3907.91,-0.00047227263727152107
3908.81,-0.00048557289539075913
3909.71,-0.0004998656398368114
3910.61,-0.0005137441117251857
3911.51,-0.0005248770928583884
3912.41,-0.0005323182656024215
3913.31,-0.0005347129409452597
3914.21,-0.0005362455451011064
3915.11,-0.0005338053287214188
3916.01,-0.0005290909835448292
3916.91,-0.0005243040912191419
3917.81,-0.000521102250839905
3918.71,-0.0005135751971016285
3919.61,-0.0005087951975055184
3920.51,-0.0005016460035945354
3921.41,-0.0004963317159182517
3922.31,-0.0004936037466869944
3923.21,-0.0004940937051422613
3924.11,-0.0004910811725890533
3925.01,-0.00048401582395286966
3925.91,-0.00047086458726
3926.81,-0.00045320840860079125
3927.71,-0.00042526331944128354
3928.61,-0.0003894820428042844
3929.51,-0.00035150158967840175
3930.41,-0.0003099579689654113
3931.31,-0.00026908335976218037
3932.21,-0.00023109552031222265
3933.11,-0.00020188773342675708
3934.01,-0.00018574042153061363
3934.91,-0.00018486130616244252
3935.81,-0.0002003384995567452
3936.71,-0.00023097671922384702
3937.61,-0.00027225052512990487
3938.51,-0.00032075166585078497
3939.42,-0.0003688416421812867
3940.32,-0.000414829970056225
3941.22,-0.00045379911775566954
3942.12,-0.0004837459885238475
3943.02,-0.0005083108844267624
3943.92,-0.0005288936413583091
3944.82,-0.000548996994091217
3945.72,-0.0005667700305098898
3946.62,-0.0005868770898794099
3947.52,-0.0006059983507019437
3948.42,-0.0006207317712477325
3949.32,-0.0006318143906025374
3950.22,-0.0006467673919513874
3951.12,-0.0006576924677850916
3952.02,-0.000666142273008477
3952.92,-0.0006740448399198969
3953.82,-0.0006831227610981095
3954.72,-0.0006867180636522997
3955.62,-0.0006877243620412127
3956.52,-0.0006903142313421272
3957.42,-0.0006900532134690051
3958.32,-0.0006848383266192985
3959.22,-0.0006806327082252625
3960.12,-0.0006659757865875054
3961.02,-0.0006502248668877002
3961.92,-0.0006230337565147529
3962.82,-0.0005912525112229381
3963.72,-0.0005467854943679908
3964.62,-0.000502653049028832
3965.52,-0.0004509959466789541
3966.42,-0.0003997303345423693
3967.32,-0.0003466596037232074
3968.22,-0.00030693400935374686
3969.12,-0.0002831653535355762
3970.02,-0.00028085664855270667
3970.92,-0.0003005825076497006
3971.82,-0.00034031752782718417
3972.72,-0.0003955661342193112
3973.62,-0.0004596005228930838
3974.52,-0.0005246117927535883
3975.42,-0.0005870168055572538
3976.32,-0.0006465370102773694
3977.22,-0.0006974409413022836
3978.13,-0.0007433648847709814
3979.03,-0.0007799752934200269
3979.93,-0.000811144839376693
3980.83,-0.0008400822096636457
3981.73,-0.0008567295098587956
3982.63,-0.0008687545175650603
3983.53,-0.0008789272043126195
3984.43,-0.0008928106424249009
3985.33,-0.0009041549031311928
3986.23,-0.0009208607094202209
3987.13,-0.0009344948784148067
3988.03,-0.0009520296928059407
3988.93,-0.0009656503741401207
3989.83,-0.000979412557011185
3990.73,-0.000994357519890012
3991.63,-0.0010048335073854454
3992.53,-0.0010207310808428396
3993.43,-0.0010264205940338827
3994.33,-0.001027711214097354
3995.23,-0.0010266648377433851
3996.13,-0.0010243168984947508
3997.03,-0.0010211576467702302
3997.93,-0.0010190155840165906
3998.83,-0.0010337433761865686
3999.73,-0.0010439561336594086
4000.63,-0.0010672481003523727
4001.53,-0.0010855426638055193
4002.43,-0.0011005848938824166
4003.33,-0.0011116504519670094
4004.23,-0.0011099172399793346
4005.13,-0.0011087885868098267
4006.03,-0.0011061998096931972
4006.93,-0.001111283864168407
4007.83,-0.0011175080558774144
4008.73,-0.0011362318326391633
4009.63,-0.0011618694078568133
4010.53,-0.0011813012079354885
4011.43,-0.0011999927471749608
4012.33,-0.001207376270026696
4013.23,-0.0012217000421245524
4014.13,-0.0012324748019357657
4015.03,-0.0012423029142551601
4015.93,-0.0012549723538185767
4016.84,-0.0012562903007586445
4017.74,-0.001270591537253755
4018.64,-0.0012810172353144896
4019.54,-0.001296387210931548
4020.44,-0.0013058058457690444
4021.34,-0.0013090847068673206
4022.24,-0.001325629400285033
4023.14,-0.0013305080493754044
4024.04,-0.0013342169656095151
4024.94,-0.0013530066658587801
4025.84,-0.0013614042097655783
4026.74,-0.0013788195859776693
4027.64,-0.0013875422089216286
4028.54,-0.0013907096658959265
4029.44,-0.0013869765699953045
4030.34,-0.0013714581327811742
4031.24,-0.0013587650711253815
4032.14,-0.0013457745622842186
4033.04,-0.0013417196346555609
4033.94,-0.001348882508597307
4034.84,-0.0013703598906531797
4035.74,-0.00140438872731571
4036.64,-0.0014443339064414136
4037.54,-0.001492545976789593
4038.44,-0.0015312711007782428
4039.34,-0.00154781667413847
4040.24,-0.0015671211598230928
4041.14,-0.0015704797748381473
4042.04,-0.0015592389080019099
4042.94,-0.001545456420089817
4043.84,-0.0015239928815299333
4044.74,-0.0015007115945005862
4045.64,-0.0014833573242017848
4046.54,-0.0014735386108669652
4047.44,-0.0014928286472414517
4048.34,-0.0015251112573823108
4049.24,-0.0015702307359888104
4050.14,-0.0016171789781756376
4051.04,-0.0016461969596273064
4051.94,-0.001671082266012384
4052.84,-0.0016845680999597764
4053.74,-0.0016960822777477892
4054.65,-0.0016962426459769886
4055.55,-0.0017028272944147756
4056.45,-0.001703121891895767
4057.35,-0.0017067529619940998
4058.25,-0.001717485744904182
4059.15,-0.0017265730509540879
4060.05,-0.0017460434021633522
4060.95,-0.001753289728619131
4061.85,-0.0017563950385405382
4062.75,-0.0017489272071606052
4063.65,-0.0017345176741249432
4064.55,-0.0017269310763448084
4065.45,-0.0017245021733443776
4066.35,-0.0017514218229526186
4067.25,-0.0017709172229007932
4068.15,-0.001805108711136646
4069.05,-0.00184225272878297
4069.95,-0.001869680523558141
4070.85,-0.0018882759474060729
4071.75,-0.0018992503385110043
4072.65,-0.0019064709989170888
4073.55,-0.0019024507233254377
4074.45,-0.0019070805474388482
4075.35,-0.001904800739386458
4076.25,-0.0018882106337414363
4077.15,-0.001871409071772282
4078.05,-0.0018702642731593187
4078.95,-0.0018879696405898214
4079.85,-0.0019185312645601878
4080.75,-0.0019672669438449593
4081.65,-0.002016397131452149
4082.55,-0.002055797822957582
4083.45,-0.0021015949304056454
4084.35,-0.00213138968073579
4085.25,-0.0021578481658003513
4086.15,-0.0021916503129488815
4087.05,-0.0022227959244959924
4087.95,-0.0022678154998462224
4088.85,-0.002320937834532471
4089.75,-0.002354434819691952
4090.65,-0.0023883114752876362
4091.55,-0.002396844837440695
4092.45,-0.0023982109685346032
4093.36,-0.002386275865756236
4094.26,-0.0023775725567140435
4095.16,-0.002366109896668573
4096.06,-0.002332310926450568
4096.96,-0.002291933353816151
4097.86,-0.0022495130728325007
4098.76,-0.0022015426094347274
4099.66,-0.002121201873033223
4100.56,-0.0020429871416671862
4101.46,-0.0019856951771208497
4102.36,-0.001964333966002667
4103.26,-0.001973917406716674
4104.16,-0.002029491349247088
4105.06,-0.002124242926829454
4105.96,-0.0022313196325476326
4106.86,-0.002331800769999184
4107.76,-0.002419797562942107
4108.66,-0.002481733753885351
4109.56,-0.002540819277150882
4110.46,-0.0025785957791057148
4111.36,-0.002623397933307337
4112.26,-0.002663213330003972
4113.16,-0.002707115723751966
4114.06,-0.002762905754416536
4114.96,-0.002802297579779709
4115.86,-0.0028363079226217066
4116.76,-0.0028752812630328454
4117.66,-0.0028813263803689963
4118.56,-0.0028938763252505852
4119.46,-0.0028887346267561
4120.36,-0.002890323129974056
4121.26,-0.002891798860259734
4122.16,-0.002921649048978986
4123.06,-0.0029586064286377376
4123.96,-0.0029827372358301606
4124.86,-0.0030215024502125076
4125.76,-0.003050510820212469
4126.66,-0.0030847911493656066
4127.56,-0.0031064248166064123
4128.46,-0.0031005859970142016
4129.36,-0.0031129755632590917
4130.26,-0.0031095235486634726
4131.17,-0.0030948153656187144
4132.06,-0.0030994024132384047
4132.97,-0.0030937669703087417
4133.87,-0.0031215214411840775
4134.77,-0.0031467144096994195
4135.67,-0.0032156074897436732
4136.57,-0.0032816739207044213
4137.47,-0.0033545527471709733
4138.37,-0.003436794727665691
4139.27,-0.0034974619991080956
4140.17,-0.0035064114921558665
4141.07,-0.003513567706946471
4141.97,-0.0034962310602334296
4142.87,-0.0034536594817695956
4143.77,-0.0034524989885075814
4144.67,-0.0034335786341300467
4145.57,-0.003471869654311783
4146.47,-0.0035433167473412353
4147.37,-0.0035971567957496006
4148.27,-0.003658560194221588
4149.17,-0.003712261166524051
4150.07,-0.0037497266625525732
4150.97,-0.003761014604872879
4151.87,-0.0037873117129102016
4152.77,-0.0038078072612438077
4153.67,-0.0038198195924901315
4154.57,-0.0038460190832813063
4155.47,-0.003843221892155411
4156.37,-0.0039024601809425426
4157.27,-0.003936593473069157
4158.17,-0.003998923639942624
4159.07,-0.0040548513994866624
4159.97,-0.004129422082783181
4160.87,-0.004190585374884846
4161.77,-0.004261518209081111
4162.67,-0.004310293870883591
4163.57,-0.004348316214540139
4164.47,-0.0043826293063922725
4165.37,-0.004415306000967138
4166.27,-0.004438445703900851
4167.17,-0.004454017861090884
4168.07,-0.004461618328307557
4168.98,-0.004444684331318902
4169.88,-0.00444959959867306
4170.78,-0.004434825380966267
4171.68,-0.004409047492380775
4172.58,-0.004376620791882816
4173.48,-0.0043385542974819
4174.38,-0.004325194919498464
4175.28,-0.004370699025643659
4176.18,-0.00442455839104291
4177.08,-0.004521784317049477
4177.98,-0.0045893502451516376
4178.88,-0.004666051809900846
4179.78,-0.0047501324741916874
4180.68,-0.004830850263120399
4181.58,-0.004895614142075479
4182.48,-0.004934450536632797
4183.38,-0.004987614946673588
4184.28,-0.00500577472886736
4185.18,-0.005043570535720528
4186.08,-0.005083262931341973
4186.98,-0.005114136806820379
4187.88,-0.005125656207539589
4188.78,-0.005140542677945678
4189.68,-0.005210494102159394
4190.58,-0.005266392873590827
4191.48,-0.005348871033377079
4192.38,-0.005432953978208387
4193.28,-0.005517835621484209
4194.18,-0.005587000896743059
4195.08,-0.005596286028896216
4195.98,-0.005615082754791087
4196.88,-0.005580769958772443
4197.78,-0.0055559847177160835
4198.68,-0.005537469929807073
4199.58,-0.005508912361170674
4200.48,-0.005513673465863061
4201.38,-0.005530755635041863
4202.28,-0.005588817040392229
4203.18,-0.005677324360116745
4204.08,-0.005747968461068095
4204.98,-0.005857181078379394
4205.88,-0.005975675824426887
4206.79,-0.006080966775554293
4207.69,-0.006172204809638767
4208.59,-0.006291470051488645
4209.49,-0.006385290424060615
4210.39,-0.006486816969977999
4211.29,-0.006555903003053685
4212.19,-0.006570881863458292
4213.09,-0.006614393927279782
4213.99,-0.006619914752982313
4214.89,-0.0066149568300319745
4215.79,-0.006625586228371335
4216.69,-0.00664047782104155
4217.59,-0.006708433285624019
4218.49,-0.006780648582138199
4219.39,-0.006896135880204059
4220.29,-0.007015320223707798
4221.19,-0.007098696491471999
4222.09,-0.007102864940575501
4222.99,-0.007043710329191328
4223.89,-0.006953197387792973
4224.79,-0.006823084243653275
4225.69,-0.006614813394698776
4226.59,-0.00652790166404548
4227.49,-0.006507079995439925
4228.39,-0.006608801274164994
4229.29,-0.006823816157451452
4230.19,-0.007096245328225329
4231.09,-0.007356362599223623
4231.99,-0.0075515420021047405
4232.89,-0.007699757083520812
4233.79,-0.007817198009166321
4234.69,-0.007868232745970616
4235.59,-0.007845318464440566
4236.49,-0.007931482931151179
4237.39,-0.007951409551133468
4238.29,-0.007986859415237382
4239.19,-0.008141311918307258
4240.09,-0.008261291398499241
4240.99,-0.008428120945070335
4241.89,-0.00857979209887394
4242.79,-0.008727390647768419
4243.69,-0.008870781935702413
4244.59,-0.00895302101521171
4245.5,-0.008971971540645851
4246.4,-0.009003080986455789
4247.3,-0.008979974022290449
4248.2,-0.008952118145870172
4249.1,-0.008970769165124947
4250.0,-0.008985349821685919
4250.9,-0.009041331669368415
4251.8,-0.009131115345034172
4252.7,-0.009228739238664636
4253.6,-0.00940438377443229
4254.5,-0.00955720409235394
4255.4,-0.009657950129459221
4256.3,-0.009764926516730497
4257.2,-0.00985631804865545
4258.1,-0.009957458478786973
4259.0,-0.010017620862079581
4259.9,-0.010054568233377872
4260.8,-0.01012804246617524
4261.7,-0.010223003489457368
4262.6,-0.010406373106553204
4263.5,-0.010601089782144118
4264.4,-0.010821712835359563
4265.3,-0.011073352973818612
4266.2,-0.011228155523069666
4267.1,-0.01137542516151231
4268.0,-0.011355392016252523
4268.9,-0.011277254791701462
4269.8,-0.01120615086033335
4270.7,-0.011021058010474849
4271.6,-0.010925130563246684
4272.5,-0.010824245020167773
4273.4,-0.010808611633558863
4274.3,-0.010934119977069697
4275.2,-0.011131728171498996
4276.1,-0.011427579782849686
4277.0,-0.011685656810655504
4277.9,-0.011976117358733772
4278.8,-0.01226862277826881
4279.7,-0.012444918483547321
4280.6,-0.01255226652561761
4281.5,-0.01267446904638799
4282.4,-0.012718063557137909
4283.31,-0.012762207254294786
4284.21,-0.012817683819364937
