wave,flux
3700.85,-4.7998915469718584e-05
3701.75,-4.7830162202783914e-05
3702.65,-4.685715116355387e-05
3703.55,-4.5412552833923284e-05
3704.45,-4.3949674553590525e-05
3705.35,-4.2878839689002864e-05
3706.25,-4.231531320091e-05
3707.15,-4.268634926806425e-05
3708.05,-4.33265573101361e-05
3708.96,-4.3991001531759426e-05
3709.86,-4.4609456433633855e-05
3710.76,-4.496368300769535e-05
3711.66,-4.575994747335037e-05
3712.56,-4.685931028444442e-05
3713.46,-4.862746715804345e-05
3714.36,-5.0469394017736916e-05
3715.26,-5.250801710632804e-05
3716.16,-5.4041101483127525e-05
3717.06,-5.475702617078462e-05
3717.96,-5.427191499254475e-05
3718.86,-5.257827626093797e-05
3719.76,-4.995867066521425e-05
3720.66,-4.7242456515419474e-05
3721.56,-4.534397903505746e-05
3722.46,-4.4421619300064024e-05
3723.36,-4.537523346953104e-05
3724.26,-4.757380415695828e-05
3725.16,-5.0542588617103455e-05
3726.06,-5.3599840968128034e-05
3726.96,-5.611657542290077e-05
3727.86,-5.756585508975721e-05
3728.76,-5.845568256306179e-05
3729.66,-5.845736212941637e-05
3730.56,-5.744307156415794e-05
3731.46,-5.507970416802669e-05
3732.36,-5.205472578123267e-05
3733.26,-4.8604291767551435e-05
3734.16,-4.549131442557864e-05
3735.06,-4.3797604921116475e-05
3735.96,-4.397787717160621e-05
3736.86,-4.555075897931115e-05
3737.76,-4.8974146900614254e-05
3738.66,-5.347182677264159e-05
3739.56,-5.827822763835814e-05
3740.46,-6.219922480742641e-05
3741.36,-6.52316635943674e-05
3742.26,-6.647156585460413e-05
3743.16,-6.624275265077706e-05
3744.06,-6.518142094991552e-05
3744.96,-6.312738598836782e-05
3745.86,-6.064762172934847e-05
3746.76,-5.723821485536806e-05
3747.67,-5.3741671785116975e-05
3748.57,-5.065034388573427e-05
3749.47,-4.834878145438904e-05
3750.37,-4.7574826588822273e-05
3751.27,-4.906578802707649e-05
3752.17,-5.2785251980583924e-05
3753.07,-5.751093101936569e-05
3753.97,-6.282733970633854e-05
3754.87,-6.76961246275092e-05
3755.77,-7.126367274231707e-05
3756.67,-7.393246140766365e-05
3757.57,-7.487727508120785e-05
3758.47,-7.543505994545539e-05
3759.37,-7.515806701264144e-05
3760.27,-7.542361703722013e-05
3761.17,-7.615591391662426e-05
3762.07,-7.749858329209413e-05
3762.97,-7.795152362040716e-05
3763.87,-7.813153090120649e-05
3764.77,-7.766476729787546e-05
3765.67,-7.654133742062426e-05
3766.57,-7.37576590986537e-05
3767.47,-7.119184308670989e-05
3768.37,-6.734786709082002e-05
3769.27,-6.448677160629484e-05
3770.17,-6.199914962712936e-05
3771.07,-6.120703889228998e-05
3771.97,-6.223017929522533e-05
3772.87,-6.516565835971061e-05
3773.77,-6.882309350360491e-05
3774.67,-7.340750910416792e-05
3775.57,-7.85708368229547e-05
3776.47,-8.30731715062099e-05
3777.37,-8.784695351359973e-05
3778.27,-9.23188173298803e-05
3779.17,-9.670584177180397e-05
3780.07,-0.00010044478962252125
3780.97,-0.00010393063393617836
3781.87,-0.00010672271106834376
3782.77,-0.00010854678142909327
3783.67,-0.00010990216205529622
3784.57,-0.00010973230634538012
3785.47,-0.00010904572966413204
3786.38,-0.00010745240309593536
3787.28,-0.00010556354725552336
3788.18,-0.00010286809455027205
3789.08,-0.00010079428659679404
3789.98,-9.837640948670593e-05
3790.88,-9.683510161775813e-05
3791.78,-9.455151507840682e-05
3792.68,-9.125094208319971e-05
3793.58,-8.764914744369302e-05
3794.48,-8.312366179334633e-05
3795.38,-7.769722689372031e-05
3796.28,-7.231882240759582e-05
3797.18,-6.854382884925049e-05
3798.08,-6.613262926381037e-05
3798.98,-6.602871776081442e-05
3799.88,-6.867537648656037e-05
3800.78,-7.414026593872e-05
3801.68,-8.142275538390897e-05
3802.58,-8.858654291630411e-05
3803.48,-9.578667816897903e-05
3804.38,-0.00010246393258252154
3805.28,-0.00010756833915574988
3806.18,-0.00011225521822389623
3807.08,-0.00011546539515217328
3807.98,-0.00011951070141296504
3808.88,-0.0001234003482254428
3809.78,-0.0001272000011454531
3810.68,-0.00012994508821947683
3811.58,-0.00013189515523252674
3812.48,-0.00013256819833174015
3813.38,-0.0001319175629023421
3814.28,-0.00013152903538278212
3815.18,-0.00013119499132231377
3816.08,-0.00013072110135978882
3816.98,-0.00013243373345564593
3817.88,-0.00013367710112079375
3818.78,-0.00013512888195862843
3819.68,-0.00013534191637566513
3820.58,-0.00013510737555490692
3821.48,-0.00013370343551602864
3822.38,-0.0001321614422782213
3823.28,-0.00013080341032646495
3824.18,-0.00012789145043875518
3825.09,-0.0001254766834811582
3825.99,-0.00012170771600423742
3826.89,-0.00011820742634200695
3827.79,-0.0001156652941723181
3828.69,-0.0001120409791355523
3829.59,-0.00010847095919941428
3830.49,-0.00010449241023848892
3831.39,-9.928266416374894e-05
3832.29,-9.351779016413128e-05
3833.19,-8.722063571253609e-05
3834.09,-8.17686935852556e-05
3834.99,-7.775009570059834e-05
3835.89,-7.53482541766003e-05
3836.79,-7.617266909205731e-05
3837.69,-7.906996365090321e-05
3838.59,-8.434775867777474e-05
3839.49,-9.104379539342127e-05
3840.39,-9.956543002625806e-05
3841.29,-0.0001081206644854121
3842.19,-0.00011690019974019182
3843.09,-0.00012569959223590905
3843.99,-0.00013363800189743164
3844.89,-0.00014087985872589451
3845.79,-0.0001471906344985321
3846.69,-0.00015288483468951433
3847.59,-0.0001580482993327934
3848.49,-0.00016268267080059217
3849.39,-0.00016683303311397773
3850.29,-0.0001704802024917967
3851.19,-0.00017486384572418476
3852.09,-0.00017765077648524086
3852.99,-0.00018123871165261958
3853.89,-0.00018384858752923083
3854.79,-0.00018623626166930528
3855.69,-0.00018670982879491352
3856.59,-0.0001873761536841395
3857.49,-0.00018677063811995285
3858.39,-0.0001865883218601533
3859.29,-0.0001883663118050978
3860.19,-0.00019018222105003847
3861.09,-0.00019259487197262505
3861.99,-0.00019614036565487148
3862.9,-0.00020029690274273203
3863.8,-0.00020262543076604065
3864.7,-0.00020478425610006085
3865.6,-0.00020653122337257554
3866.5,-0.0002077631188501736
3867.4,-0.00020901535342117216
3868.3,-0.00021014228372145827
3869.2,-0.00020929551619845846
3870.1,-0.00020929436545267626
3871.0,-0.000207804029923723
3871.9,-0.00020575688189892016
3872.8,-0.00020389384241159637
3873.7,-0.00020269591713144568
3874.6,-0.00020155497812725804
3875.5,-0.0002004212490066026
3876.4,-0.0001984128456170343
3877.3,-0.00019581084580533092
3878.2,-0.00019285106939193945
3879.1,-0.0001893457022115356
3880.0,-0.000185900279433751
3880.9,-0.00018326553681962963
3881.8,-0.00017980275813398122
3882.7,-0.0001758039852757069
3883.6,-0.0001698430808366699
3884.5,-0.00016231744274096925
3885.4,-0.0001542287824448066
3886.3,-0.00014401784549541866
3887.2,-0.00013515042696296662
3888.1,-0.00012705743088862074
3889.0,-0.00012227019377020863
3889.9,-0.00012129639225706067
3890.8,-0.00012539053644096916
3891.7,-0.00013245002710035096
3892.6,-0.00014306141218746425
3893.5,-0.0001545342114137824
3894.4,-0.00016540398349333842
3895.3,-0.00017407630191940802
3896.2,-0.00018297331824967895
3897.1,-0.00019094815097393225
3898.0,-0.00019862843716825766
3898.9,-0.00020603791952400054
3899.8,-0.00021246050253124202
3900.7,-0.00021875733341053836
3901.6,-0.000224266650333813
3902.51,-0.00022978745458675457
3903.41,-0.00023425998044138537
3904.31,-0.00023924990771578229
3905.21,-0.00024162367011671196
3906.11,-0.00024523586356068385
3907.01,-0.0002503248073146985
3907.91,-0.00025710292412411273
3908.81,-0.0002646423356657029
3909.71,-0.00027188299243566797
3910.61,-0.0002803105273353026
3911.51,-0.00028488621403607156
3912.41,-0.0002900205312578234
3913.31,-0.0002915254420789766
3914.21,-0.0002923737441120385
3915.11,-0.00029320717205284634
3916.01,-0.0002937790238467138
3916.91,-0.0002942994871952097
3917.81,-0.0002939200905801266
3918.71,-0.0002952494482002407
3919.61,-0.0002960141290929418
3920.51,-0.00029669459026028375
3921.41,-0.00029893932433415883
3922.31,-0.00030077391284881
3923.21,-0.0003010895474173694
3924.11,-0.0003041351882650197
3925.01,-0.000304421729061948
3925.91,-0.00030146247625461014
3926.81,-0.00029706768964518686
3927.71,-0.0002887136537003619
3928.61,-0.0002758852452928184
3929.51,-0.00026264611442479105
3930.41,-0.0002430923257483022
3931.31,-0.0002245155090333924
3932.21,-0.00020549301779252427
3933.11,-0.0001883867843427277
3934.01,-0.00017847883566378378
3934.91,-0.00017726020695397115
3935.81,-0.00018596448070210564
3936.71,-0.00020204474642513057
3937.61,-0.00022413786856523928
3938.51,-0.00024681081916461703
3939.42,-0.00026903734983088634
3940.32,-0.0002882322793572106
3941.22,-0.0003024002655478231
3942.12,-0.0003116444590278205
3943.02,-0.0003203431638257354
3943.92,-0.00032677082922157865
3944.82,-0.0003306083443788088
3945.72,-0.00033476108916483143
3946.62,-0.0003395555103130282
3947.52,-0.00034338772124995013
3948.42,-0.00034693053556912265
3949.32,-0.00034864605533038153
3950.22,-0.00035139923127117464
3951.12,-0.00035140390289962147
3952.02,-0.00035322839677123937
3952.92,-0.00035376646222476333
3953.82,-0.000352784157070509
3954.72,-0.00035364295146213286
3955.62,-0.00035196533615603517
3956.52,-0.0003498705140724679
3957.42,-0.00034480610124524815
3958.32,-0.00034032033289903085
3959.22,-0.00033609680634542953
3960.12,-0.000328890297093165
3961.02,-0.0003206134377066029
3961.92,-0.00030729042668433554
3962.82,-0.0002916480440929023
3963.72,-0.0002754228663231908
3964.62,-0.00025763228537067294
3965.52,-0.0002355843031129896
3966.42,-0.0002147277684972558
3967.32,-0.0001932583037383847
3968.22,-0.00017383902959290415
3969.12,-0.0001593897858424226
3970.02,-0.00015320920895578487
3970.92,-0.0001562660008374409
3971.82,-0.00016640131272570893
3972.72,-0.00018591710160447688
3973.62,-0.0002080331804440698
3974.52,-0.0002337448565874644
3975.42,-0.0002590187589714369
3976.32,-0.00028321679682032975
3977.22,-0.0003064719968198956
3978.13,-0.0003271490898708684
3979.03,-0.0003485251783748567
3979.93,-0.0003645018923548413
3980.83,-0.0003823843303633632
3981.73,-0.0003948547309459738
3982.63,-0.0004050357376690641
3983.53,-0.00041373342975739715
3984.43,-0.0004227332693065811
3985.33,-0.0004307362565042519
3986.23,-0.00044257718640972125
3987.13,-0.0004524656874295684
3988.03,-0.0004609485744225308
3988.93,-0.0004723026943013861
3989.83,-0.0004817389868736307
3990.73,-0.0004901136561539824
3991.63,-0.0005004293701016834
3992.53,-0.0005068014208599104
3993.43,-0.0005152501058592035
3994.33,-0.0005208736433835468
3995.23,-0.000521998068785916
3996.13,-0.0005248334759367514
3997.03,-0.0005254526718464829
3997.93,-0.000530757863667362
3998.83,-0.0005348520251446649
3999.73,-0.0005445423019147182
4000.63,-0.0005536408220989814
4001.53,-0.0005634780279367979
4002.43,-0.0005686039972524849
4003.33,-0.0005736574378951446
4004.23,-0.0005738475248528909
4005.13,-0.0005725235922151406
4006.03,-0.0005743863978950746
4006.93,-0.0005781024577436916
4007.83,-0.000584591858099751
4008.73,-0.0005945521350947896
4009.63,-0.0006042175638922592
4010.53,-0.0006135504498645338
4011.43,-0.0006227938673764899
4012.33,-0.0006277561864270587
4013.23,-0.0006340282445655217
4014.13,-0.0006396569213532112
4015.03,-0.0006438908247643595
4015.93,-0.0006506770197597129
4016.84,-0.000654875292319849
4017.74,-0.0006607597939974412
4018.64,-0.0006718689946979284
4019.54,-0.0006755718304124124
4020.44,-0.0006838034842167698
4021.34,-0.0006909756074189363
4022.24,-0.0006936866636331795
4023.14,-0.000695693724063398
4024.04,-0.0007010576482132601
4024.94,-0.0007021238386933478
4025.84,-0.0007068902435159878
4026.74,-0.000711658438695544
4027.64,-0.0007165334794629961
4028.54,-0.000717485046836361
4029.44,-0.000720060660475173
4030.34,-0.0007121453389436011
4031.24,-0.0007070217903416636
4032.14,-0.0007033663063182468
4033.04,-0.0007032910693041319
4033.94,-0.0007069037147312147
4034.84,-0.0007208662313841658
4035.74,-0.0007346879769185123
4036.64,-0.0007515152959731501
4037.54,-0.0007704622401305999
4038.44,-0.0007852986906125947
4039.34,-0.0007919632727492543
4040.24,-0.0007978395976357762
4041.14,-0.0007996557776089539
4042.04,-0.0007983842072926583
4042.94,-0.0007930603088103345
4043.84,-0.0007897708896558719
4044.74,-0.0007848562879621961
4045.64,-0.000780848380824491
4046.54,-0.0007805079381620751
4047.44,-0.0007878460689394851
4048.34,-0.0008015860185505012
4049.24,-0.0008149856159370642
4050.14,-0.0008329641949728853
4051.04,-0.0008471501108855278
4051.94,-0.0008496604184951154
4052.84,-0.0008491305700447231
4053.74,-0.0008522610148844625
4054.65,-0.0008475867141813045
4055.55,-0.0008458563681473482
4056.45,-0.0008467171211398739
4057.35,-0.0008490858245728373
4058.25,-0.0008527291036423496
4059.15,-0.000863782052653985
4060.05,-0.0008683101181113901
4060.95,-0.0008792374534467977
4061.85,-0.0008818764184965482
4062.75,-0.0008800599751687725
4063.65,-0.0008787798470815662
4064.55,-0.0008830718326866451
4065.45,-0.0008857169392783301
4066.35,-0.0008914938712624242
4067.25,-0.0009029595001818156
4068.15,-0.0009134566971480289
4069.05,-0.0009214863074451875
4069.95,-0.0009309815282468804
4070.85,-0.0009362195876527051
4071.75,-0.0009337543823227103
4072.65,-0.0009345992042864207
4073.55,-0.0009377371190862655
4074.45,-0.0009348208052805498
4075.35,-0.0009323771760648227
4076.25,-0.0009270930391711066
4077.15,-0.0009150570338927738
4078.05,-0.0009157338707527109
4078.95,-0.000919467251856117
4079.85,-0.0009317547892165271
4080.75,-0.0009463633810667661
4081.65,-0.000957410418598487
4082.55,-0.0009691529281524638
4083.45,-0.0009725068831095764
4084.35,-0.0009799390371745887
4085.25,-0.0009768082466937431
4086.15,-0.000980926390309509
4087.05,-0.000985335151736118
4087.95,-0.0009889388314456534
4088.85,-0.0009891138338920288
4089.75,-0.0009910932649819764
4090.65,-0.0009919347682851984
4091.55,-0.0009825544806945107
4092.45,-0.0009738001321856401
4093.36,-0.0009528980810443859
4094.26,-0.0009342460807169863
4095.16,-0.0009120898701316578
4096.06,-0.000880904573105537
4096.96,-0.000848711180520894
4097.86,-0.0008099024922990892
4098.76,-0.0007738051981808102
4099.66,-0.0007368028524772435
4100.56,-0.0006928075142181676
4101.46,-0.0006607591252604101
4102.36,-0.0006494173324839782
4103.26,-0.0006540154204431897
4104.16,-0.000678892180531623
4105.06,-0.0007197601103142683
4105.96,-0.0007725848605117798
4106.86,-0.0008207696005717673
4107.76,-0.0008772549391373488
4108.66,-0.0009192993517203922
4109.56,-0.0009555825235926837
4110.46,-0.0009939854199766298
4111.36,-0.0010302510313904356
4112.26,-0.0010578689134434092
4113.16,-0.0010936851147444755
4114.06,-0.0011324683482695592
4114.96,-0.0011597177941728226
4115.86,-0.001191832111167976
4116.76,-0.0012146256909897543
4117.66,-0.0012286578380314144
4118.56,-0.0012450093463710636
4119.46,-0.0012641520015283826
4120.36,-0.001268670014045977
4121.26,-0.0012817830231849447
4122.16,-0.0013040377811513264
4123.06,-0.0013142179969935686
4123.96,-0.001335966844862704
4124.86,-0.0013528176076341044
4125.76,-0.0013654767809739023
4126.66,-0.0013844614486305416
4127.56,-0.0013886831462764527
4128.46,-0.0013999548697584696
4129.36,-0.0014039204772062072
4130.26,-0.0014084190799096025
4131.17,-0.0014213266897629892
4132.06,-0.0014299118499410965
4132.97,-0.0014321862848299628
4133.87,-0.0014560164540478476
4134.77,-0.0014802112611520585
4135.67,-0.0015074286062904702
4136.57,-0.0015417813393637184
4137.47,-0.0015751030777185358
4138.37,-0.0016053120554334434
4139.27,-0.0016247184289873383
4140.17,-0.0016581821688831614
4141.07,-0.00166190337568365
4141.97,-0.0016582384814884162
4142.87,-0.0016546119321450372
4143.77,-0.001647761081183165
4144.67,-0.001650769746784171
4145.57,-0.0016635982195988548
4146.47,-0.0016795268604400298
4147.37,-0.0017020751527967487
4148.27,-0.0017283583574756102
4149.17,-0.0017522595043542523
4150.07,-0.0017555310683544975
4150.97,-0.0017685243610621488
4151.87,-0.0017805265667509933
4152.77,-0.0017844796381394589
4153.67,-0.001784863092742784
4154.57,-0.0017901460799489783
4155.47,-0.0018016705971159986
4156.37,-0.0018161441308532362
4157.27,-0.0018258481099331203
4158.17,-0.0018558483732837826
4159.07,-0.0018754826190354357
4159.97,-0.0019101684963146379
4160.87,-0.0019428135930575025
4161.77,-0.0019636855161977015
4162.67,-0.00199503776988924
4163.57,-0.0020090382047604862
4164.47,-0.0020301993800738364
4165.37,-0.002046028764433421
4166.27,-0.0020569196947812346
4167.17,-0.0020638015238077082
4168.07,-0.0020712128371921986
4168.98,-0.002077644809456325
4169.88,-0.002070957876903705
4170.78,-0.002073543809121485
4171.68,-0.002062821400531783
4172.58,-0.0020513914294711237
4173.48,-0.0020480589758208835
4174.38,-0.002044237838001435
4175.28,-0.0020480903903181327
4176.18,-0.002077396555236963
4177.08,-0.00209534241645744
4177.98,-0.002123544289390629
4178.88,-0.002145726719220965
4179.78,-0.0021711714771621895
4180.68,-0.002204643302026643
4181.58,-0.002233443489600489
4182.48,-0.002262103593738683
4183.38,-0.002294098017344525
4184.28,-0.002319942788488179
4185.18,-0.0023402204482965267
4186.08,-0.0023647514329943873
4186.98,-0.0023875640423992373
4187.88,-0.002410362310654118
4188.78,-0.0024252158007847546
4189.68,-0.002441191425039328
4190.58,-0.0024815781401032505
4191.48,-0.002524922764447419
4192.38,-0.00255285026601949
4193.28,-0.0025745422721900526
4194.18,-0.0026021156314077645
4195.08,-0.0026157616132385557
4195.98,-0.002606699702847689
4196.88,-0.002606134562835307
4197.78,-0.0025988834197800494
4198.68,-0.0025909639818795845
4199.58,-0.0025995198025648104
4200.48,-0.0026149066261383887
4201.38,-0.002625759409971386
4202.28,-0.0026563438160224703
4203.18,-0.0026885625287472728
4204.08,-0.0027316677410378068
4204.98,-0.0027687875444512198
4205.88,-0.0028202593487846343
4206.79,-0.002855109896218734
4207.69,-0.002916736374818461
4208.59,-0.0029412678959393713
4209.49,-0.002980697839606835
4210.39,-0.0030146615091696653
4211.29,-0.003047782264511788
4212.19,-0.003073839689755927
4213.09,-0.0030843810005996824
4213.99,-0.0030799672567146013
4214.89,-0.0030946690379859737
4215.79,-0.00310239746367433
4216.69,-0.0031226595415722166
4217.59,-0.00315202289122833
4218.49,-0.003203827060861017
4219.39,-0.0032574609375466343
4220.29,-0.0032879596480525483
4221.19,-0.003330874686963202
4222.09,-0.003357026205944635
4222.99,-0.0033526661070838104
4223.89,-0.00330962592878429
4224.79,-0.003276967630772512
4225.69,-0.0032060972221027192
4226.59,-0.003196015923422963
4227.49,-0.0031991118755609854
4228.39,-0.0032399550949000953
4229.29,-0.003327275631013988
4230.19,-0.0034343023030086197
4231.09,-0.003504451604163318
4231.99,-0.0035768725592303604
4232.89,-0.0036177322434773574
4233.79,-0.003657933333189716
4234.69,-0.003661860455297719
4235.59,-0.0036742725244222904
4236.49,-0.0036882231649751946
4237.39,-0.00371155805129659
4238.29,-0.0037405771657403643
4239.19,-0.0037722458337113712
4240.09,-0.0038252452437456982
4240.99,-0.0038900196800237584
4241.89,-0.003950979810740543
4242.79,-0.003995492074397228
4243.69,-0.004050254856397217
4244.59,-0.0041017393020888766
4245.5,-0.0041125369555990955
4246.4,-0.004135832867423045
4247.3,-0.0041192027626771105
4248.2,-0.0041333691482713505
4249.1,-0.0041599481975759245
4250.0,-0.004169138851549777
4250.9,-0.004200846864450292
4251.8,-0.004227249562082042
4252.7,-0.004295580271555339
4253.6,-0.004346396013702612
4254.5,-0.004395985158201195
4255.4,-0.004451021583033847
4256.3,-0.0045065020017579565
4257.2,-0.004550651528771407
4258.1,-0.004543009878719261
4259.0,-0.0045931857908587306
4259.9,-0.004596318209335587
4260.8,-0.004619696767568882
4261.7,-0.004671481416526185
4262.6,-0.004742986083746751
4263.5,-0.00482470776658839
4264.4,-0.004933320621486138
4265.3,-0.005018308788327387
4266.2,-0.005095735024883479
4267.1,-0.005117153205781342
4268.0,-0.0051318141623845955
4268.9,-0.005093614428355691
4269.8,-0.005074633847921167
4270.7,-0.005011461653267121
4271.6,-0.004982060458709823
4272.5,-0.00497312929322739
4273.4,-0.0049929483325336565
4274.3,-0.005053425427927112
4275.2,-0.005131499180455221
4276.1,-0.005219132278299054
4277.0,-0.005354304935642516
4277.9,-0.005454632040154084
4278.8,-0.005560476319640255
4279.7,-0.005639958544688792
4280.6,-0.00568582646990209
4281.5,-0.005726456661569752
4282.4,-0.005746312804777722
