wave,flux
3700.85,-4.983843896215167e-05
3701.75,-4.966309353684253e-05
3702.65,-4.875783297824068e-05
3703.55,-4.7248798499882845e-05
3704.45,-4.538118504806606e-05
3705.35,-4.399099283901649e-05
3706.25,-4.348431489176061e-05
3707.15,-4.363265350827698e-05
3708.05,-4.394182297365437e-05
3708.96,-4.474092750897057e-05
3709.86,-4.554453228633074e-05
3710.76,-4.629478698626787e-05
3711.66,-4.7112003518567225e-05
3712.56,-4.853399390670615e-05
3713.46,-5.027761072093487e-05
3714.36,-5.236314166927331e-05
3715.26,-5.4371908103082326e-05
3716.16,-5.6109439829778935e-05
3717.06,-5.67114222153537e-05
3717.96,-5.6185886295187725e-05
3718.86,-5.4419952137763925e-05
3719.76,-5.2024114238190795e-05
3720.66,-4.9202207523979196e-05
3721.56,-4.67072299554113e-05
3722.46,-4.572816832203477e-05
3723.36,-4.690804873485449e-05
3724.26,-4.920983454344659e-05
3725.16,-5.197731761427101e-05
3726.06,-5.51152864492942e-05
3726.96,-5.744106402990678e-05
3727.86,-5.89467888382548e-05
3728.76,-5.962203796267362e-05
3729.66,-5.9568473469713823e-05
3730.56,-5.858521596429222e-05
3731.46,-5.604738981324915e-05
3732.36,-5.319467078953535e-05
3733.26,-5.014146467367868e-05
3734.16,-4.679904531197193e-05
3735.06,-4.510587786365796e-05
3735.96,-4.488581394423963e-05
3736.86,-4.6623901650806986e-05
3737.76,-4.99375362059361e-05
3738.66,-5.438987754492796e-05
3739.56,-5.898539924784483e-05
3740.46,-6.280354348034661e-05
3741.36,-6.567574090875442e-05
3742.26,-6.704911203558425e-05
3743.16,-6.72187549562218e-05
3744.06,-6.577687345306994e-05
3744.96,-6.365662539142456e-05
3745.86,-6.130211623687489e-05
3746.76,-5.777898238265838e-05
3747.67,-5.4570980194519485e-05
3748.57,-5.141442273376258e-05
3749.47,-4.917430535819577e-05
3750.37,-4.8772147490018144e-05
3751.27,-5.071389897104987e-05
3752.17,-5.402199268036364e-05
3753.07,-5.928163881164367e-05
3753.97,-6.493498661358708e-05
3754.87,-6.970266730519591e-05
3755.77,-7.35483107944693e-05
3756.67,-7.517937734780434e-05
3757.57,-7.59497324208593e-05
3758.47,-7.555038839414698e-05
3759.37,-7.493721299360503e-05
3760.27,-7.5205143660068e-05
3761.17,-7.613488081381196e-05
3762.07,-7.736671654902604e-05
3762.97,-7.789641588628666e-05
3763.87,-7.832306468865282e-05
3764.77,-7.833090941019029e-05
3765.67,-7.724352021742397e-05
3766.57,-7.511769070459135e-05
3767.47,-7.235617255541592e-05
3768.37,-6.921837704349238e-05
3769.27,-6.614672816759794e-05
3770.17,-6.377760185451007e-05
3771.07,-6.294856982464856e-05
3771.97,-6.41766690350537e-05
3772.87,-6.719998190949735e-05
3773.77,-7.124459157496775e-05
3774.67,-7.56290526517162e-05
3775.57,-8.029560910467087e-05
3776.47,-8.507883241024119e-05
3777.37,-8.937614145685145e-05
3778.27,-9.384810995320682e-05
3779.17,-9.792342986580082e-05
3780.07,-0.00010177118195036626
3780.97,-0.00010510194888053999
3781.87,-0.00010740926718884554
3782.77,-0.00010948339328427251
3783.67,-0.00011065509528543613
3784.57,-0.00011046429536822779
3785.47,-0.00010953627226873661
3786.38,-0.00010783978951031323
3787.28,-0.00010516742934947496
3788.18,-0.00010242983345602446
3789.08,-0.00010051507031676941
3789.98,-9.851611629371816e-05
3790.88,-9.666300806263799e-05
3791.78,-9.496710909148617e-05
3792.68,-9.217304602605349e-05
3793.58,-8.835319337841826e-05
3794.48,-8.383490440807439e-05
3795.38,-7.918250604533468e-05
3796.28,-7.42767866076986e-05
3797.18,-7.029642678999075e-05
3798.08,-6.797014781377644e-05
3798.98,-6.825894022709502e-05
3799.88,-7.104107769981536e-05
3800.78,-7.612975739197588e-05
3801.68,-8.309723709964522e-05
3802.58,-9.09878218922215e-05
3803.48,-9.795013677522629e-05
3804.38,-0.00010401418003216986
3805.28,-0.00010953070443202941
3806.18,-0.00011319810788799693
3807.08,-0.0001161493290109306
3807.98,-0.00012001289083853266
3808.88,-0.00012335173114199293
3809.78,-0.00012735819640796254
3810.68,-0.00012976777236649247
3811.58,-0.00013137731681486147
3812.48,-0.0001312563619163278
3813.38,-0.00012996522732678788
3814.28,-0.00012868781180225955
3815.18,-0.00012766006870648604
3816.08,-0.00012803959129430905
3816.98,-0.00012951758504742687
3817.88,-0.00013155988885677064
3818.78,-0.0001324906420995623
3819.68,-0.0001327127471621733
3820.58,-0.00013282823814599152
3821.48,-0.00013149567287420454
3822.38,-0.000130541148878212
3823.28,-0.0001282406164726414
3824.18,-0.00012664696461552817
3825.09,-0.0001234111243445169
3825.99,-0.00012028280365738243
3826.89,-0.00011756806027902158
3827.79,-0.00011416995689157
3828.69,-0.00011156478210804477
3829.59,-0.00010839435076730574
3830.49,-0.00010439959930383827
3831.39,-9.994075367353357e-05
3832.29,-9.446297314239042e-05
3833.19,-8.857139685239124e-05
3834.09,-8.309640515398441e-05
3834.99,-7.86973970319118e-05
3835.89,-7.707557327671252e-05
3836.79,-7.745981284517031e-05
3837.69,-8.08794221989525e-05
3838.59,-8.61827177701828e-05
3839.49,-9.30840038777975e-05
3840.39,-0.00010059837887630277
3841.29,-0.00010901295266094525
3842.19,-0.00011802780242898898
3843.09,-0.00012646774382894517
3843.99,-0.00013429595686104625
3844.89,-0.00014148469394882426
3845.79,-0.00014742039485048165
3846.69,-0.00015291036374217014
3847.59,-0.0001571885762144228
3848.49,-0.000162347062442333
3849.39,-0.00016599962326771536
3850.29,-0.000169738553617532
3851.19,-0.0001734506617325279
3852.09,-0.0001761899007890879
3852.99,-0.00017978965179434408
3853.89,-0.00018151291535662705
3854.79,-0.00018275699827699713
3855.69,-0.0001838142087995281
3856.59,-0.00018369666113860633
3857.49,-0.00018402192195551056
3858.39,-0.0001837619136494981
3859.29,-0.00018380125603158874
3860.19,-0.00018660110710199822
3861.09,-0.00018799655094143937
3861.99,-0.0001914924013131578
3862.9,-0.00019451543047728753
3863.8,-0.000198090217726105
3864.7,-0.00020100963104036787
3865.6,-0.00020315150447628574
3866.5,-0.0002043631606443934
3867.4,-0.00020677540158590873
3868.3,-0.0002071776446202346
3869.2,-0.00020817469292004108
3870.1,-0.00020658118602309022
3871.0,-0.0002062123333490551
3871.9,-0.00020323751034731938
3872.8,-0.00020086218544154437
3873.7,-0.0001990237398323264
3874.6,-0.00019839142705236287
3875.5,-0.0001978942057340191
3876.4,-0.0001968076434677821
3877.3,-0.00019601680674271574
3878.2,-0.00019338192741140606
3879.1,-0.00019047084471322868
3880.0,-0.00018676342440314682
3880.9,-0.0001852056265579924
3881.8,-0.00018239810172971266
3882.7,-0.00017889062068409192
3883.6,-0.0001732134096817869
3884.5,-0.00016615684752641172
3885.4,-0.00015736859339296805
3886.3,-0.00014768129716074635
3887.2,-0.00013864325588012035
3888.1,-0.0001299408081832028
3889.0,-0.00012509779120067256
3889.9,-0.0001248341656833756
3890.8,-0.00012848016542922136
3891.7,-0.00013677325456448516
3892.6,-0.0001471875059055843
3893.5,-0.00015860128690539153
3894.4,-0.00016852069405926546
3895.3,-0.00017873075966391003
3896.2,-0.00018755820345113376
3897.1,-0.0001941679311974248
3898.0,-0.00020162920843048169
3898.9,-0.00020819679808757764
3899.8,-0.00021270379465498972
3900.7,-0.0002191052162084167
3901.6,-0.00022409711323646502
3902.51,-0.00022894498724181076
3903.41,-0.00023219315771617538
3904.31,-0.00023510096841540106
3905.21,-0.00023744893992929617
3906.11,-0.000241998914284029
3907.01,-0.0002462169022001004
3907.91,-0.00025217702135900107
3908.81,-0.0002598363304084658
3909.71,-0.00026768673110492893
3910.61,-0.0002753076162701079
3911.51,-0.0002813801046513891
3912.41,-0.0002843500123355226
3913.31,-0.00028730882648256913
3914.21,-0.0002873368075262849
3915.11,-0.000287716778322573
3916.01,-0.00028752127189760057
3916.91,-0.00028815842765086166
3917.81,-0.0002867321432545084
3918.71,-0.00028774322288662645
3919.61,-0.00028758768754439366
3920.51,-0.000288304660605482
3921.41,-0.0002884692026840952
3922.31,-0.00029130635148849013
3923.21,-0.0002928907528416968
3924.11,-0.00029412377957665575
3925.01,-0.0002930199682556795
3925.91,-0.0002877911084462193
3926.81,-0.0002822879094484142
3927.71,-0.00027179928590628414
3928.61,-0.00025731288034325315
3929.51,-0.000239195790203729
3930.41,-0.00021939335542808957
3931.31,-0.0001977322239946708
3932.21,-0.0001771233618460257
3933.11,-0.00016029132825753315
3934.01,-0.00014990282287065932
3934.91,-0.00014952931215325065
3935.81,-0.0001577611499476048
3936.71,-0.00017385759416196355
3937.61,-0.00019648205159739608
3938.51,-0.0002211853440345079
3939.42,-0.000245282622440457
3940.32,-0.0002658277836690109
3941.22,-0.0002820963708346776
3942.12,-0.0002954107091466312
3943.02,-0.00030362583136929006
3943.92,-0.00031126707268796817
3944.82,-0.0003165756722177678
3945.72,-0.000322771088108402
3946.62,-0.00032723896441425867
3947.52,-0.0003325464900019415
3948.42,-0.0003361176192374682
3949.32,-0.00033965030328548694
3950.22,-0.0003418087457530637
3951.12,-0.00034594896713324117
3952.02,-0.0003458827085308023
3952.92,-0.0003474552309184842
3953.82,-0.0003494754609492577
3954.72,-0.00035015835908852426
3955.62,-0.00034767570643865826
3956.52,-0.0003462459846173088
3957.42,-0.00034333755026533935
3958.32,-0.00034030761289153855
3959.22,-0.00033669863601612304
3960.12,-0.00033033570317054405
3961.02,-0.00032042603592738846
3961.92,-0.00030832341539281546
3962.82,-0.00029334047981449267
3963.72,-0.00027490400855154583
3964.62,-0.0002562284688318853
3965.52,-0.0002349950576894926
3966.42,-0.00021218711014846792
3967.32,-0.00018947546188708913
3968.22,-0.0001694247332865665
3969.12,-0.00015655119367986194
3970.02,-0.00015046584363813628
3970.92,-0.0001548423312797961
3971.82,-0.00016828064486160366
3972.72,-0.00018698162513920043
3973.62,-0.00021181110426868443
3974.52,-0.00023635882569220812
3975.42,-0.00026267920759893873
3976.32,-0.0002884124863827296
3977.22,-0.0003110946069357094
3978.13,-0.00033444427315076626
3979.03,-0.0003549239659394169
3979.93,-0.000373199011495231
3980.83,-0.00038825923980770837
3981.73,-0.0004006330239741648
3982.63,-0.0004106250769133995
3983.53,-0.0004175329720251361
3984.43,-0.000425384499283782
3985.33,-0.00043319896921576476
3986.23,-0.00044130959824292045
3987.13,-0.000451343533811256
3988.03,-0.0004619499702727039
3988.93,-0.00047084521067156565
3989.83,-0.0004803351910193373
3990.73,-0.000490116429509858
3991.63,-0.0004988356644866754
3992.53,-0.0005058047434429176
3993.43,-0.0005151466784208609
3994.33,-0.0005163197784038116
3995.23,-0.0005213756011694075
3996.13,-0.0005214601131824084
3997.03,-0.0005220198887253216
3997.93,-0.0005254064486002681
3998.83,-0.0005301128470250742
3999.73,-0.000540674151968276
4000.63,-0.0005509810051089936
4001.53,-0.000558929904204605
4002.43,-0.0005664839282996091
4003.33,-0.0005701399959381763
4004.23,-0.0005692716042415484
4005.13,-0.0005695871073349708
4006.03,-0.000567477605514459
4006.93,-0.0005703820536052877
4007.83,-0.0005768050340479677
4008.73,-0.0005875609557901204
4009.63,-0.0005943508744099833
4010.53,-0.0006060732366012202
4011.43,-0.0006164736382456055
4012.33,-0.0006235906800581946
4013.23,-0.0006305935906882042
4014.13,-0.0006334860375491949
4015.03,-0.0006404870125974693
4015.93,-0.0006451961008307955
4016.84,-0.0006502909983687414
4017.74,-0.0006575067601587748
4018.64,-0.0006620051424016309
4019.54,-0.000672225621711414
4020.44,-0.0006790349332681586
4021.34,-0.0006869982037165214
4022.24,-0.0006899080259764407
4023.14,-0.0006944870907754239
4024.04,-0.0006960847125337616
4024.94,-0.0006975184414708106
4025.84,-0.0007012775339138391
4026.74,-0.0007080546298646413
4027.64,-0.000711595815674613
4028.54,-0.0007141737926225406
4029.44,-0.0007104060623140645
4030.34,-0.0007011235234941395
4031.24,-0.0006961246324170306
4032.14,-0.0006886370673746833
4033.04,-0.0006866581579004886
4033.94,-0.0006933656742150572
4034.84,-0.0007027528889857589
4035.74,-0.0007205286590482716
4036.64,-0.0007413371086360693
4037.54,-0.0007614736142574417
4038.44,-0.000773039983736055
4039.34,-0.0007905373904631825
4040.24,-0.0007972603235529154
4041.14,-0.0007959582052838079
4042.04,-0.0007945641485932518
4042.94,-0.0007898455115351333
4043.84,-0.0007818740798849526
4044.74,-0.0007719693188564342
4045.64,-0.000771512655017064
4046.54,-0.000769525826674917
4047.44,-0.0007778315840653362
4048.34,-0.0007921373333324637
4049.24,-0.0008132769212253762
4050.14,-0.0008269911998137862
4051.04,-0.00083878060425936
4051.94,-0.0008475841381745634
4052.84,-0.0008439919400777052
4053.74,-0.0008430295887196435
4054.65,-0.0008358341099172426
4055.55,-0.0008339401843461534
4056.45,-0.0008310337043175352
4057.35,-0.0008370145298696376
4058.25,-0.0008390695805534209
4059.15,-0.0008489167737768159
4060.05,-0.0008570568007191353
4060.95,-0.0008647018652450497
4061.85,-0.0008697999964090764
4062.75,-0.000868294375154551
4063.65,-0.0008703948698568368
4064.55,-0.0008680039057936917
4065.45,-0.0008708158291404425
4066.35,-0.0008808314750948905
4067.25,-0.0008907854276608194
4068.15,-0.0009028701769664782
4069.05,-0.0009164100225817188
4069.95,-0.0009241474606145767
4070.85,-0.0009260744849216509
4071.75,-0.0009287241712471008
4072.65,-0.00093097599646441
4073.55,-0.0009299069568202409
4074.45,-0.0009275778823068727
4075.35,-0.0009262806405568203
4076.25,-0.0009147202951739904
4077.15,-0.0009070755987972313
4078.05,-0.0009007676459229618
4078.95,-0.0009048161021707513
4079.85,-0.0009179368809967552
4080.75,-0.0009368159329676646
4081.65,-0.0009508733316803443
4082.55,-0.0009679633191317491
4083.45,-0.0009769932142547366
4084.35,-0.000981578962770995
4085.25,-0.0009823771052631437
4086.15,-0.0009915766147038927
4087.05,-0.0009897773683995793
4087.95,-0.000996460308006483
4088.85,-0.0010051867437986539
4089.75,-0.0010158046757073934
4090.65,-0.001012981852614276
4091.55,-0.0010093562300050442
4092.45,-0.000995863648913322
4093.36,-0.0009812189783156824
4094.26,-0.0009681921461128345
4095.16,-0.0009373390258360926
4096.06,-0.0009143666512395561
4096.96,-0.0008802264031748171
4097.86,-0.0008428820102577177
4098.76,-0.0007997734552412623
4099.66,-0.0007621689323514041
4100.56,-0.0007221717890085503
4101.46,-0.0006941654888301639
4102.36,-0.0006770967626800843
4103.26,-0.0006828681407588823
4104.16,-0.0007081830850428956
4105.06,-0.0007482832718086147
4105.96,-0.0008015063379317533
4106.86,-0.0008545663700125587
4107.76,-0.0009036575720257965
4108.66,-0.0009541601713773923
4109.56,-0.0009916800436070056
4110.46,-0.0010227754451342442
4111.36,-0.0010561095153285177
4112.26,-0.001087022361547236
4113.16,-0.0011201179404795325
4114.06,-0.0011618536663796546
4114.96,-0.0011865700240470233
4115.86,-0.0012152404260543019
4116.76,-0.0012414736017696169
4117.66,-0.0012581299304423824
4118.56,-0.0012647561406835296
4119.46,-0.001275178679900198
4120.36,-0.0012758260150997573
4121.26,-0.0012939886889408315
4122.16,-0.0013082688180076406
4123.06,-0.0013247992694294672
4123.96,-0.0013377862302678346
4124.86,-0.0013532899636075025
4125.76,-0.001367670707158193
4126.66,-0.0013821133526890589
4127.56,-0.0013896462998923584
4128.46,-0.0013984556347280204
4129.36,-0.001399638489878356
4130.26,-0.0014066534745915851
4131.17,-0.001403593870702846
4132.06,-0.0014186321091238924
4132.97,-0.001427776766323832
4133.87,-0.0014435687804369981
4134.77,-0.001470151236326539
4135.67,-0.001500501585504445
4136.57,-0.0015357308940500533
4137.47,-0.00157074919666258
4138.37,-0.00160345439739597
4139.27,-0.001634653278379147
4140.17,-0.0016530127096615083
4141.07,-0.0016607723675092251
4141.97,-0.0016554409818585827
4142.87,-0.0016521245490526055
4143.77,-0.0016451017066272625
4144.67,-0.0016416035997427571
4145.57,-0.0016527108999347955
4146.47,-0.0016680751277384452
4147.37,-0.0016905560699795872
4148.27,-0.0017182474322951604
4149.17,-0.001728182052584649
4150.07,-0.0017465636263779593
4150.97,-0.001750574937077519
4151.87,-0.0017539251936677807
4152.77,-0.0017632409795622416
4153.67,-0.0017626834399481288
4154.57,-0.0017659475186151401
4155.47,-0.0017811180268744087
4156.37,-0.0017895883108493711
4157.27,-0.0018047736905743583
4158.17,-0.0018248086208167823
4159.07,-0.001858382640083256
4159.97,-0.0018888500653094088
4160.87,-0.001919803863264807
4161.77,-0.0019487101418240713
4162.67,-0.0019812206540552515
4163.57,-0.002007681045670074
4164.47,-0.0020258218186519302
4165.37,-0.002043068928757085
4166.27,-0.002055680672176074
4167.17,-0.00205702072204525
4168.07,-0.002055355691977454
4168.98,-0.0020561922949449726
4169.88,-0.0020447632540326393
4170.78,-0.0020483877704190593
4171.68,-0.0020319935903992488
4172.58,-0.002017142580657964
4173.48,-0.0020022152805914267
4174.38,-0.0020013520126047706
4175.28,-0.0020108662744669588
4176.18,-0.0020290416919250404
4177.08,-0.0020577888343112196
4177.98,-0.0020935070893373757
4178.88,-0.002112708339242833
4179.78,-0.0021455647608636125
4180.68,-0.0021732614187267444
4181.58,-0.0022120822580533796
4182.48,-0.002228520695751291
4183.38,-0.0022549627435199593
4184.28,-0.002290801429999085
4185.18,-0.0023135418799449833
4186.08,-0.0023440551916352886
4186.98,-0.002359308204532347
4187.88,-0.0023702015631837515
4188.78,-0.002405596152012762
4189.68,-0.0024320351848379973
4190.58,-0.00246497494922883
4191.48,-0.002496220447180582
4192.38,-0.0025529143917790036
4193.28,-0.002572070681387303
4194.18,-0.0026013138783108495
4195.08,-0.0026056598768376517
4195.98,-0.0025990839740857447
4196.88,-0.0025833569388601946
4197.78,-0.0025702325653957944
4198.68,-0.002556918673702582
4199.58,-0.0025582967436003383
4200.48,-0.002570689341671484
4201.38,-0.0025922477263269927
4202.28,-0.002634992500298459
4203.18,-0.0026655601509644397
4204.08,-0.0027021381563718566
4204.98,-0.0027487289128622556
4205.88,-0.00278221346513206
4206.79,-0.0028531937962741026
4207.69,-0.002891718598649982
4208.59,-0.00293955206511867
4209.49,-0.002976813018170802
4210.39,-0.0030085237226959
4211.29,-0.003038274287480083
4212.19,-0.003066191645525868
4213.09,-0.0030718252062550784
4213.99,-0.003078288875204898
4214.89,-0.0030819329412985334
4215.79,-0.003094528325613895
4216.69,-0.0031222635298342556
4217.59,-0.0031500898784434204
4218.49,-0.003195637260495088
4219.39,-0.0032648815281555413
4220.29,-0.003311571220223573
4221.19,-0.0033446591811778464
4222.09,-0.003369679154498649
4222.99,-0.003352651395986189
4223.89,-0.0033168265243248593
4224.79,-0.00325491494529474
4225.69,-0.003189963494864895
4226.59,-0.0031468134494348652
4227.49,-0.00316533502087222
4228.39,-0.0032115849978696233
4229.29,-0.0032866724826270846
4230.19,-0.0034052391616905204
4231.09,-0.0035128257406041945
4231.99,-0.0035874663119435262
4232.89,-0.0036306955290507266
4233.79,-0.0036517473313440467
4234.69,-0.003671617064581326
4235.59,-0.003660988075915462
4236.49,-0.0036781496980690404
4237.39,-0.0036976376724657
4238.29,-0.0037145039343862993
4239.19,-0.0037603410164689854
4240.09,-0.003813439573639052
4240.99,-0.0038779437700769883
4241.89,-0.00396025358520957
4242.79,-0.004000536154545913
4243.69,-0.004063998840669958
4244.59,-0.0041048859697169204
4245.5,-0.004128841733164657
4246.4,-0.004159190242921876
4247.3,-0.004163060367823341
4248.2,-0.004149757609217337
4249.1,-0.004129924024999257
4250.0,-0.004146329651546881
4250.9,-0.00419376484069311
4251.8,-0.0042412414996647685
4252.7,-0.004294227364204761
4253.6,-0.004348651084744974
4254.5,-0.004417270681102699
4255.4,-0.0044678129052697245
4256.3,-0.004532442622301221
4257.2,-0.004564981744710004
4258.1,-0.004576661382453518
4259.0,-0.004598222200801671
4259.9,-0.004603107883215837
4260.8,-0.004618491185299558
4261.7,-0.004679322501457376
4262.6,-0.004751529550818632
4263.5,-0.0048513083599627735
4264.4,-0.004989584162606392
4265.3,-0.005085533888411822
4266.2,-0.005130295221000891
4267.1,-0.005193785080548233
4268.0,-0.005180402577504052
4268.9,-0.0051539444996218575
4269.8,-0.005115606051433737
4270.7,-0.005047083262236441
4271.6,-0.004998917177567475
4272.5,-0.004979561414904004
4273.4,-0.0049729105449936185
4274.3,-0.005011455581541257
4275.2,-0.005119437272319772
4276.1,-0.005238176090138958
4277.0,-0.005356055799722604
4277.9,-0.005486689018412366
4278.8,-0.005601492714463572
4279.7,-0.005672885568615076
4280.6,-0.005729101167651891
4281.5,-0.005765918787314355
4282.4,-0.005768868468447211
4283.31,-0.005794203089987637
