wave,flux
3700.85,-0.007929397085505479
3701.75,-0.007964019677175145
3702.65,-0.007754175139938115
3703.55,-0.007568891546492976
3704.45,-0.007260740281660986
3705.35,-0.0070005410585004075
3706.25,-0.0068556054188984375
3707.15,-0.006850059948955762
3708.05,-0.006965151741939037
3708.96,-0.007173015427281861
3709.86,-0.007464965745961507
3710.76,-0.007825860995334184
3711.66,-0.008245825771248374
3712.56,-0.008732222087461876
3713.46,-0.009173023210249789
3714.36,-0.00969477096034328
3715.26,-0.01002303581347873
3716.16,-0.010289135958995561
3717.06,-0.010335211840700072
3717.96,-0.010072207772812716
3718.86,-0.009653466619845964
3719.76,-0.009106822425944575
3720.66,-0.00860676890442724
3721.56,-0.008276729542122564
3722.46,-0.008297572890268681
3723.36,-0.008643526562834984
3724.26,-0.00925176038275816
3725.16,-0.009933068936031202
3726.06,-0.010580779580694106
3726.96,-0.01107178884095605
3727.86,-0.011401901018926611
3728.76,-0.011576039985636314
3729.66,-0.011609490555026152
3730.56,-0.011577142065267639
3731.46,-0.01135609928945472
3732.36,-0.010897034575680805
3733.26,-0.010282489214508635
3734.16,-0.009687321713784662
3735.06,-0.009239591950158445
3735.96,-0.009148415654970514
3736.86,-0.00938655889546373
3737.76,-0.010083845190025267
3738.66,-0.011078132317602908
3739.56,-0.012221966549067875
3740.46,-0.013228568184648196
3741.36,-0.013973077626839237
3742.26,-0.014325710260973967
3743.16,-0.014379413980027293
3744.06,-0.014197013244913575
3744.96,-0.013807920355823091
3745.86,-0.013316051626943283
3746.76,-0.012783667072817407
3747.67,-0.01231138852692199
3748.57,-0.011919963111483498
3749.47,-0.011835658320426335
3750.37,-0.01211819544793527
3751.27,-0.01295968685976824
3752.17,-0.014243921619919568
3753.07,-0.015778225304133513
3753.97,-0.01729836809330253
3754.87,-0.01856926392586165
3755.77,-0.019412952141325466
3756.67,-0.019790083774260867
3757.57,-0.01974486004149869
3758.47,-0.019380292760519974
3759.37,-0.01911439335779955
3760.27,-0.01917426939605903
3761.17,-0.01946600686296407
3762.07,-0.020105755144661275
3762.97,-0.020891427829271548
3763.87,-0.021502815598266674
3764.77,-0.021882790925157287
3765.67,-0.022419641444375076
3766.57,-0.022447736841057653
3767.47,-0.022442652054563566
3768.37,-0.022394019549607052
3769.27,-0.02236830030650108
3770.17,-0.022632532503384616
3771.07,-0.023220136282407895
3771.97,-0.02396597997350564
3772.87,-0.025150638870511253
3773.77,-0.02659151344549162
3774.67,-0.028072948279304295
3775.57,-0.029295090402990474
3776.47,-0.03056348639946848
3777.37,-0.031674104155049794
3778.27,-0.032999415891672566
3779.17,-0.03415489884919435
3780.07,-0.03553828474181975
3780.97,-0.036877855570876944
3781.87,-0.03824517662919755
3782.77,-0.039081179716560284
3783.67,-0.03981008209184564
3784.57,-0.0400213321626888
3785.47,-0.03997009596064165
3786.38,-0.039371492890770014
3787.28,-0.03868612933491319
3788.18,-0.0381397101020707
3789.08,-0.0379808596789504
3789.98,-0.0377973605803856
3790.88,-0.03813407044932072
3791.78,-0.038462593040092564
3792.68,-0.038859748518820014
3793.58,-0.03863171203456687
3794.48,-0.03816842335573549
3795.38,-0.03744185342764398
3796.28,-0.036308365644451064
3797.18,-0.03562921233150213
3798.08,-0.035508719646054905
3798.98,-0.03613486471499567
3799.88,-0.03802890694135775
3800.78,-0.04095144353141467
3801.68,-0.04464626185618842
3802.58,-0.04913267789046574
3803.48,-0.05273781026088333
3804.38,-0.055917941956305325
3805.28,-0.058386347624580545
3806.18,-0.05994224132303939
3807.08,-0.06139640457872537
3807.98,-0.0629860815635917
3808.88,-0.06442631439540093
3809.78,-0.06676137847692731
3810.68,-0.06877132058337306
3811.58,-0.06962722392501518
3812.48,-0.07007900086639547
3813.38,-0.06936241861647001
3814.28,-0.06837224421670875
3815.18,-0.06767166257623583
3816.08,-0.06746292793444002
3816.98,-0.0686414256722459
3817.88,-0.06965064862375021
3818.78,-0.07079875341147568
3819.68,-0.07181515646303198
3820.58,-0.07278861362284895
3821.48,-0.07306295830751738
3822.38,-0.0738739265395351
3823.28,-0.0748936075481995
3824.18,-0.07504540860269814
3825.09,-0.07483679783217796
3825.99,-0.07409703298493617
3826.89,-0.07374278916000464
3827.79,-0.07369219812878004
3828.69,-0.07385499499842256
3829.59,-0.07523223643678904
3830.49,-0.07541825175670556
3831.39,-0.0749322486736916
3832.29,-0.07376205154339141
3833.19,-0.0721921678987867
3834.09,-0.07071971233716441
3834.99,-0.07017277791619667
3835.89,-0.07101108173432047
3836.79,-0.07248777533502863
3837.69,-0.0759843619407569
3838.59,-0.07991288038390666
3839.49,-0.08535311183855411
3840.39,-0.09235958535934023
3841.29,-0.1009772725207282
3842.19,-0.1108452410501146
3843.09,-0.12121497152688035
3843.99,-0.1320522754521445
3844.89,-0.1413840471516475
3845.79,-0.15066268144819112
3846.69,-0.1585890776852644
3847.59,-0.16496218962356754
3848.49,-0.1706342776531657
3849.39,-0.17663284004930643
3850.29,-0.18130385086786016
3851.19,-0.1865320591061753
3852.09,-0.1943102786230425
3852.99,-0.1997949149417091
3853.89,-0.20467307530866116
3854.79,-0.20923487484166128
3855.69,-0.21318061722588877
3856.59,-0.21469397071917187
3857.49,-0.21600631813516824
3858.39,-0.2170238962498132
3859.29,-0.22116273658575475
3860.19,-0.22646443456273527
3861.09,-0.2363541089554927
3861.99,-0.25083554710412465
3862.9,-0.26746926068992116
3863.8,-0.2843903605018838
3864.7,-0.29940063651147186
3865.6,-0.3117140486137179
3866.5,-0.3229709460563126
3867.4,-0.3323725583852241
3868.3,-0.3428993928921473
3869.2,-0.3497506626990135
3870.1,-0.35533793416286735
3871.0,-0.36121270587105075
3871.9,-0.3648991843748835
3872.8,-0.3722192529182957
3873.7,-0.38451148130603335
3874.6,-0.4016928938987622
3875.5,-0.42019891971233175
3876.4,-0.4397261953342253
3877.3,-0.4593738989703375
3878.2,-0.47310536352870264
3879.1,-0.48908649486883543
3880.0,-0.5067506327999993
3880.9,-0.5258523768249459
3881.8,-0.5483492575088815
3882.7,-0.5702993714403238
3883.6,-0.5889235060044957
3884.5,-0.6054608921561719
3885.4,-0.6173786505762557
3886.3,-0.6238297442669989
3887.2,-0.6284800576033462
3888.1,-0.6437530948017313
3889.0,-0.6674671698061794
3889.9,-0.7125339678018623
3890.8,-0.7801034091720334
3891.7,-0.8735033991436846
3892.6,-0.9832211068272511
3893.5,-1.1021751194693348
3894.4,-1.2268836601722093
3895.3,-1.3627073635039268
3896.2,-1.5112826747443096
3897.1,-1.6732043449768843
3898.0,-1.8818555216141433
3898.9,-2.105231020384615
3899.8,-2.3766024086935076
3900.7,-2.715330766141382
3901.6,-3.128225291761003
3902.51,-3.662907348229832
3903.41,-4.351461357285501
3904.31,-5.371675462138202
3905.21,-6.926836269549823
3906.11,-9.856659381023539
3907.01,-16.99370276367602
3907.91,-55.123721060226636
3908.81,49.702295842183766
3909.71,17.91582254964863
3910.61,11.269497157266374
3911.51,8.340408742479775
3912.41,6.644525634811803
3913.31,5.52522791976051
3914.21,4.704764387254738
3915.11,4.08664583789295
3916.01,3.6198585363462414
3916.91,3.2231083391290616
3917.81,2.8934485961340966
3918.71,2.633364560823341
3919.61,2.3954966746649657
3920.51,2.2228239776717724
3921.41,2.0481788245610084
3922.31,1.911957721285944
3923.21,1.8058814759587098
3924.11,1.7062568468894992
3925.01,1.59942063445932
3925.91,1.4866549808487552
3926.81,1.3661874118979014
3927.71,1.228053449400518
3928.61,1.0809639278713792
3929.51,0.9433517427174288
3930.41,0.8066738365534015
3931.31,0.6822868067401141
3932.21,0.5733320127010013
3933.11,0.4879736244634135
3934.01,0.43826842364776647
3934.91,0.422308097187794
3935.81,0.43887344177260407
3936.71,0.4856464553991375
3937.61,0.5509428950492979
3938.51,0.6305385197106348
3939.42,0.7060006584811633
3940.32,0.773627974105765
3941.22,0.8259510325725057
3942.12,0.8617881556687307
3943.02,0.8865097164226398
3943.92,0.9023298150591806
3944.82,0.9165374053749644
3945.72,0.9326578823159459
3946.62,0.9491392136027689
3947.52,0.969504034202669
3948.42,0.9803064847140068
3949.32,0.9848594848174641
3950.22,0.9880074632527995
3951.12,0.9941316322035884
3952.02,0.9903464375442412
3952.92,0.9876317910734802
3953.82,0.9824077101716122
3954.72,0.9787412009216268
3955.62,0.9669843613940726
3956.52,0.9546500975793641
3957.42,0.9371817860312913
3958.32,0.91884450831118
3959.22,0.8963191562092642
3960.12,0.867572443990927
3961.02,0.8266571064121756
3961.92,0.7742025319413958
3962.82,0.7193098962517689
3963.72,0.6620473700095953
3964.62,0.6010779475262038
3965.52,0.5359528759469648
3966.42,0.46973386462939326
3967.32,0.41223759619784817
3968.22,0.3621342457708237
3969.12,0.331019059979224
3970.02,0.3222490940801178
3970.92,0.3393578358639104
3971.82,0.37469546040253854
3972.72,0.42779734790417023
3973.62,0.4876992106694001
3974.52,0.5525062737089533
3975.42,0.6159830951222356
3976.32,0.671171094076156
3977.22,0.7238981753810889
3978.13,0.7698776762915646
3979.03,0.8100370068338814
3979.93,0.8390893163341805
3980.83,0.8615760301309108
3981.73,0.8801149337030506
3982.63,0.8859092215593427
3983.53,0.8924287772380476
3984.43,0.8955836156943727
3985.33,0.904603236269082
3986.23,0.9164125245610657
3987.13,0.9162268943753175
3988.03,0.9295709459164448
3988.93,0.9447213199993673
3989.83,0.9479454878877391
3990.73,0.9582134397978312
3991.63,0.9674814911500996
3992.53,0.9704503933537101
3993.43,0.9714159817143058
3994.33,0.9722285473071418
3995.23,0.9629223401513298
3996.13,0.9479105338751513
3997.03,0.9472221754719409
3997.93,0.9384231728103339
3998.83,0.9422600181152332
3999.73,0.9538979510581853
4000.63,0.967654878185684
4001.53,0.979087496375212
4002.43,0.990279505379837
4003.33,0.9854939344665046
4004.23,0.9732820932387639
4005.13,0.9620915166328537
4006.03,0.9547349330761594
4006.93,0.9474742956049625
4007.83,0.94844479361229
4008.73,0.958345249127908
4009.63,0.9706578446681132
4010.53,0.9900326700166258
4011.43,1.0007147863403643
4012.33,1.0104131850750817
4013.23,1.0169238809632943
4014.13,1.0185310824956115
4015.03,1.021506854248699
4015.93,1.0217166673139502
4016.84,1.019345554726645
4017.74,1.022681008480993
4018.64,1.0285735095617414
4019.54,1.0330429741335516
4020.44,1.0360265383026361
4021.34,1.0314875934092878
4022.24,1.0325342708993455
4023.14,1.0290852129373975
4024.04,1.034010657907128
4024.94,1.0337030962371843
4025.84,1.0362846846962106
4026.74,1.044576972383589
4027.64,1.0464661845051568
4028.54,1.0396756187346883
4029.44,1.0365676177650103
4030.34,1.0171252573163758
4031.24,0.9910102299187956
4032.14,0.9702565712445047
4033.04,0.9605540065435558
4033.94,0.9562854996652813
4034.84,0.964986148136139
4035.74,0.98586617789808
4036.64,1.015427513315465
4037.54,1.041215940012722
4038.44,1.0612567717083217
4039.34,1.0747474004656987
4040.24,1.0742906411052098
4041.14,1.0680995091990813
4042.04,1.0545992369050226
4042.94,1.0319356714452481
4043.84,1.004632707990163
4044.74,0.9824590159244121
4045.64,0.9591893110977845
4046.54,0.9535394423237411
4047.44,0.9557430355771823
4048.34,0.9746872245738923
4049.24,1.005351468498661
4050.14,1.029443481965867
4051.04,1.0459106943141647
4051.94,1.0524965527451138
4052.84,1.044166101588119
4053.74,1.0344336062574424
4054.65,1.0288560752577445
4055.55,1.0120594262832072
4056.45,1.005283077690521
4057.35,0.9960249056822552
4058.25,0.9968530628381881
4059.15,0.9944277879622918
4060.05,1.0041276901342429
4060.95,1.0023592671061812
4061.85,0.9981394171080091
4062.75,0.9824194250134749
4063.65,0.9732670618189037
4064.55,0.9659566958639901
4065.45,0.9576475874002125
4066.35,0.9674252478776236
4067.25,0.9760474782916542
4068.15,0.9904632263624886
4069.05,1.0012834677669644
4069.95,1.0119678023425016
4070.85,1.0122058801669231
4071.75,1.0084204741816158
4072.65,1.0091610008908096
4073.55,0.9984120140001876
4074.45,0.9884885536309642
4075.35,0.9788963350652301
4076.25,0.9642694573876983
4077.15,0.9497000501641566
4078.05,0.9399054105532413
4078.95,0.9416640729195169
4079.85,0.9556181830701682
4080.75,0.9746412864681726
4081.65,0.9895794801055895
4082.55,1.0093993221105642
4083.45,1.018454698469303
4084.35,1.0257106862256524
4085.25,1.027938219080634
4086.15,1.0334171650314086
4087.05,1.042759671964821
4087.95,1.062944300068251
4088.85,1.0730253302032342
4089.75,1.0833374692692055
4090.65,1.086754589599432
4091.55,1.0814687913621528
4092.45,1.0696098514780186
4093.36,1.061153273673665
4094.26,1.0409785795970337
4095.16,1.0220076729074292
4096.06,0.9990268554527773
4096.96,0.9731438640250891
4097.86,0.9395531858706845
4098.76,0.9022139472849219
4099.66,0.8674392823389264
4100.56,0.8316439048672103
4101.46,0.8010739391387438
4102.36,0.787620006444043
4103.26,0.7859123012748401
4104.16,0.8014995948376018
4105.06,0.8335381961180323
4105.96,0.8726946659066532
4106.86,0.9111763204220964
4107.76,0.9367189431414771
4108.66,0.9598901205556086
4109.56,0.9717901887805969
4110.46,0.9805405252036825
4111.36,0.9914450940618247
4112.26,0.999264193511575
4113.16,1.0125541156747528
4114.06,1.0239766849016871
4114.96,1.0396160198505653
4115.86,1.0433863907790877
4116.76,1.0477312025224743
4117.66,1.044082966334876
4118.56,1.0385254658370255
4119.46,1.0279966702524044
4120.36,1.0236949315414865
4121.26,1.0203694017922427
4122.16,1.0209579897544605
4123.06,1.0191837776273955
4123.96,1.0211392898315357
4124.86,1.025516913835413
4125.76,1.0282589645307036
4126.66,1.030819831904648
4127.56,1.0283313780949046
4128.46,1.019922240251515
4129.36,1.0123384845896175
4130.26,0.9985114266198024
4131.17,0.989465412003596
4132.06,0.9840286448163852
4132.97,0.9724988682843966
4133.87,0.9660809801662199
4134.77,0.9775228452645861
4135.67,0.990075878998489
4136.57,1.0090727979920515
4137.47,1.0332725980403379
4138.37,1.043820187048913
4139.27,1.059664447446654
4140.17,1.0553735460213276
4141.07,1.047391264592611
4141.97,1.0257075112393554
4142.87,1.0093657357375194
4143.77,0.9897929120144638
4144.67,0.982496673272869
4145.57,0.9832894099132413
4146.47,0.989913646096605
4147.37,1.0041351243498122
4148.27,1.0122632014163087
4149.17,1.015234098888321
4150.07,1.0203101336605724
4150.97,1.0188839305437154
4151.87,1.0098507613446486
4152.77,1.0076332652958322
4153.67,1.002967060260326
4154.57,0.9966032523565594
4155.47,0.993634055090866
4156.37,0.9966631987482009
4157.27,0.9991005603125755
4158.17,1.0107637049395088
4159.07,1.0173434378676542
4159.97,1.0285666179832034
4160.87,1.0460470084320581
4161.77,1.0576380853818883
4162.67,1.0563129886816804
4163.57,1.065225332366002
4164.47,1.0634699369067617
4165.37,1.0587336076663854
4166.27,1.0531111878020785
4167.17,1.0483053078540072
4168.07,1.034364794498567
4168.98,1.029519935272824
4169.88,1.0179617059974782
4170.78,1.0002591910663183
4171.68,0.9877364757514925
4172.58,0.9711317099261199
4173.48,0.9510108781885125
4174.38,0.9427902927272946
4175.28,0.9414791858491113
4176.18,0.9456436495234409
4177.08,0.9538181407173143
4177.98,0.966421870198117
4178.88,0.9774211081188863
4179.78,0.9823365601659408
4180.68,0.9910229592744203
4181.58,0.9920709843157111
4182.48,1.0016724585779835
4183.38,1.0058162515448061
4184.28,1.002170550690191
4185.18,1.0046582904148202
4186.08,1.0013273415549606
4186.98,1.002128968277995
4187.88,1.0017739662184826
4188.78,0.9958967671939788
4189.68,1.001595699536353
4190.58,1.0074842852674928
4191.48,1.01705953209823
4192.38,1.0256891501081156
4193.28,1.0336410267469067
4194.18,1.0320606918366555
4195.08,1.0295007632821223
4195.98,1.0206030970446847
4196.88,1.0011458278690744
4197.78,0.9822279686559706
4198.68,0.9704070403229703
4199.58,0.9640976680406026
4200.48,0.9523717757628449
4201.38,0.9527813551594247
4202.28,0.9564939772154105
4203.18,0.9632714481685258
4204.08,0.9801324205753826
4204.98,0.9887013238061361
4205.88,1.0010302051890871
4206.79,1.01352363366622
4207.69,1.029897848246079
4208.59,1.0380636284195828
4209.49,1.0537456845551862
4210.39,1.0606422851140391
4211.29,1.0613906982369181
4212.19,1.058118925838632
4213.09,1.0562336961759462
4213.99,1.0453020082719484
4214.89,1.0321743423849443
4215.79,1.0255717238021267
4216.69,1.0227024987952211
4217.59,1.026609717581764
4218.49,1.0354621053722732
4219.39,1.048000293078243
4220.29,1.0590736969915555
4221.19,1.0605138363572604
4222.09,1.0530324886146196
4222.99,1.0315841257864462
4223.89,0.9999545113180588
4224.79,0.9632650244528175
4225.69,0.9254362905034811
4226.59,0.8983067506677714
4227.49,0.8885663894448549
4228.39,0.8945998512690714
4229.29,0.9207205848268329
4230.19,0.9537883825771366
4231.09,0.987942445290564
4231.99,1.0102562564304036
4232.89,1.0265301123684645
4233.79,1.0305187268978304
4234.69,1.0245399514035485
4235.59,1.0176179676870292
4236.49,1.0090834677919602
4237.39,1.0058540003984124
4238.29,1.0008304924682865
4239.19,1.0087393764016845
4240.09,1.0119149018444653
4240.99,1.027673929618597
4241.89,1.0430792046872885
4242.79,1.0539334583339564
4243.69,1.0604446548159239
4244.59,1.0658651043127616
4245.5,1.0618848095097957
4246.4,1.056402041020514
4247.3,1.0483554916193265
4248.2,1.0290234084761505
4249.1,1.021779100283728
4250.0,1.0112035524754455
4250.9,1.0098615756681193
4251.8,1.005434039428212
4252.7,1.011014296759446
4253.6,1.0185212982045766
4254.5,1.024134469948914
4255.4,1.0287706481690915
4256.3,1.0301954395325486
4257.2,1.0310045782971302
4258.1,1.0321471711522634
4259.0,1.0260931483460491
4259.9,1.0163559918263705
4260.8,1.0150303213769605
4261.7,1.0173140528957696
4262.6,1.02750070651235
4263.5,1.0489086219069907
4264.4,1.0658156100410139
4265.3,1.0842594752645598
4266.2,1.0910181861130746
4267.1,1.0906217289077924
4268.0,1.0799339693860757
4268.9,1.0555364308493747
4269.8,1.0339748224257708
4270.7,1.002286803411924
4271.6,0.9758924552255398
4272.5,0.9524593447955152
4273.4,0.9478554958305655
4274.3,0.9506549426234677
4275.2,0.9615987173446563
4276.1,0.9811554101667699
4277.0,1.0059729335540273
4277.9,1.0252218311296628
4278.8,1.042098050298392
4279.7,1.0454536279434117
4280.6,1.0500027869480402
4281.5,1.044407968483171
4282.4,1.0406523508248267
4283.31,1.0349447104368068
4284.21,1.0242313336505562
4285.11,1.0173885160031937
4286.01,1.0045862011439999
4286.91,0.9894267247622691
4287.81,0.9769379879380891
4288.71,0.9605201615815782
4289.61,0.9507494012059982
4290.51,0.945252591251611
4291.41,0.9422724146965804
4292.31,0.9485341559903858
4293.21,0.9596259216667309
4294.11,0.9646311550382243
4295.01,0.9748992120243742
4295.91,0.9648657000133851
4296.81,0.9484380756507463
4297.71,0.9251535542410088
4298.61,0.8991166628397942
4299.51,0.8669666119899047
4300.41,0.8366599779358169
4301.31,0.820003998711448
4302.21,0.8050047216314365
4303.11,0.804483817737258
4304.01,0.8049077229667921
4304.91,0.802855730760714
4305.81,0.8030124006942984
4306.71,0.8017106458543405
4307.61,0.7952865337443936
4308.51,0.792179720942166
4309.41,0.794542360019736
4310.31,0.7994491128956215
4311.21,0.814710982705723
4312.11,0.8432452229428651
4313.01,0.8764275151344503
4313.91,0.9188661884737604
4314.81,0.96037621696709
4315.71,1.0100543308320404
4316.61,1.0543109720086434
4317.51,1.0964674720014629
4318.41,1.1216957205123197
4319.31,1.1358730941048423
4320.21,1.1410985804544005
4321.12,1.1270403257767767
4322.02,1.1013353222477893
4322.92,1.0645722065952594
4323.82,1.0296342397913396
4324.72,0.9956284689156796
4325.62,0.9723179927140826
4326.52,0.9686197133240977
4327.42,0.9771100845758003
4328.32,0.9959031530829137
4329.22,1.022757406963799
4330.12,1.0485005506011902
4331.02,1.0767333825679197
4331.92,1.0852226151884274
4332.82,1.0977701585211979
4333.72,1.0974048373636316
4334.62,1.0894765992967679
4335.52,1.0650865139567123
4336.42,1.033597072976458
4337.32,0.9881880687862952
4338.22,0.9398482232604314
4339.12,0.8888893850506688
4340.02,0.8532061064837745
4340.92,0.8278620270148249
4341.82,0.8262172673091761
4342.72,0.8407190847662733
4343.62,0.8708488498841785
4344.52,0.9105286407248427
4345.42,0.948867749139908
4346.32,0.9845417612853361
4347.22,1.0154444444302722
4348.12,1.0399294183706747
4349.02,1.047419129287981
4349.92,1.0473360392477578
4350.82,1.0383776813011762
4351.72,1.0271090156106915
4352.62,1.0144952078917386
4353.52,1.0081540302964385
4354.42,1.012767959834254
4355.32,1.0259139661426657
4356.22,1.0398601802925693
4357.12,1.0530209183734165
