wave,flux
3700.85,-8.460434908369605e-05
3701.75,-8.386388238265634e-05
3702.65,-8.152516494600223e-05
3703.55,-7.788501494260141e-05
3704.45,-7.4380638858237e-05
3705.35,-7.089978912134334e-05
3706.25,-6.84635391856903e-05
3707.15,-6.778637567060601e-05
3708.05,-6.781847107544237e-05
3708.96,-6.950839060943899e-05
3709.86,-7.168950065329146e-05
3710.76,-7.48906786564079e-05
3711.66,-7.878170621458356e-05
3712.56,-8.256477270089576e-05
3713.46,-8.725810451918127e-05
3714.36,-9.05998446003883e-05
3715.26,-9.249068925513065e-05
3716.16,-9.334193439737971e-05
3717.06,-9.22566685581141e-05
3717.96,-8.90138179449367e-05
3718.86,-8.379028742079151e-05
3719.76,-7.810317604817255e-05
3720.66,-7.31914598187217e-05
3721.56,-6.956786064933046e-05
3722.46,-6.882735235429469e-05
3723.36,-7.152471471266137e-05
3724.26,-7.589953596690076e-05
3725.16,-8.128836713109396e-05
3726.06,-8.559124355312507e-05
3726.96,-8.876342523165137e-05
3727.86,-9.009994131544832e-05
3728.76,-9.062657128056827e-05
3729.66,-9.035378446392318e-05
3730.56,-8.92351464526026e-05
3731.46,-8.650453297480594e-05
3732.36,-8.170993040749913e-05
3733.26,-7.671983238065038e-05
3734.16,-7.08893781782849e-05
3735.06,-6.697579320351215e-05
3735.96,-6.48670054445966e-05
3736.86,-6.61732885624546e-05
3737.76,-7.036284608832282e-05
3738.66,-7.617413922196018e-05
3739.56,-8.313809885949575e-05
3740.46,-8.955412256944569e-05
3741.36,-9.413069031417298e-05
3742.26,-9.561119987615845e-05
3743.16,-9.428587598806656e-05
3744.06,-9.20869683781761e-05
3744.96,-8.798378240370423e-05
3745.86,-8.417343426208144e-05
3746.76,-7.971431854263456e-05
3747.67,-7.599951543991387e-05
3748.57,-7.322819278964816e-05
3749.47,-7.227246601974535e-05
3750.37,-7.375530041759727e-05
3751.27,-7.822216130051621e-05
3752.17,-8.476237387641457e-05
3753.07,-9.372582596479534e-05
3753.97,-0.00010212646573418629
3754.87,-0.00010841283041932904
3755.77,-0.000111555727367311
3756.67,-0.00011194382797044378
3757.57,-0.00010984761323180714
3758.47,-0.00010642103264097317
3759.37,-0.00010337408608117355
3760.27,-0.00010225596930307333
3761.17,-0.00010252533383992101
3762.07,-0.00010512689398516438
3762.97,-0.00010772551707594078
3763.87,-0.00010975445937454512
3764.77,-0.00011105191982993149
3765.67,-0.00011133415242672994
3766.57,-0.00011160272460531639
3767.47,-0.0001109263852955182
3768.37,-0.00010984341429216805
3769.27,-0.0001092454948833626
3770.17,-0.0001101647013145528
3771.07,-0.00011165262904589938
3771.97,-0.00011451435442703725
3772.87,-0.00011845110891778661
3773.77,-0.00012340638363301788
3774.67,-0.00012808712776233032
3775.57,-0.00013155006150395682
3776.47,-0.0001348753332857525
3777.37,-0.00013742573749695917
3778.27,-0.0001407654524926209
3779.17,-0.00014425014456647626
3780.07,-0.00014830670991441543
3780.97,-0.00015180761119147726
3781.87,-0.00015472848618255984
3782.77,-0.00015691352889858214
3783.67,-0.00015707266055520408
3784.57,-0.0001558512923008184
3785.47,-0.00015318846430732242
3786.38,-0.0001486845295275282
3787.28,-0.0001442786230189305
3788.18,-0.0001402601113534634
3789.08,-0.00013717919198021395
3789.98,-0.0001354690310618429
3790.88,-0.00013550718173652962
3791.78,-0.00013463264231785153
3792.68,-0.00013396607687326262
3793.58,-0.00013250104150509782
3794.48,-0.0001292839732957759
3795.38,-0.00012571422365367752
3796.28,-0.00012157787437161822
3797.18,-0.00011708418628239887
3798.08,-0.00011554940857179741
3798.98,-0.00011621601064130949
3799.88,-0.00012055081199921764
3800.78,-0.00012745607388726539
3801.68,-0.0001371190806023306
3802.58,-0.00014747101825379188
3803.48,-0.00015687713769368556
3804.38,-0.00016316003438222816
3805.28,-0.0001675093133948749
3806.18,-0.000168681667279482
3807.08,-0.00017019149723946538
3807.98,-0.000171159094778857
3808.88,-0.00017290587415264648
3809.78,-0.0001751009637789459
3810.68,-0.00017746984891477165
3811.58,-0.0001773206265248067
3812.48,-0.000174759344694328
3813.38,-0.00017060565084244325
3814.28,-0.00016514029005475437
3815.18,-0.00016020891084959216
3816.08,-0.0001574720796855728
3816.98,-0.00015581484495706547
3817.88,-0.00015577666055529375
3818.78,-0.00015598210176278514
3819.68,-0.00015469005813558895
3820.58,-0.00015405488817247484
3821.48,-0.00015202283255381064
3822.38,-0.00015224524619441454
3823.28,-0.00015035953226634897
3824.18,-0.0001482917864191399
3825.09,-0.0001456220455548522
3825.99,-0.0001416055567462794
3826.89,-0.00013824253212960905
3827.79,-0.0001357957386487499
3828.69,-0.00013491831711007551
3829.59,-0.00013426195321195543
3830.49,-0.00013332881577432948
3831.39,-0.0001315895419896374
3832.29,-0.00012688888742892483
3833.19,-0.00012291360662348004
3834.09,-0.0001191947748079764
3834.99,-0.00011651539537833243
3835.89,-0.00011613049697476649
3836.79,-0.00011697208699106968
3837.69,-0.0001192529843427165
3838.59,-0.00012292167761908255
3839.49,-0.00012820642413113577
3840.39,-0.00013504675252328383
3841.29,-0.0001439709607618092
3842.19,-0.00015579362392504947
3843.09,-0.0001687383069796141
3843.99,-0.00017951042012104236
3844.89,-0.0001894587365624211
3845.79,-0.00019660189828136346
3846.69,-0.00020288141846381435
3847.59,-0.00020587314318498194
3848.49,-0.00020773862556104468
3849.39,-0.0002104008179273017
3850.29,-0.00021094947997140357
3851.19,-0.00021218421950561526
3852.09,-0.00021411650468071
3852.99,-0.00021521874322399253
3853.89,-0.0002171310311228375
3854.79,-0.00021599353701641115
3855.69,-0.00021280631636132964
3856.59,-0.00020960159738915593
3857.49,-0.00020428911187462943
3858.39,-0.0002015114789085647
3859.29,-0.00019925917150517304
3860.19,-0.00019867172124086814
3861.09,-0.00020237227425873425
3861.99,-0.0002094517049172506
3862.9,-0.0002186059728147885
3863.8,-0.00022696489863089029
3864.7,-0.00023461605203462267
3865.6,-0.0002386998140462275
3866.5,-0.00023895055245144557
3867.4,-0.00024065008056088755
3868.3,-0.00023959600083038092
3869.2,-0.00023745736163137635
3870.1,-0.00023413737294920528
3871.0,-0.0002295372250365481
3871.9,-0.00022506344338044755
3872.8,-0.00022329838519445592
3873.7,-0.0002232589401805383
3874.6,-0.00022652150175410572
3875.5,-0.00023123534819551196
3876.4,-0.0002334255960517667
3877.3,-0.00023399265132512202
3878.2,-0.00023436703730434606
3879.1,-0.00023267725505855187
3880.0,-0.00023199145447411345
3880.9,-0.0002326909940404607
3881.8,-0.00023432115652673367
3882.7,-0.00023451932775265394
3883.6,-0.00023373062775170769
3884.5,-0.00023092121219464698
3885.4,-0.00022624354348118914
3886.3,-0.00021843421840998713
3887.2,-0.00021146095465122028
3888.1,-0.00020629145663906897
3889.0,-0.00020503580324520421
3889.9,-0.00020822186181815959
3890.8,-0.00021567335656717346
3891.7,-0.00022741911537699157
3892.6,-0.0002396115224369125
3893.5,-0.0002509375145327637
3894.4,-0.0002608927063579925
3895.3,-0.00026874628912900437
3896.2,-0.0002733184838617214
3897.1,-0.0002797837328760546
3898.0,-0.0002839894645122385
3898.9,-0.0002882989253851881
3899.8,-0.00029217642131333465
3900.7,-0.0002961066831661121
3901.6,-0.00029786850572366283
3902.51,-0.00029784479033056723
3903.41,-0.0002992319617593221
3904.31,-0.00029753579533716486
3905.21,-0.00029551642475161616
3906.11,-0.00029838586207474587
3907.01,-0.00030192596473787285
3907.91,-0.00031007844215584556
3908.81,-0.00032126606404648704
3909.71,-0.00033277842217130154
3910.61,-0.0003431288038175694
3911.51,-0.00035185239866048336
3912.41,-0.00035670724921456657
3913.31,-0.0003605394257408308
3914.21,-0.00036131748806029796
3915.11,-0.0003593709392348327
3916.01,-0.0003570744521627696
3916.91,-0.0003526734065074209
3917.81,-0.00034860029507852316
3918.71,-0.0003430026002580555
3919.61,-0.0003378132998814871
3920.51,-0.0003322444380843825
3921.41,-0.000325398249329428
3922.31,-0.000323438636745672
3923.21,-0.0003227898062884394
3924.11,-0.0003207898527158342
3925.01,-0.0003151415602335715
3925.91,-0.0003074478770437048
3926.81,-0.00029425978835954437
3927.71,-0.00027614321693837657
3928.61,-0.00025146512834231223
3929.51,-0.00022694314832535586
3930.41,-0.00020001391532138064
3931.31,-0.00017448113345107304
3932.21,-0.00015178953454817687
3933.11,-0.00013340263988082546
3934.01,-0.0001232735334409353
3934.91,-0.00012213644374744768
3935.81,-0.00013124829478238046
3936.71,-0.00014889563854749672
3937.61,-0.0001744726125665459
3938.51,-0.00020334310819072814
3939.42,-0.0002357916718199032
3940.32,-0.0002622310889105414
3941.22,-0.0002864927482832486
3942.12,-0.00030598635513212933
3943.02,-0.0003227240308877123
3943.92,-0.0003372878975804527
3944.82,-0.00034999828163899237
3945.72,-0.0003656562748695012
3946.62,-0.0003802023863083932
3947.52,-0.00039296494942837114
3948.42,-0.000408116181490138
3949.32,-0.00041844077479489346
3950.22,-0.00042870224048912275
3951.12,-0.00043594629979543185
3952.02,-0.0004444267702050938
3952.92,-0.0004514469008123266
3953.82,-0.0004539043021122795
3954.72,-0.00045721900020030643
3955.62,-0.00045980454527573187
3956.52,-0.00046012733839183
3957.42,-0.0004571721820531089
3958.32,-0.000453815885187756
3959.22,-0.0004485031876046669
3960.12,-0.000437681446873563
3961.02,-0.0004226976180050217
3961.92,-0.0004012293073839349
3962.82,-0.00037438366821769954
3963.72,-0.0003476755124420208
3964.62,-0.000316850065794062
3965.52,-0.0002870995449084786
3966.42,-0.00025455291643260695
3967.32,-0.00022474598311602337
3968.22,-0.0001992480283882361
3969.12,-0.0001843626337834269
3970.02,-0.00018153942347689256
3970.92,-0.00019363764508826723
3971.82,-0.00021771402814886162
3972.72,-0.0002514230905729132
3973.62,-0.0002933348023264898
3974.52,-0.0003336523930199059
3975.42,-0.00037336469975400056
3976.32,-0.00041459444964066136
3977.22,-0.000451177067380389
3978.13,-0.0004834285974841759
3979.03,-0.0005139950543108053
3979.93,-0.0005370261380814611
3980.83,-0.0005560809079862059
3981.73,-0.0005734940998879853
3982.63,-0.000583246292109219
3983.53,-0.0005913256111622392
3984.43,-0.0006006327964077692
3985.33,-0.0006090818526719492
3986.23,-0.000620588354088049
3987.13,-0.0006308818783323184
3988.03,-0.0006392504759647156
3988.93,-0.0006528944493264118
3989.83,-0.0006662258502061547
3990.73,-0.000677105359092536
3991.63,-0.0006853671540260354
3992.53,-0.0006935630578343241
3993.43,-0.0007027925103725398
3994.33,-0.000701929546023758
3995.23,-0.0007027797065568262
3996.13,-0.0007002478101754519
3997.03,-0.0006983611095999837
3997.93,-0.0007002368021126188
3998.83,-0.0007054219297051823
3999.73,-0.0007189305317143996
4000.63,-0.0007331522812413174
4001.53,-0.0007528616092037053
4002.43,-0.0007599765434944639
4003.33,-0.0007659746671276177
4004.23,-0.000764017535206563
4005.13,-0.0007595483223666097
4006.03,-0.0007510528890992845
4006.93,-0.000752483667452032
4007.83,-0.00076129660758037
4008.73,-0.0007727540371765012
4009.63,-0.000790449714563971
4010.53,-0.0008106355864027959
4011.43,-0.0008245885017179074
4012.33,-0.0008408753360777111
4013.23,-0.0008473622395151704
4014.13,-0.0008551463641553748
4015.03,-0.0008594911733570087
4015.93,-0.0008685842783740567
4016.84,-0.0008750469394745239
4017.74,-0.0008813923246864139
4018.64,-0.0008867542079496532
4019.54,-0.0008963918676711933
4020.44,-0.0009038823773944626
4021.34,-0.0009115475814354837
4022.24,-0.0009163135368105329
4023.14,-0.0009238000224804108
4024.04,-0.0009295699158852495
4024.94,-0.000934186216006162
4025.84,-0.0009452218992684639
4026.74,-0.0009525076666275864
4027.64,-0.000962217221131878
4028.54,-0.0009728638228122214
4029.44,-0.0009670889042863203
4030.34,-0.0009575465873253025
4031.24,-0.0009398581619218102
4032.14,-0.0009212674221312024
4033.04,-0.0009159544167959784
4033.94,-0.0009176807931504101
4034.84,-0.0009368357104187
4035.74,-0.0009624014404884725
4036.64,-0.0009978035060453016
4037.54,-0.0010280677106043877
4038.44,-0.0010585760438858564
4039.34,-0.0010769480604812713
4040.24,-0.0010893773865628955
4041.14,-0.0010871513250681844
4042.04,-0.0010768404131941266
4042.94,-0.0010625923210399843
4043.84,-0.0010376254751411238
4044.74,-0.0010210182947753465
4045.64,-0.0010024909657619472
4046.54,-0.0009989317207929147
4047.44,-0.001007424758066513
4048.34,-0.0010371937481225208
4049.24,-0.0010763215006306902
4050.14,-0.0011094532345167103
4051.04,-0.001139410289851326
4051.94,-0.0011587718507168824
4052.84,-0.0011687890748086753
4053.74,-0.0011645931035804684
4054.65,-0.0011561861624873554
4055.55,-0.0011513767634873354
4056.45,-0.0011510387062744795
4057.35,-0.001147605151187442
4058.25,-0.0011598379196248866
4059.15,-0.001165343900370582
4060.05,-0.001172675703985651
4060.95,-0.0011829952008971735
4061.85,-0.001184399842903566
4062.75,-0.0011771999048963808
4063.65,-0.0011639625707504566
4064.55,-0.0011613002734207278
4065.45,-0.0011677136609016198
4066.35,-0.0011819140420114348
4067.25,-0.0012034983636213152
4068.15,-0.0012330838148489243
4069.05,-0.0012587126752182788
4069.95,-0.0012723884912925936
4070.85,-0.0012941683460002502
4071.75,-0.001296332357674371
4072.65,-0.0012976171355408661
4073.55,-0.001295311082133369
4074.45,-0.001295196938680439
4075.35,-0.0012884729117404628
4076.25,-0.0012849007669761168
4077.15,-0.0012710333436361926
4078.05,-0.001276383345049772
4078.95,-0.0012854060621459158
4079.85,-0.0013032126797496788
4080.75,-0.001346848355299019
4081.65,-0.0013928222075347688
4082.55,-0.0014209021314669848
4083.45,-0.001444956405796712
4084.35,-0.0014659509277974495
4085.25,-0.0014812809218105326
4086.15,-0.0015004495086603411
4087.05,-0.0015325127602380363
4087.95,-0.001569788137480071
4088.85,-0.0016005477222201239
4089.75,-0.001631188374937415
4090.65,-0.001644836324201422
4091.55,-0.0016548263929610832
4092.45,-0.0016583938481088863
4093.36,-0.0016468518825686455
4094.26,-0.0016347496675569177
4095.16,-0.0016194039536816976
4096.06,-0.0015941930967534107
4096.96,-0.00156848487834864
4097.86,-0.0015275417415027963
4098.76,-0.0014858752429579508
4099.66,-0.0014381197681811045
4100.56,-0.0013973357378891738
4101.46,-0.0013595889715368732
4102.36,-0.0013404901873635018
4103.26,-0.0013557603912344833
4104.16,-0.0013928513466430015
4105.06,-0.0014550661489501435
4105.96,-0.0015310554562197249
4106.86,-0.0015981366234800649
4107.76,-0.0016581515743193927
4108.66,-0.0017100135002328873
4109.56,-0.0017436578242123273
4110.46,-0.0017669716489954357
4111.36,-0.0017981007065662694
4112.26,-0.0018264584996859551
4113.16,-0.0018537491494365398
4114.06,-0.0018925663301583991
4114.96,-0.001927979317866012
4115.86,-0.001951320435518264
4116.76,-0.0019794692479854527
4117.66,-0.001983098325997235
4118.56,-0.0019786039868743936
4119.46,-0.001986130974049812
4120.36,-0.0019948497190649026
4121.26,-0.0020019520036411646
4122.16,-0.0020078770631677617
4123.06,-0.002023224079879764
4123.96,-0.002049892446141184
4124.86,-0.00206672661797779
4125.76,-0.0020950691210962344
4126.66,-0.002107524417098263
4127.56,-0.0021102836825819637
4128.46,-0.0021151562675300545
4129.36,-0.002114616378388215
4130.26,-0.0021087120908832974
4131.17,-0.0021046724171197894
4132.06,-0.002088676006181837
4132.97,-0.0020923696886820274
4133.87,-0.002103704819018633
4134.77,-0.0021278712643905615
4135.67,-0.0021804087995117424
4136.57,-0.0022364939902070166
4137.47,-0.0023054712265692086
4138.37,-0.002360961649989956
4139.27,-0.002404294870522651
4140.17,-0.0024141040350644204
4141.07,-0.0024124419291185924
4141.97,-0.0023917563092697657
4142.87,-0.0023611267992541935
4143.77,-0.002337316271495061
4144.67,-0.002327656640862661
4145.57,-0.002344325636475332
4146.47,-0.002383364927015206
4147.37,-0.0024332532269256573
4148.27,-0.002490488571262628
4149.17,-0.0025213643375286018
4150.07,-0.0025430814235589605
4150.97,-0.0025608710264491906
4151.87,-0.0025826683827401913
4152.77,-0.002571083682230394
4153.67,-0.0025864339585634686
4154.57,-0.0025960680216429058
4155.47,-0.002594612441259188
4156.37,-0.002619508651938801
4157.27,-0.0026651967164060602
4158.17,-0.002711137360724511
4159.07,-0.002756357562239779
4159.97,-0.0028107450564304327
4160.87,-0.00287209268058436
4161.77,-0.002923521370685335
4162.67,-0.002965125160221352
4163.57,-0.0029993632822053686
4164.47,-0.0030372661059873767
4165.37,-0.0030356706013076654
4166.27,-0.003036422486430907
4167.17,-0.003029147494451842
4168.07,-0.003037952734658532
4168.98,-0.003022514892967519
4169.88,-0.0030206460921702273
4170.78,-0.002991442194198484
4171.68,-0.002975601012668969
4172.58,-0.0029489045476289617
4173.48,-0.0029333836937191823
4174.38,-0.0029121544454415193
4175.28,-0.0029385719272645165
4176.18,-0.0029864417519893977
4177.08,-0.0030387058794931372
4177.98,-0.0030926600234890567
4178.88,-0.0031482086292746515
4179.78,-0.0032104290485624027
4180.68,-0.0032506449340125236
4181.58,-0.003280679577666559
4182.48,-0.0033266579161579674
4183.38,-0.003361705128789317
4184.28,-0.003385013211270201
4185.18,-0.0034260237875450464
4186.08,-0.0034408248340565663
4186.98,-0.0034548488123451594
4187.88,-0.0034703003914720253
4188.78,-0.003498286492240011
4189.68,-0.0035425005721692105
4190.58,-0.0035942160667583258
4191.48,-0.0036474340951238283
4192.38,-0.003705078960847561
4193.28,-0.0037443383694597283
4194.18,-0.003804332047441273
4195.08,-0.0038191128730980903
4195.98,-0.0038035667552379004
4196.88,-0.0037623773911099525
4197.78,-0.0037354989414774735
4198.68,-0.003703984669284577
4199.58,-0.003686263651912895
4200.48,-0.0037019936787897893
4201.38,-0.0037298626795440617
4202.28,-0.003768743616672586
4203.18,-0.003828321911467661
4204.08,-0.0039028274281275584
4204.98,-0.003986779324806304
4205.88,-0.004081708818655634
4206.79,-0.0041734117692689855
4207.69,-0.004268678813437464
4208.59,-0.004357736425567416
4209.49,-0.004427563087799288
4210.39,-0.004487042953010133
4211.29,-0.004522324810426232
4212.19,-0.0045534243567496
4213.09,-0.004569743927409112
4213.99,-0.004561214536444542
4214.89,-0.0045776893097032555
4215.79,-0.004560116550705779
4216.69,-0.004571075113309108
4217.59,-0.0046247751095662626
4218.49,-0.0047221107116093486
4219.39,-0.004804129228578175
4220.29,-0.004889303514548064
4221.19,-0.004969596136828963
4222.09,-0.004954779243473569
4222.99,-0.004881142655648881
4223.89,-0.004753187368544587
4224.79,-0.004620229433217656
4225.69,-0.004456805699892423
4226.59,-0.004356539965003864
4227.49,-0.004317879143443305
4228.39,-0.004419859043213712
4229.29,-0.004570705011103755
4230.19,-0.004789499979313687
4231.09,-0.005017140070828295
4231.99,-0.005192468295382973
4232.89,-0.005314306390386457
4233.79,-0.005381243173920552
4234.69,-0.005406397227038391
4235.59,-0.00538630158728821
4236.49,-0.005373360127679915
4237.39,-0.005398739787683685
4238.29,-0.0054536908112336946
4239.19,-0.005526686785245786
4240.09,-0.005647723216969845
4240.99,-0.005727759935014721
4241.89,-0.0058820054026192505
4242.79,-0.005971008533020077
4243.69,-0.006091765336602063
4244.59,-0.006169985071183046
4245.5,-0.006225796400820819
4246.4,-0.006255940670344893
4247.3,-0.00621756177631999
4248.2,-0.006181271445115834
4249.1,-0.006129423301621463
4250.0,-0.0061219189134717
4250.9,-0.006151183100815397
4251.8,-0.00618990755513285
4252.7,-0.006259743690401429
4253.6,-0.006388762424712504
4254.5,-0.006466232656285057
4255.4,-0.006556692148234535
4256.3,-0.0066206140489439335
4257.2,-0.006707343771128968
4258.1,-0.006729613433719454
4259.0,-0.006759151192567692
4259.9,-0.006770984733736402
4260.8,-0.0067911301297621605
4261.7,-0.006898062759896253
4262.6,-0.007025845226241941
4263.5,-0.007228321417700634
4264.4,-0.007430251527444075
4265.3,-0.007592037331669002
4266.2,-0.007718958765192422
4267.1,-0.007763602395058939
4268.0,-0.007757514416760959
4268.9,-0.00767775974762404
4269.8,-0.007556758218340401
4270.7,-0.00740742014283464
4271.6,-0.007263439931759466
4272.5,-0.0071538591309330815
4273.4,-0.007107213985739249
4274.3,-0.007199528809884361
4275.2,-0.00738967339994332
4276.1,-0.007592460120060847
4277.0,-0.007832238092341754
4277.9,-0.008124414669616895
4278.8,-0.008345994179723946
4279.7,-0.008474924586011703
4280.6,-0.008576998975062708
4281.5,-0.008602808116914972
4282.4,-0.008640835939786469
4283.31,-0.008693702828553985
