wave,flux
3700.85,-5.75162774951561e-05
3701.75,-5.749896912597202e-05
3702.65,-5.5945488315152854e-05
3703.55,-5.4187965566412505e-05
3704.45,-5.181798022202583e-05
3705.35,-5.025353989883875e-05
3706.25,-4.9165533804297986e-05
3707.15,-4.896682126636468e-05
3708.05,-4.990089349821777e-05
3708.96,-5.0628244273310737e-05
3709.86,-5.143224725855682e-05
3710.76,-5.2819375492257544e-05
3711.66,-5.435531457789173e-05
3712.56,-5.621451679549072e-05
3713.46,-5.855705053343538e-05
3714.36,-6.0814166502996745e-05
3715.26,-6.295810856459017e-05
3716.16,-6.458740086613928e-05
3717.06,-6.473739614807891e-05
3717.96,-6.330466845671143e-05
3718.86,-6.10049261205131e-05
3719.76,-5.758110289709522e-05
3720.66,-5.4054320410192174e-05
3721.56,-5.155158559319258e-05
3722.46,-5.0961796113985975e-05
3723.36,-5.233606336405948e-05
3724.26,-5.508699654254291e-05
3725.16,-5.8578633892686186e-05
3726.06,-6.202750169341822e-05
3726.96,-6.470216787814814e-05
3727.86,-6.595293949959797e-05
3728.76,-6.626407865805075e-05
3729.66,-6.628912151740259e-05
3730.56,-6.500365984585009e-05
3731.46,-6.304277126294158e-05
3732.36,-5.978983008248703e-05
3733.26,-5.588419098797748e-05
3734.16,-5.215756174179887e-05
3735.06,-4.962397929985044e-05
3735.96,-4.916873929124286e-05
3736.86,-5.082995499836406e-05
3737.76,-5.432083873671703e-05
3738.66,-5.931724104975626e-05
3739.56,-6.464469569272511e-05
3740.46,-6.904991304800573e-05
3741.36,-7.2098155391172e-05
3742.26,-7.329045887023953e-05
3743.16,-7.275511059608045e-05
3744.06,-7.143064206532923e-05
3744.96,-6.894388167874344e-05
3745.86,-6.585888709435566e-05
3746.76,-6.265573653258552e-05
3747.67,-5.9519570160985764e-05
3748.57,-5.63900130474237e-05
3749.47,-5.451854386224987e-05
3750.37,-5.4302680157839504e-05
3751.27,-5.6821819345259314e-05
3752.17,-6.111686320760634e-05
3753.07,-6.712604917628467e-05
3753.97,-7.269166461990108e-05
3754.87,-7.782744704764705e-05
3755.77,-8.152181585304474e-05
3756.67,-8.314808995019731e-05
3757.57,-8.292136919578998e-05
3758.47,-8.205713210526606e-05
3759.37,-8.083487415111876e-05
3760.27,-8.095951841145601e-05
3761.17,-8.152267684956088e-05
3762.07,-8.292107536451369e-05
3762.97,-8.444283354665206e-05
3763.87,-8.520441862787262e-05
3764.77,-8.569421901522636e-05
3765.67,-8.47090978950629e-05
3766.57,-8.311420204194259e-05
3767.47,-8.103480266208916e-05
3768.37,-7.847482484042717e-05
3769.27,-7.610523340620656e-05
3770.17,-7.456204745824273e-05
3771.07,-7.44976208511245e-05
3771.97,-7.575737963919706e-05
3772.87,-7.891366127912699e-05
3773.77,-8.317364035936017e-05
3774.67,-8.714693090083891e-05
3775.57,-9.172652285989673e-05
3776.47,-9.626544610732275e-05
3777.37,-0.00010019142218088281
3778.27,-0.00010392918620360814
3779.17,-0.00010760059843407107
3780.07,-0.00011105285445252912
3780.97,-0.00011437056896532782
3781.87,-0.00011725565504963662
3782.77,-0.00011923771290844342
3783.67,-0.00011987177823765647
3784.57,-0.00012008558914852588
3785.47,-0.00011759183104871783
3786.38,-0.00011578126048515051
3787.28,-0.00011283114764594635
3788.18,-0.00010984934755707642
3789.08,-0.00010788572612003678
3789.98,-0.00010615608214574408
3790.88,-0.00010434717055963427
3791.78,-0.0001026863271477116
3792.68,-0.00010103156061117397
3793.58,-9.821208389591062e-05
3794.48,-9.39907270711615e-05
3795.38,-8.957974375348276e-05
3796.28,-8.469277482193253e-05
3797.18,-8.07960052724016e-05
3798.08,-7.905019326549554e-05
3798.98,-7.938586655853028e-05
3799.88,-8.202920442843799e-05
3800.78,-8.784379447143725e-05
3801.68,-9.554272146859494e-05
3802.58,-0.00010305013611385578
3803.48,-0.00011145124849886663
3804.38,-0.0001168454985257154
3805.28,-0.00012171213751000894
3806.18,-0.00012483401764303657
3807.08,-0.00012769397169386723
3807.98,-0.00013053469758230862
3808.88,-0.00013361426880955784
3809.78,-0.00013654330493046227
3810.68,-0.00013932742294195814
3811.58,-0.000140036085096948
3812.48,-0.00013942621932370734
3813.38,-0.00013806630226304665
3814.28,-0.00013565221137978867
3815.18,-0.00013434163956708867
3816.08,-0.00013268020430217504
3816.98,-0.00013306093709169493
3817.88,-0.00013421766380459281
3818.78,-0.00013563609742735293
3819.68,-0.00013529109464059804
3820.58,-0.0001344415579147128
3821.48,-0.0001330421052829044
3822.38,-0.00013256383848287136
3823.28,-0.000130584855343357
3824.18,-0.0001287596330175482
3825.09,-0.00012585440730348375
3825.99,-0.00012314126454696217
3826.89,-0.00011943054171949917
3827.79,-0.0001173350013045224
3828.69,-0.00011511306757576136
3829.59,-0.00011304607837965849
3830.49,-0.00010994910192933445
3831.39,-0.00010625246892146786
3832.29,-0.00010106909345243317
3833.19,-9.523623532817667e-05
3834.09,-9.050851584947423e-05
3834.99,-8.699716083722446e-05
3835.89,-8.568852945903348e-05
3836.79,-8.625818298137867e-05
3837.69,-8.892790284882231e-05
3838.59,-9.354482237820984e-05
3839.49,-9.968846730913941e-05
3840.39,-0.00010738840963877902
3841.29,-0.00011559985142969449
3842.19,-0.0001253441869777009
3843.09,-0.0001336535108611626
3843.99,-0.00014232438385325204
3844.89,-0.00014983936007051288
3845.79,-0.0001563692026384454
3846.69,-0.0001615601143551859
3847.59,-0.00016537156984428942
3848.49,-0.00016875097650932748
3849.39,-0.000172900398280853
3850.29,-0.00017538438152300774
3851.19,-0.000177828277649773
3852.09,-0.0001809014481405747
3852.99,-0.00018238549420838705
3853.89,-0.00018503904801431945
3854.79,-0.00018579647014155284
3855.69,-0.00018556479187009246
3856.59,-0.00018427058254930125
3857.49,-0.00018342081193745269
3858.39,-0.000182131686148156
3859.29,-0.00018209197027968757
3860.19,-0.0001820137349712608
3861.09,-0.0001849190428432383
3861.99,-0.00019042591128326955
3862.9,-0.0001951694834544224
3863.8,-0.00020023821859502767
3864.7,-0.00020370171297201832
3865.6,-0.00020570186467432612
3866.5,-0.00020716247199838118
3867.4,-0.00020811203743809024
3868.3,-0.00020814828465417408
3869.2,-0.00020657268241666726
3870.1,-0.000205707966211146
3871.0,-0.0002043298981381513
3871.9,-0.0002010107232816356
3872.8,-0.00019916586245109002
3873.7,-0.0001978164408861492
3874.6,-0.00019887818302173765
3875.5,-0.0001999495744302503
3876.4,-0.00020018439731981353
3877.3,-0.00019965785315856832
3878.2,-0.00019693055409801218
3879.1,-0.00019438840604413623
3880.0,-0.0001927937647021324
3880.9,-0.0001915006125894813
3881.8,-0.00018916301627992324
3882.7,-0.00018650019123267301
3883.6,-0.00018328867552654118
3884.5,-0.00017815469896676598
3885.4,-0.0001706472292529771
3886.3,-0.00016223369016245596
3887.2,-0.00015415607327019202
3888.1,-0.00014716998934770226
3889.0,-0.00014329286420661807
3889.9,-0.00014363333038395712
3890.8,-0.00014796522290392336
3891.7,-0.00015710650727343014
3892.6,-0.00016757065731597747
3893.5,-0.00017911669193978276
3894.4,-0.00018828999893661245
3895.3,-0.0001970488186757476
3896.2,-0.00020471128399216168
3897.1,-0.00021199851968282016
3898.0,-0.0002178808090023434
3898.9,-0.0002236304163954056
3899.8,-0.00022893175761121284
3900.7,-0.00023429502354255642
3901.6,-0.0002383220747929282
3902.51,-0.0002415111152528404
3903.41,-0.00024411093625725016
3904.31,-0.00024700102459648197
3905.21,-0.0002477574483483695
3906.11,-0.00024972958022484036
3907.01,-0.0002557417634621104
3907.91,-0.00026007916820774014
3908.81,-0.00026976980003719144
3909.71,-0.00027758068687210204
3910.61,-0.00028492602308773855
3911.51,-0.0002915057805908873
3912.41,-0.0002945615221130361
3913.31,-0.00029815233723302085
3914.21,-0.0002989765398887539
3915.11,-0.00029877399874178384
3916.01,-0.00029685594635490894
3916.91,-0.0002965258490661737
3917.81,-0.00029589179090945127
3918.71,-0.00029446667356770883
3919.61,-0.0002904475171378226
3920.51,-0.0002906339646350657
3921.41,-0.000290225609780703
3922.31,-0.0002899970497093655
3923.21,-0.0002902078743638673
3924.11,-0.0002901963234782411
3925.01,-0.0002878374748761252
3925.91,-0.00028431857147660376
3926.81,-0.0002757503360649293
3927.71,-0.00026498158479335243
3928.61,-0.0002485217642315155
3929.51,-0.0002290110139676703
3930.41,-0.0002088063717311703
3931.31,-0.00018666343264285153
3932.21,-0.00016690019203761177
3933.11,-0.00015066848580926054
3934.01,-0.00014042528488340225
3934.91,-0.00014011853563565684
3935.81,-0.00014808099569203574
3936.71,-0.0001645781508391245
3937.61,-0.0001860217187742665
3938.51,-0.00021214226058124112
3939.42,-0.00023718706185997437
3940.32,-0.0002582863386319159
3941.22,-0.0002774759274620519
3942.12,-0.00029034110383417683
3943.02,-0.0003008883454102955
3943.92,-0.0003104538514129705
3944.82,-0.00031783657813460513
3945.72,-0.0003259460787484271
3946.62,-0.0003321843444686879
3947.52,-0.0003394828637522985
3948.42,-0.00034665401759588103
3949.32,-0.00035237321653332974
3950.22,-0.0003567074238520183
3951.12,-0.0003613814325903521
3952.02,-0.00036312917070739615
3952.92,-0.0003667037530710873
3953.82,-0.0003688367551634142
3954.72,-0.0003697614528942353
3955.62,-0.00036969656416344093
3956.52,-0.0003675823662299502
3957.42,-0.0003667433036144163
3958.32,-0.0003636222986403405
3959.22,-0.00035563080358255977
3960.12,-0.0003494903722156985
3961.02,-0.0003382402322220372
3961.92,-0.00032311900837600434
3962.82,-0.0003058486212537662
3963.72,-0.000286526426985102
3964.62,-0.00026625484249911073
3965.52,-0.00024266166569891613
3966.42,-0.00021759560606845807
3967.32,-0.00019370045194217134
3968.22,-0.00017397560309606564
3969.12,-0.0001595058232985849
3970.02,-0.00015569107107944648
3970.92,-0.00016128571369808446
3971.82,-0.00017648733281126213
3972.72,-0.00019979837055236651
3973.62,-0.00022782884448979186
3974.52,-0.00025628730997600744
3975.42,-0.00028500893838684187
3976.32,-0.0003140843660537136
3977.22,-0.0003405191280292795
3978.13,-0.00036528398399098954
3979.03,-0.00038920378981534547
3979.93,-0.00040595088396996095
3980.83,-0.00042160341220581326
3981.73,-0.00043442437158410386
3982.63,-0.0004442051596773586
3983.53,-0.0004524937419316227
3984.43,-0.0004602097201889939
3985.33,-0.00046754251338027177
3986.23,-0.0004765124888065368
3987.13,-0.00048766479675591945
3988.03,-0.0004986595840985484
3988.93,-0.0005069046082921587
3989.83,-0.0005159491912294196
3990.73,-0.0005242885983333936
3991.63,-0.0005329518108895342
3992.53,-0.0005401286150919232
3993.43,-0.0005483811213603221
3994.33,-0.0005514712364693528
3995.23,-0.0005542049716267538
3996.13,-0.0005517005112743102
3997.03,-0.0005526542938926678
3997.93,-0.0005553565715382723
3998.83,-0.0005606755488080459
3999.73,-0.000571806552345373
4000.63,-0.0005844574332402464
4001.53,-0.0005937684409483594
4002.43,-0.0006001628636059036
4003.33,-0.0006061339222287848
4004.23,-0.0006035443454314613
4005.13,-0.000602220731360409
4006.03,-0.0006001186340550597
4006.93,-0.0006023378660458549
4007.83,-0.0006070499494887657
4008.73,-0.0006168928581987253
4009.63,-0.0006292092586697381
4010.53,-0.0006424118033180714
4011.43,-0.0006549774102021039
4012.33,-0.0006611373214180496
4013.23,-0.000669026926499412
4014.13,-0.0006751952268907778
4015.03,-0.0006791592098030621
4015.93,-0.0006863444752005096
4016.84,-0.0006947381411758195
4017.74,-0.0006979179228308838
4018.64,-0.000705379603548874
4019.54,-0.0007115219694520162
4020.44,-0.0007176785292390805
4021.34,-0.0007243511519985577
4022.24,-0.0007270088671833907
4023.14,-0.0007300442455729836
4024.04,-0.0007348518893953383
4024.94,-0.0007386900269606912
4025.84,-0.0007468100969777707
4026.74,-0.000754630486578669
4027.64,-0.0007601526468337101
4028.54,-0.0007619656227290701
4029.44,-0.0007599187026830366
4030.34,-0.0007532270289245584
4031.24,-0.0007421822694739423
4032.14,-0.0007333292028755621
4033.04,-0.0007315345726586506
4033.94,-0.0007372229300924267
4034.84,-0.0007520521551093114
4035.74,-0.0007636331554335124
4036.64,-0.0007896933336429242
4037.54,-0.0008135097293782033
4038.44,-0.0008291474340901644
4039.34,-0.0008433556842750851
4040.24,-0.0008505009530571177
4041.14,-0.0008474570806027417
4042.04,-0.0008464312393056903
4042.94,-0.0008387528587116595
4043.84,-0.0008260069270158666
4044.74,-0.0008177278206219764
4045.64,-0.0008094326548567186
4046.54,-0.0008083452165651548
4047.44,-0.0008161300819462082
4048.34,-0.0008362408603662202
4049.24,-0.00085955931622727
4050.14,-0.0008802790805006908
4051.04,-0.000897137509987141
4051.94,-0.0009041878094474493
4052.84,-0.0009062592619079575
4053.74,-0.0009044419177284339
4054.65,-0.0008995203124254897
4055.55,-0.0008977285989902602
4056.45,-0.000895668208344643
4057.35,-0.0008969422208185629
4058.25,-0.0009026490048760122
4059.15,-0.0009112104551745667
4060.05,-0.0009188945117860256
4060.95,-0.0009261485540105477
4061.85,-0.0009317081355084868
4062.75,-0.0009282647413723488
4063.65,-0.0009250585389082852
4064.55,-0.0009226852194196903
4065.45,-0.0009256363290059302
4066.35,-0.0009351728961537958
4067.25,-0.0009512251554863984
4068.15,-0.0009692451194135677
4069.05,-0.0009800302490411178
4069.95,-0.0009937669096345895
4070.85,-0.0009998263538772737
4071.75,-0.001001871426249097
4072.65,-0.0010041175806174607
4073.55,-0.0010024670915996332
4074.45,-0.0010050274797589168
4075.35,-0.0009986731376293813
4076.25,-0.0009925798330037367
4077.15,-0.0009844252272079616
4078.05,-0.0009797950845069324
4078.95,-0.000984939889547336
4079.85,-0.001002979183743791
4080.75,-0.0010217450945418627
4081.65,-0.00104040069965484
4082.55,-0.001064869379638776
4083.45,-0.0010781608476910093
4084.35,-0.001081230398646467
4085.25,-0.0010885506276113281
4086.15,-0.0010954028487155949
4087.05,-0.0011123980345007281
4087.95,-0.0011228323261750829
4088.85,-0.0011349893800285428
4089.75,-0.0011499714217945028
4090.65,-0.0011503853352287394
4091.55,-0.001152414206467692
4092.45,-0.0011479125332027823
4093.36,-0.0011280929015163902
4094.26,-0.0011115620251647028
4095.16,-0.0010924254849829528
4096.06,-0.0010672252281376297
4096.96,-0.0010392502660440386
4097.86,-0.0009983147730898462
4098.76,-0.0009610443331256493
4099.66,-0.0009214219249642508
4100.56,-0.0008756691295855085
4101.46,-0.0008467673652466135
4102.36,-0.0008322946977251068
4103.26,-0.0008400855002948362
4104.16,-0.000867684625115049
4105.06,-0.0009157895978741048
4105.96,-0.0009721674750327191
4106.86,-0.001026222672617613
4107.76,-0.0010788316192277359
4108.66,-0.0011242681692564308
4109.56,-0.001158551876111411
4110.46,-0.0011906243535102314
4111.36,-0.0012276861908242513
4112.26,-0.0012492652075964169
4113.16,-0.001283022491210619
4114.06,-0.0013193220109587152
4114.96,-0.0013482790310062585
4115.86,-0.0013744264177821888
4116.76,-0.00139039456164236
4117.66,-0.0014076104627924857
4118.56,-0.0014226905718969483
4119.46,-0.0014289923987672632
4120.36,-0.0014304524312965148
4121.26,-0.0014433953905311145
4122.16,-0.0014606001792701632
4123.06,-0.0014750715226759406
4123.96,-0.0014909104032673139
4124.86,-0.0015102329188610235
4125.76,-0.0015279011524093214
4126.66,-0.0015402552156359827
4127.56,-0.0015446773607280544
4128.46,-0.0015477343709712319
4129.36,-0.001556336389876831
4130.26,-0.0015617497978036928
4131.17,-0.001561476431538009
4132.06,-0.0015586943928580298
4132.97,-0.0015780143063861335
4133.87,-0.0015834775029032748
4134.77,-0.0016100529694445202
4135.67,-0.0016381762207617933
4136.57,-0.001680973080877239
4137.47,-0.0017277109532641418
4138.37,-0.00175996172078149
4139.27,-0.0017852444411009135
4140.17,-0.0018060686602093066
4141.07,-0.001807743848935683
4141.97,-0.0017974741485415262
4142.87,-0.001792197098024811
4143.77,-0.0017821721697291984
4144.67,-0.0017791743156354515
4145.57,-0.0017954600377012395
4146.47,-0.0018154208664591157
4147.37,-0.0018425510088672266
4148.27,-0.00187506338867791
4149.17,-0.001903357325091889
4150.07,-0.0019141597168796899
4150.97,-0.001924413851677744
4151.87,-0.0019242322963633235
4152.77,-0.0019312981197167174
4153.67,-0.0019385131413789368
4154.57,-0.0019405907704092755
4155.47,-0.00194942802379883
4156.37,-0.0019660357718906925
4157.27,-0.0019953720285892183
4158.17,-0.0020245182053696656
4159.07,-0.002055076409870065
4159.97,-0.0020906544452252837
4160.87,-0.0021258814491037217
4161.77,-0.0021562381551873382
4162.67,-0.0021884925791614512
4163.57,-0.002214713603333506
4164.47,-0.0022299237389628544
4165.37,-0.002250602861945133
4166.27,-0.002262350501699049
4167.17,-0.002267595746428704
4168.07,-0.0022666213988165322
4168.98,-0.0022620785787002074
4169.88,-0.002263903985832372
4170.78,-0.002256249835121029
4171.68,-0.0022301156692639337
4172.58,-0.002217941920713727
4173.48,-0.0022040186711296183
4174.38,-0.0022049314403070545
4175.28,-0.00222421198803633
4176.18,-0.002240692189584192
4177.08,-0.0022756846834976075
4177.98,-0.002314170968242805
4178.88,-0.0023412174604033375
4179.78,-0.00237608958292724
4180.68,-0.0024088221862985275
4181.58,-0.0024463686081881587
4182.48,-0.002477316041241731
4183.38,-0.0025033998474273855
4184.28,-0.002532146830203209
4185.18,-0.0025470774142779817
4186.08,-0.0025757928099632925
4186.98,-0.0025982937522084056
4187.88,-0.002619618456914724
4188.78,-0.0026329143527505875
4189.68,-0.002669160389121149
4190.58,-0.002704412623002202
4191.48,-0.0027540863216164706
4192.38,-0.0027893133508260217
4193.28,-0.0028245407529476295
4194.18,-0.0028390379448783236
4195.08,-0.002854422760347444
4195.98,-0.002844766105049964
4196.88,-0.0028314144822108927
4197.78,-0.0028034826012118394
4198.68,-0.002795348559932247
4199.58,-0.0028015720107336735
4200.48,-0.0028044169472607595
4201.38,-0.0028389989678725917
4202.28,-0.002873778420800776
4203.18,-0.002915290360670047
4204.08,-0.002954722572965471
4204.98,-0.00300961144757244
4205.88,-0.0030706765628556397
4206.79,-0.0031305511863962236
4207.69,-0.00319536480260166
4208.59,-0.0032313527936319642
4209.49,-0.003286108456247107
4210.39,-0.003313088975597139
4211.29,-0.0033517316536480803
4212.19,-0.0033864085640234205
4213.09,-0.003384552813686297
4213.99,-0.0033907903205002247
4214.89,-0.0033963188283598635
4215.79,-0.003396796309503631
4216.69,-0.003436642920556068
4217.59,-0.003467763749412972
4218.49,-0.003524558746618518
4219.39,-0.003581369084089193
4220.29,-0.0036484171123648884
4221.19,-0.003679815319343878
4222.09,-0.0036763563229998833
4222.99,-0.0036610130194780887
4223.89,-0.0036059604649626405
4224.79,-0.003526711647761487
4225.69,-0.0034580014957647687
4226.59,-0.0033872017871213
4227.49,-0.003397403592697454
4228.39,-0.003438026590484668
4229.29,-0.0035413818687213194
4230.19,-0.00369360839618021
4231.09,-0.0038266525386649033
4231.99,-0.0039195981378057744
4232.89,-0.003968212813909868
4233.79,-0.004019484095938452
4234.69,-0.004025864923966942
4235.59,-0.004040767501248621
4236.49,-0.004017831217555607
4237.39,-0.004052274443560817
4238.29,-0.004095938524523503
4239.19,-0.004157864456708064
4240.09,-0.004198676105281937
4240.99,-0.004292466010988192
4241.89,-0.00436510706023372
4242.79,-0.004413184846597591
4243.69,-0.00450965423197369
4244.59,-0.004537402572298817
4245.5,-0.004567632565999215
4246.4,-0.0045884862520976805
4247.3,-0.0045875600179451255
4248.2,-0.0045829019913625115
4249.1,-0.0045500563473239415
4250.0,-0.004580786510978983
4250.9,-0.004601317546610475
4251.8,-0.004626772804478944
4252.7,-0.004697968703199291
4253.6,-0.0047700543769361005
4254.5,-0.004842144839302305
4255.4,-0.004910385171187805
4256.3,-0.00495066149920999
4257.2,-0.005001390836005153
4258.1,-0.005043350061983264
4259.0,-0.0050367389299888045
4259.9,-0.005052058818691341
4260.8,-0.005075777505714669
4261.7,-0.005138037481702686
4262.6,-0.005237736040188245
4263.5,-0.005349378706858055
4264.4,-0.005465862302956308
4265.3,-0.005588913874145215
4266.2,-0.005669019298610748
4267.1,-0.00571102835038664
4268.0,-0.005716146104777589
4268.9,-0.0056823473036384225
4269.8,-0.005611713093914947
4270.7,-0.005540680538581882
4271.6,-0.005456207986531594
4272.5,-0.00542136795979403
4273.4,-0.005401714638173932
4274.3,-0.005462570875559563
4275.2,-0.005577562872382796
4276.1,-0.00572127116061253
4277.0,-0.005878517783173135
4277.9,-0.006016496749712373
4278.8,-0.0061714456384295655
4279.7,-0.006243626232223876
4280.6,-0.0062896634986192865
4281.5,-0.0063485363593556235
4282.4,-0.00637365931956692
