wave,flux
3700.85,-0.0014596784036437817
3701.75,-0.0014665444599266063
3702.65,-0.0014517264072618015
3703.55,-0.0014184705261919158
3704.45,-0.001373740989730092
3705.35,-0.001342773097214644
3706.25,-0.0013384179830186616
3707.15,-0.0013542582721161776
3708.05,-0.0013753372863343804
3708.96,-0.001412305439304491
3709.86,-0.0014498481861634294
3710.76,-0.0014862494848958856
3711.66,-0.0015253703975679103
3712.56,-0.0015848373895249645
3713.46,-0.001655842920282058
3714.36,-0.0017393499714613565
3715.26,-0.0018216445408174478
3716.16,-0.0018961113964617575
3717.06,-0.0019330738291290777
3717.96,-0.0019318184988628446
3718.86,-0.001887424911351772
3719.76,-0.0018201198617089438
3720.66,-0.0017365009961390692
3721.56,-0.0016629575731512683
3722.46,-0.0016424758443129477
3723.36,-0.0016997782442898718
3724.26,-0.001799029013208662
3725.16,-0.001917137289184346
3726.06,-0.0020510502245187343
3726.96,-0.002156768032289677
3727.86,-0.0022332110801747927
3728.76,-0.0022791719887588382
3729.66,-0.002297732583236171
3730.56,-0.002280320640848571
3731.46,-0.002201407096938641
3732.36,-0.0021084459343334006
3733.26,-0.002005640503092641
3734.16,-0.001889153466340538
3735.06,-0.0018375961188589038
3735.96,-0.0018455477994166497
3736.86,-0.0019348029427667913
3737.76,-0.002091606166063696
3738.66,-0.002299367456830082
3739.56,-0.002517011606969883
3740.46,-0.0027051304913871545
3741.36,-0.0028555218700312985
3742.26,-0.0029428161224822093
3743.16,-0.0029782652294085307
3744.06,-0.002942132664554035
3744.96,-0.0028744989228504116
3745.86,-0.0027947115986967806
3746.76,-0.002659426433909904
3747.67,-0.0025362757595549326
3748.57,-0.002412702589670947
3749.47,-0.002329995058254445
3750.37,-0.002333460778014079
3751.27,-0.0024500870017113386
3752.17,-0.002635512551520076
3753.07,-0.0029205783868116657
3753.97,-0.003230694503954687
3754.87,-0.0035022681662774885
3755.77,-0.0037322441724628734
3756.67,-0.0038530797728972307
3757.57,-0.003931534855439265
3758.47,-0.003950153499460422
3759.37,-0.003957592528297865
3760.27,-0.004011920667707791
3761.17,-0.004102747649899161
3762.07,-0.004211597215829736
3762.97,-0.004283778079801966
3763.87,-0.004351423882805641
3764.77,-0.004396657451901179
3765.67,-0.004380411221131781
3766.57,-0.004304018685197122
3767.47,-0.004188923622781005
3768.37,-0.004049106193549743
3769.27,-0.0039099669782433075
3770.17,-0.0038095709159587294
3771.07,-0.0037997341088220156
3771.97,-0.00391489753462193
3772.87,-0.004142903471589137
3773.77,-0.004439117728046899
3774.67,-0.0047627668262698085
3775.57,-0.005110992818014353
3776.47,-0.005473874714374832
3777.37,-0.005812620466823155
3778.27,-0.006169787870212721
3779.17,-0.0065079332056367616
3780.07,-0.006837709163631919
3780.97,-0.007139102531308928
3781.87,-0.00737631562539335
3782.77,-0.007602017410507014
3783.67,-0.00776878339740135
3784.57,-0.00784192674002139
3785.47,-0.007863148309219737
3786.38,-0.00782938824773156
3787.28,-0.007721562571739217
3788.18,-0.007605791278211077
3789.08,-0.007548525433386236
3789.98,-0.007482907947108568
3790.88,-0.007426341561629717
3791.78,-0.007380041705812367
3792.68,-0.007245697085437008
3793.58,-0.0070260126226643835
3794.48,-0.006744378955947813
3795.38,-0.006444613881629505
3796.28,-0.006116340487875717
3797.18,-0.005856837452688535
3798.08,-0.0057300733579737926
3798.98,-0.005822834019956266
3799.88,-0.006132510980008407
3800.78,-0.006650562588082679
3801.68,-0.007346611506218042
3802.58,-0.008141452831519312
3803.48,-0.008870817073663528
3804.38,-0.009534832172434763
3805.28,-0.010163434631858238
3806.18,-0.010632864627784861
3807.08,-0.011044776219740699
3807.98,-0.011553671480503071
3808.88,-0.012022984557203195
3809.78,-0.012568750567763501
3810.68,-0.012967422950578001
3811.58,-0.013293902903206799
3812.48,-0.013449981800101905
3813.38,-0.013487201690667442
3814.28,-0.013525390745670256
3815.18,-0.013589698222044965
3816.08,-0.013805947726874974
3816.98,-0.014146304535124173
3817.88,-0.014556448791822187
3818.78,-0.014851161509250175
3819.68,-0.015071519294623725
3820.58,-0.015283756665197334
3821.48,-0.015331085426869374
3822.38,-0.015422588985831978
3823.28,-0.015353622746473146
3824.18,-0.015366774036317015
3825.09,-0.015178798157287092
3825.99,-0.014994948643264963
3826.89,-0.014856528283487519
3827.79,-0.014624963597712854
3828.69,-0.014488181048658679
3829.59,-0.014271389815955098
3830.49,-0.013936725782060662
3831.39,-0.013528093816867696
3832.29,-0.012966350879412994
3833.19,-0.012329409878400675
3834.09,-0.01173152432741556
3834.99,-0.01126904686901396
3835.89,-0.011195144480501316
3836.79,-0.01141320020842885
3837.69,-0.012089807201044056
3838.59,-0.01307026994735314
3839.49,-0.01432371077009502
3840.39,-0.015708008916092715
3841.29,-0.01727395653918814
3842.19,-0.018980862696505126
3843.09,-0.020642585902804177
3843.99,-0.022250267520809067
3844.89,-0.023796078758920692
3845.79,-0.025171744997419906
3846.69,-0.026508744749124884
3847.59,-0.027669849828712345
3848.49,-0.02902027431337161
3849.39,-0.030135165325975804
3850.29,-0.03129644943814982
3851.19,-0.0324846258027261
3852.09,-0.03352046181180669
3852.99,-0.03475050356665225
3853.89,-0.03564612575991361
3854.79,-0.03646940587884712
3855.69,-0.03727569459288567
3856.59,-0.03786018308151936
3857.49,-0.038550425295677655
3858.39,-0.039132479617233075
3859.29,-0.03979214070930761
3860.19,-0.04107480523977941
3861.09,-0.04207941809511232
3861.99,-0.043588992289182546
3862.9,-0.04504166107101522
3863.8,-0.046657929460104657
3864.7,-0.04816488517731611
3865.6,-0.04952620683629081
3866.5,-0.05069554817576639
3867.4,-0.05219994799413181
3868.3,-0.053231746765673243
3869.2,-0.054445998746488124
3870.1,-0.05500390034389124
3871.0,-0.0559033262755408
3871.9,-0.056105266841426846
3872.8,-0.056471891030458424
3873.7,-0.0569943712867037
3874.6,-0.05787655303859077
3875.5,-0.05882018991126556
3876.4,-0.0596088796979763
3877.3,-0.0605063971078225
3878.2,-0.0608453520054057
3879.1,-0.061095531035882854
3880.0,-0.06108145243346024
3880.9,-0.06176990295595621
3881.8,-0.06204665817059001
3882.7,-0.062077250462152615
3883.6,-0.06132625288956319
3884.5,-0.06003131984782894
3885.4,-0.05802950004419135
3886.3,-0.05559113603450974
3887.2,-0.053285385918397064
3888.1,-0.05099950333273545
3889.0,-0.050149308561994364
3889.9,-0.05112454241904203
3890.8,-0.05376511788930797
3891.7,-0.05849576741999548
3892.6,-0.06434950949823973
3893.5,-0.07089683077526109
3894.4,-0.07704004409714246
3895.3,-0.08358062074344047
3896.2,-0.08974037748082028
3897.1,-0.09507805545167909
3898.0,-0.10106844219921775
3898.9,-0.10685798069731328
3899.8,-0.11181336042260188
3900.7,-0.11799801979912491
3901.6,-0.1236754892868221
3902.51,-0.12955355018466883
3903.41,-0.13472527902300385
3904.31,-0.13991660419839747
3905.21,-0.14499000953779978
3906.11,-0.15166199993924062
3907.01,-0.15842507152232613
3907.91,-0.16665063149365272
3908.81,-0.17642261983323404
3909.71,-0.18680903359845288
3910.61,-0.19754918637910268
3911.51,-0.2076885323725273
3912.41,-0.21598175368420416
3913.31,-0.2246713285838284
3914.21,-0.23143134382572061
3915.11,-0.2388000043934071
3916.01,-0.24603197301502563
3916.91,-0.254348539102845
3917.81,-0.26120671786083893
3918.71,-0.2706870292869562
3919.61,-0.27953909853620407
3920.51,-0.2897356781502601
3921.41,-0.2999224518307765
3922.31,-0.31355550687049
3923.21,-0.32661468822486633
3924.11,-0.34005805502342046
3925.01,-0.35152716939591727
3925.91,-0.3585444761423824
3926.81,-0.3655513118839942
3927.71,-0.36618907299601094
3928.61,-0.3610396485206155
3929.51,-0.3499026554747062
3930.41,-0.3349753473809703
3931.31,-0.3154948159819417
3932.21,-0.29572172808580066
3933.11,-0.28042800978866417
3934.01,-0.2752215247118382
3934.91,-0.28858327879441414
3935.81,-0.3206192932675259
3936.71,-0.37279338768142994
3937.61,-0.44545263951182107
3938.51,-0.5314302701915845
3939.42,-0.6265853754439079
3940.32,-0.7235774383509094
3941.22,-0.8207836957541078
3942.12,-0.9220384397287591
3943.02,-1.0207016992359321
3943.92,-1.132186151201223
3944.82,-1.2524867799351487
3945.72,-1.3975240399787072
3946.62,-1.5618035849173524
3947.52,-1.7645905386785334
3948.42,-2.003771824162463
3949.32,-2.3045387878943515
3950.22,-2.683518589690107
3951.12,-3.211885903550891
3952.02,-3.913301240989955
3952.92,-5.006423776111837
3953.82,-6.886176490505269
3954.72,-10.797876654200309
3955.62,-24.090238510838063
3956.52,106.78584819215443
3957.42,16.667555914756644
3958.32,9.04051430629528
3959.22,6.192130978947941
3960.12,4.665589308415575
3961.02,3.6860758960808977
3961.92,3.000552653082219
3962.82,2.4798570133580053
3963.72,2.0587123467712067
3964.62,1.7255798885405487
3965.52,1.4402578401878063
3966.42,1.1950361727666927
3967.32,0.9885116504517962
3968.22,0.8243461103858336
3969.12,0.7144899687361691
3970.02,0.6473681307775881
3970.92,0.6307584011238332
3971.82,0.6515218552872108
3972.72,0.6903787383590524
3973.62,0.7480730777244339
3974.52,0.8006717839135022
3975.42,0.8555846062494091
3976.32,0.9052588805609382
3977.22,0.9428740471471809
3978.13,0.980251468997964
3979.03,1.0081038261616981
3979.93,1.028844960561398
3980.83,1.0403987454785018
3981.73,1.0449091258811283
3982.63,1.0436926242879265
3983.53,1.0354274852733631
3984.43,1.0303476952279822
3985.33,1.0259028945054105
3986.23,1.022799265831496
3987.13,1.0246433337309635
3988.03,1.0281210323283743
3988.93,1.028147224924458
3989.83,1.0298528315398245
3990.73,1.0325006107213137
3991.63,1.0332354266651864
3992.53,1.0307419879006374
3993.43,1.0334392358465043
3994.33,1.0202489441515763
3995.23,1.0153296751272867
3996.13,1.0013132930967386
3997.03,0.9888738733560096
3997.93,0.9823269166314073
3998.83,0.9786546295736123
3999.73,0.9860090839059814
4000.63,0.9929833531440023
4001.53,0.9958400312736465
4002.43,0.998175144470059
4003.33,0.9938951896922199
4004.23,0.9821197739228381
4005.13,0.9728163351813917
4006.03,0.9597948305247992
4006.93,0.9556154472878813
4007.83,0.9575338194737316
4008.73,0.9667291628209254
4009.63,0.9694647764779821
4010.53,0.9803020492882273
4011.43,0.9890009710741021
4012.33,0.9924942085934819
4013.23,0.9959041426395454
4014.13,0.9929661019295986
4015.03,0.9966049978684067
4015.93,0.9967875435622986
4016.84,0.9976118333663087
4017.74,1.0018591367648342
4018.64,1.0020560755215226
4019.54,1.0109697793573889
4020.44,1.0147833167370894
4021.34,1.0203675969655805
4022.24,1.0185275573232673
4023.14,1.0192544234626595
4024.04,1.0157120124279875
4024.94,1.0120594485519057
4025.84,1.0118854366405023
4026.74,1.0161188730231534
4027.64,1.015760140085971
4028.54,1.014108223357777
4029.44,1.0035702261619883
4030.34,0.985448822004191
4031.24,0.9735514536348676
4032.14,0.9583596875808735
4033.04,0.950986813444636
4033.94,0.955698260992578
4034.84,0.9640786090597457
4035.74,0.9838706992163607
4036.64,1.0076300978895532
4037.54,1.0302935431879574
4038.44,1.0412313566334315
4039.34,1.0600475644103045
4040.24,1.0643312959354674
4041.14,1.0579244717917713
4042.04,1.0514617614830803
4042.94,1.040683331932343
4043.84,1.02573480067784
4044.74,1.0083880527498839
4045.64,1.0034780506075118
4046.54,0.9966221749756277
4047.44,1.0030866541032342
4048.34,1.017192598704524
4049.24,1.0398982462905877
4050.14,1.0529407006678444
4051.04,1.0634100683246852
4051.94,1.0699969623048153
4052.84,1.060916234563899
4053.74,1.0551757049615957
4054.65,1.0416348075196578
4055.55,1.0347997901463022
4056.45,1.0267371821205282
4057.35,1.0296357880427562
4058.25,1.0276556443710725
4059.15,1.0351537153149242
4060.05,1.0404633075477643
4060.95,1.0450787905080456
4061.85,1.0465372705857623
4062.75,1.0400146078266446
4063.65,1.0377943677225798
4064.55,1.0302007691216124
4065.45,1.0287664029236971
4066.35,1.0357561937796396
4067.25,1.0425365275343585
4068.15,1.0516706150824853
4069.05,1.0623358070419915
4069.95,1.066128852972163
4070.85,1.0631408300895706
4071.75,1.0609308237876676
4072.65,1.058212567158586
4073.55,1.051685131832954
4074.45,1.0437248162618846
4075.35,1.0369197328628488
4076.25,1.0186708548341457
4077.15,1.0048651157148396
4078.05,0.9925944732397421
4078.95,0.9917235361115918
4079.85,1.0006656439210317
4080.75,1.0156680666740732
4081.65,1.0252173109043599
4082.55,1.037820814078682
4083.45,1.0415983945068374
4084.35,1.040524253751707
4085.25,1.0353763183506588
4086.15,1.0389937693780615
4087.05,1.0310126882966215
4087.95,1.0318119456956854
4088.85,1.0346018668230732
4089.75,1.0391982367331793
4090.65,1.0299697582332912
4091.55,1.0199401368592897
4092.45,1.0000275126703377
4093.36,0.9790440004398522
4094.26,0.9599001140490582
4095.16,0.9233428872702332
4096.06,0.8948739396968663
4096.96,0.8558261062298362
4097.86,0.8141069721358497
4098.76,0.7673250262454262
4099.66,0.7263340094619066
4100.56,0.6835518535285456
4101.46,0.6525526475529427
4102.36,0.632120897704928
4103.26,0.6330781117415131
4104.16,0.6519479257798463
4105.06,0.6840004369929801
4105.96,0.727437696848659
4106.86,0.7700315401097094
4107.76,0.8083860699259318
4108.66,0.8473529674459349
4109.56,0.8742176015779544
4110.46,0.8949752775684119
4111.36,0.9172763933548715
4112.26,0.9370629496218728
4113.16,0.9583215404562409
4114.06,0.9864948365232081
4114.96,0.9997984042264433
4115.86,1.0161001070107463
4116.76,1.0300245835632884
4117.66,1.0357395882507958
4118.56,1.0330678959902098
4119.46,1.0334043261195578
4120.36,1.0257686503667172
4121.26,1.0321207118329363
4122.16,1.0351914349340885
4123.06,1.0398744810167915
4123.96,1.041617110517895
4124.86,1.0451677298306732
4125.76,1.0476938751801383
4126.66,1.0501205172041188
4127.56,1.0471935429821515
4128.46,1.0451665148948424
4129.36,1.0374117003323207
4130.26,1.033970205227474
4131.17,1.0230414886932617
4132.06,1.0254665833736327
4132.97,1.0233378957058068
4133.87,1.0259613124589368
4134.77,1.0360440594927698
4135.67,1.048493090753491
4136.57,1.064012692505666
4137.47,1.079020058238495
4138.37,1.0920975956394567
4139.27,1.1038301168304436
4140.17,1.1066649205323342
4141.07,1.1023109135220284
4141.97,1.089320426487162
4142.87,1.077762613885499
4143.77,1.0639100603306757
4144.67,1.0524598639851617
4145.57,1.050394113161796
4146.47,1.050952108807506
4147.37,1.0558519355690907
4148.27,1.0638000002741943
4149.17,1.060621248747393
4150.07,1.0625431468712512
4150.97,1.0556743407755154
4151.87,1.0484390343041388
4152.77,1.0447774152844653
4153.67,1.0352912832336956
4154.57,1.0281106472333061
4155.47,1.0278411989661713
4156.37,1.023656111085519
4157.27,1.0232727483321689
4158.17,1.025536692206467
4159.07,1.0352217091388083
4159.97,1.0429374603514547
4160.87,1.0507040081177068
4161.77,1.0571403594644557
4162.67,1.0653201875698426
4163.57,1.0700507644807895
4164.47,1.0702231276095595
4165.37,1.0698435038015326
4166.27,1.066982459297107
4167.17,1.0582933482880759
4168.07,1.0481476838570383
4168.98,1.0392638853591565
4169.88,1.0244165335512236
4170.78,1.0172300795498301
4171.68,1.0002452406750417
4172.58,0.98423668390346
4173.48,0.9684019774595499
4174.38,0.9595172959858267
4175.28,0.9556565036429865
4176.18,0.9558763209260216
4177.08,0.9609646844677614
4177.98,0.9691268665617503
4178.88,0.9695040095090105
4179.78,0.9760241659931354
4180.68,0.9800396153259258
4181.58,0.9888946462365931
4182.48,0.9876132786093463
4183.38,0.9906880806345062
4184.28,0.9977389276730629
4185.18,0.9989512683927109
4186.08,1.0034081776222017
4186.98,1.0012469386302305
4187.88,0.9972309412722884
4188.78,1.0034435068899898
4189.68,1.005785377418465
4190.58,1.0106920243011595
4191.48,1.0147658203567351
4192.38,1.028970705601614
4193.28,1.0278699177713075
4194.18,1.0307258858439117
4195.08,1.0236961824888386
4195.98,1.0124709769625888
4196.88,0.997839897286443
4197.78,0.9843965766648947
4198.68,0.9710524874308073
4199.58,0.9634117511555169
4200.48,0.9599559684635517
4201.38,0.9599005089946896
4202.28,0.9675733318639133
4203.18,0.9706322675558227
4204.08,0.9757588528876407
4204.98,0.9843339599587397
4205.88,0.9880589660729012
4206.79,1.0047851935579393
4207.69,1.0099358322313474
4208.59,1.0181754771988145
4209.49,1.0225914879337379
4210.39,1.024992262633992
4211.29,1.0266419798833923
4212.19,1.0275937845258802
4213.09,1.02107146504139
4213.99,1.0148755836201353
4214.89,1.007808078020452
4215.79,1.003706531706301
4216.69,1.0044936405690819
4217.59,1.0052436211442437
4218.49,1.0115418424580607
4219.39,1.025128312898135
4220.29,1.0314210620493296
4221.19,1.033358366337484
4222.09,1.0327424864444559
4222.99,1.0193002426049167
4223.89,1.0003517480703927
4224.79,0.9738505433622716
4225.69,0.9468219370051462
4226.59,0.9265916915266597
4227.49,0.9246517419576811
4228.39,0.9307321334503322
4229.29,0.9449643178534678
4230.19,0.9713256082096898
4231.09,0.9941189480484801
4231.99,1.007252299679578
4232.89,1.0113842298781073
4233.79,1.0092710781020586
4234.69,1.00681582656681
4235.59,0.9960513718543667
4236.49,0.9929089901762436
4237.39,0.990385989044829
4238.29,0.9871590988708714
4239.19,0.9915695246095725
4240.09,0.9977631470942694
4240.99,1.006770491391315
4241.89,1.0201763926233542
4242.79,1.0225797694076628
4243.69,1.0307750830897024
4244.59,1.0331085301644545
4245.5,1.031036674032036
4246.4,1.0306155169250162
4247.3,1.0236355389962644
4248.2,1.0125194664077128
4249.1,0.9999409424538709
4250.0,0.9962091006527909
4250.9,0.999878723325541
4251.8,1.00345126556979
4252.7,1.0082058443489403
4253.6,1.0131718017422915
4254.5,1.0212879547130647
4255.4,1.0250775561183005
4256.3,1.0319628660342695
4257.2,1.0314324477750798
4258.1,1.0261782080067434
4259.0,1.0231446389748724
4259.9,1.016416113110452
4260.8,1.0120340806844847
4261.7,1.0175415692753966
4262.6,1.0253636369563521
4263.5,1.0389113804055718
4264.4,1.0603753261315134
4265.3,1.072521045649648
4266.2,1.0737052960226163
4267.1,1.078700611957344
4268.0,1.0677097967558806
4268.9,1.0541449115833885
4269.8,1.0383119486892602
4270.7,1.0165741010647926
4271.6,0.9991720416345583
4272.5,0.9876893193873187
4273.4,0.9788168026236269
4274.3,0.9788453549110077
4275.2,0.9922709862702085
4276.1,1.007489703868117
4277.0,1.0222486701295386
4277.9,1.039125859732621
4278.8,1.0526990607940316
4279.7,1.057901571842654
4280.6,1.0601380774827416
4281.5,1.0587075779382153
4282.4,1.0510541557991295
4283.31,1.047397272925212
4284.21,1.041109371276589
4285.11,1.0400950461362688
4286.01,1.0258716607422191
4286.91,1.0162129512334834
4287.81,1.008634883477362
4288.71,0.9941835210910088
4289.61,0.9875832627992858
4290.51,0.9801910970067724
4291.41,0.9806789841812992
4292.31,0.9827090795529984
4293.21,0.9951061919664871
4294.11,1.0010199736306586
4295.01,1.0091331877143739
4295.91,1.0119584446473777
4296.81,1.000025632529084
4297.71,0.9879942066189322
4298.61,0.9720330219194151
4299.51,0.945959028406563
4300.41,0.9343154848556072
4301.31,0.9204879443826163
4302.21,0.9100747522568476
4303.11,0.9147639576457688
4304.01,0.9153394633831274
4304.91,0.923034855888084
4305.81,0.9266772512081374
4306.71,0.9284804664489772
4307.61,0.9287677489811699
4308.51,0.9260840009377432
4309.41,0.9275942255897851
4310.31,0.9348193991701619
4311.21,0.9457381007080683
4312.11,0.9611444696457302
4313.01,0.9712234344589358
4313.91,0.9832229354278113
4314.81,1.002375088669024
4315.71,1.0226046366293848
4316.61,1.0355672825380482
4317.51,1.0494636555857981
4318.41,1.0626351820602171
4319.31,1.0722245222886033
4320.21,1.0701024406552144
4321.12,1.060243000528262
4322.02,1.0538646467509243
4322.92,1.0282521975258785
4323.82,1.0047122736909004
4324.72,0.9805818244358395
4325.62,0.9638129030643834
4326.52,0.9496069362919163
4327.42,0.94559887055585
4328.32,0.9494067686784202
4329.22,0.9609714778680813
4330.12,0.9696464998978904
4331.02,0.9690492590354659
4331.92,0.965069917119349
4332.82,0.9562919150594195
4333.72,0.947283285389582
4334.62,0.9195350126161128
4335.52,0.892549743471242
4336.42,0.8557452710234399
4337.32,0.8093887811085959
4338.22,0.7615530855139138
4339.12,0.7133227404916918
4340.02,0.6719958769302323
4340.92,0.6533619788644407
4341.82,0.6432691915303563
4342.72,0.6597575664620129
4343.62,0.6885326560420134
4344.52,0.7262099551222648
4345.42,0.7709819514798116
4346.32,0.8169038888392011
4347.22,0.8526821880909231
