wave,flux
3700.85,-6.084081521299932e-07
3701.75,-6.012528878536642e-07
3702.65,-5.773307732276709e-07
3703.55,-5.400907931814754e-07
3704.45,-5.031612656314818e-07
3705.35,-4.645581500902893e-07
3706.25,-4.349511546311238e-07
3707.15,-4.1828075760645315e-07
3708.05,-4.1430257341944e-07
3708.96,-4.2741479161531486e-07
3709.86,-4.531633179591565e-07
3710.76,-4.878045004280487e-07
3711.66,-5.323577152413847e-07
3712.56,-5.759444983015282e-07
3713.46,-6.13460324666069e-07
3714.36,-6.376179766509546e-07
3715.26,-6.449495566369838e-07
3716.16,-6.298817653856806e-07
3717.06,-5.961716327921569e-07
3717.96,-5.527844370660611e-07
3718.86,-4.977624506942602e-07
3719.76,-4.446390186668673e-07
3720.66,-4.009865467751907e-07
3721.56,-3.7790459434244436e-07
3722.46,-3.8060007549836376e-07
3723.36,-4.038758116102664e-07
3724.26,-4.381286017245477e-07
3725.16,-4.755418431711869e-07
3726.06,-5.048443508780082e-07
3726.96,-5.21154099626935e-07
3727.86,-5.245238309580386e-07
3728.76,-5.220998503548889e-07
3729.66,-5.192324811952889e-07
3730.56,-5.030706678349287e-07
3731.46,-4.809958287024979e-07
3732.36,-4.502672232876657e-07
3733.26,-4.082552962001622e-07
3734.16,-3.695499082908346e-07
3735.06,-3.3781353684173115e-07
3735.96,-3.220655128554921e-07
3736.86,-3.255899750550038e-07
3737.76,-3.496936585956366e-07
3738.66,-3.9026824525091975e-07
3739.56,-4.361608333232441e-07
3740.46,-4.772876878963998e-07
3741.36,-5.049929120302353e-07
3742.26,-5.08338027962487e-07
3743.16,-4.942569347578923e-07
3744.06,-4.645722934163381e-07
3744.96,-4.31481316718365e-07
3745.86,-3.992312618617519e-07
3746.76,-3.729230587869438e-07
3747.67,-3.543515317565701e-07
3748.57,-3.463270552944076e-07
3749.47,-3.519595690733881e-07
3750.37,-3.732998079763722e-07
3751.27,-4.131755210799268e-07
3752.17,-4.6448902472767616e-07
3753.07,-5.215092600781063e-07
3753.97,-5.691341303836546e-07
3754.87,-6.050102156501783e-07
3755.77,-6.184517621639133e-07
3756.67,-6.077270018513201e-07
3757.57,-5.792221802353038e-07
3758.47,-5.442915783804057e-07
3759.37,-5.192460294704311e-07
3760.27,-5.060851759734949e-07
3761.17,-5.076170017654294e-07
3762.07,-5.160394243818597e-07
3762.97,-5.243018862194422e-07
3763.87,-5.320350097872038e-07
3764.77,-5.35430403212519e-07
3765.67,-5.390221432090571e-07
3766.57,-5.405612364639325e-07
3767.47,-5.514554111097957e-07
3768.37,-5.63758523748432e-07
3769.27,-5.848564516358633e-07
3770.17,-6.102044814701981e-07
3771.07,-6.374469821743023e-07
3771.97,-6.646459685261197e-07
3772.87,-6.88454271351365e-07
3773.77,-7.118273809703206e-07
3774.67,-7.255534796847466e-07
3775.57,-7.308731815466677e-07
3776.47,-7.356567825422004e-07
3777.37,-7.414941808692427e-07
3778.27,-7.539267309587676e-07
3779.17,-7.646665738295034e-07
3780.07,-7.814299955373959e-07
3780.97,-7.986538312881709e-07
3781.87,-8.089820841249269e-07
3782.77,-8.214360962225765e-07
3783.67,-8.184741193793335e-07
3784.57,-8.018052058520224e-07
3785.47,-7.731934017380669e-07
3786.38,-7.354902497217393e-07
3787.28,-6.914826876513735e-07
3788.18,-6.551596342789372e-07
3789.08,-6.250570054950307e-07
3789.98,-6.118035053115057e-07
3790.88,-6.104988762975045e-07
3791.78,-6.12073369734244e-07
3792.68,-6.149947213735945e-07
3793.58,-6.102027875766074e-07
3794.48,-6.010870714657661e-07
3795.38,-5.832340846066866e-07
3796.28,-5.685241087877315e-07
3797.18,-5.538079475632947e-07
3798.08,-5.479870453847741e-07
3798.98,-5.528902666924259e-07
3799.88,-5.687834340886116e-07
3800.78,-5.974679380129866e-07
3801.68,-6.438676158903249e-07
3802.58,-6.904543362251651e-07
3803.48,-7.267297022928131e-07
3804.38,-7.532542592187199e-07
3805.28,-7.685841300860253e-07
3806.18,-7.690742163076771e-07
3807.08,-7.629220882181207e-07
3807.98,-7.598849250339417e-07
3808.88,-7.644163400711186e-07
3809.78,-7.741823191303459e-07
3810.68,-7.783248489619252e-07
3811.58,-7.735179297307735e-07
3812.48,-7.515578993870053e-07
3813.38,-7.207241022038472e-07
3814.28,-6.76370040834349e-07
3815.18,-6.34033451110727e-07
3816.08,-6.020686425133309e-07
3816.98,-5.811072123971747e-07
3817.88,-5.701786341488985e-07
3818.78,-5.605827758927875e-07
3819.68,-5.473889788201823e-07
3820.58,-5.34418276190995e-07
3821.48,-5.236141943438832e-07
3822.38,-5.160380368053993e-07
3823.28,-5.089371067069093e-07
3824.18,-4.967972553049226e-07
3825.09,-4.809988019236781e-07
3825.99,-4.644231158215323e-07
3826.89,-4.4819715140575217e-07
3827.79,-4.422990161660371e-07
3828.69,-4.411496285473504e-07
3829.59,-4.4970091203145e-07
3830.49,-4.52435197402187e-07
3831.39,-4.538967265834112e-07
3832.29,-4.494965970240034e-07
3833.19,-4.4515933387800626e-07
3834.09,-4.3880290232607124e-07
3834.99,-4.4196948037535863e-07
3835.89,-4.472049830787691e-07
3836.79,-4.533018594918804e-07
3837.69,-4.5755117963557224e-07
3838.59,-4.580618785278645e-07
3839.49,-4.6406767392755537e-07
3840.39,-4.770750797914941e-07
3841.29,-5.045323860332651e-07
3842.19,-5.470370091309425e-07
3843.09,-5.955342462119432e-07
3843.99,-6.411057017939751e-07
3844.89,-6.798874688926266e-07
3845.79,-7.10918042262737e-07
3846.69,-7.266433185343255e-07
3847.59,-7.308849620027302e-07
3848.49,-7.306221316123937e-07
3849.39,-7.266948368700212e-07
3850.29,-7.162955648773095e-07
3851.19,-7.14450538612705e-07
3852.09,-7.14309943548351e-07
3852.99,-7.124269763793517e-07
3853.89,-7.092325948136246e-07
3854.79,-6.957535751252444e-07
3855.69,-6.793221468039902e-07
3856.59,-6.541373512944371e-07
3857.49,-6.292844820303843e-07
3858.39,-6.052308782715958e-07
3859.29,-5.871236504597022e-07
3860.19,-5.878244225853095e-07
3861.09,-6.031762744471308e-07
3861.99,-6.368058646929246e-07
3862.9,-6.836849015694578e-07
3863.8,-7.242719624130886e-07
3864.7,-7.496929637274415e-07
3865.6,-7.681236233987626e-07
3866.5,-7.674699064685792e-07
3867.4,-7.5997123081419e-07
3868.3,-7.435595184455938e-07
3869.2,-7.208332342822395e-07
3870.1,-6.971757035993278e-07
3871.0,-6.79507079061765e-07
3871.9,-6.707202587860613e-07
3872.8,-6.759414940680153e-07
3873.7,-6.969785926826319e-07
3874.6,-7.311536339222171e-07
3875.5,-7.609473158060934e-07
3876.4,-7.80592082040706e-07
3877.3,-7.833007214547976e-07
3878.2,-7.716325227325614e-07
3879.1,-7.53424983768343e-07
3880.0,-7.386003945176374e-07
3880.9,-7.345954786186127e-07
3881.8,-7.384663825893058e-07
3882.7,-7.474132183999815e-07
3883.6,-7.527853751125737e-07
3884.5,-7.617927071034009e-07
3885.4,-7.630053386045457e-07
3886.3,-7.552886913648367e-07
3887.2,-7.491468009948384e-07
3888.1,-7.528352469426208e-07
3889.0,-7.728275037040009e-07
3889.9,-8.097344104087592e-07
3890.8,-8.67759784193609e-07
3891.7,-9.218130748801551e-07
3892.6,-9.757989124871688e-07
3893.5,-1.0174717111634468e-06
3894.4,-1.0383177818830118e-06
3895.3,-1.0492324958335222e-06
3896.2,-1.054640302497927e-06
3897.1,-1.057840099007304e-06
3898.0,-1.0618685751175794e-06
3898.9,-1.0638313915242013e-06
3899.8,-1.0640389426285053e-06
3900.7,-1.0693797481204183e-06
3901.6,-1.066024521522412e-06
3902.51,-1.059050131936255e-06
3903.41,-1.0468547562593832e-06
3904.31,-1.0272437280657176e-06
3905.21,-1.0185738974766273e-06
3906.11,-1.0234510614707077e-06
3907.01,-1.0469354595494826e-06
3907.91,-1.0842806811169355e-06
3908.81,-1.1351025750913284e-06
3909.71,-1.1873069764602503e-06
3910.61,-1.2399738678370839e-06
3911.51,-1.2784365095238711e-06
3912.41,-1.3003089296696106e-06
3913.31,-1.3153674519244991e-06
3914.21,-1.3197796904308205e-06
3915.11,-1.3122639884790119e-06
3916.01,-1.292151466731023e-06
3916.91,-1.2724968968780293e-06
3917.81,-1.2345204567639224e-06
3918.71,-1.1870460535551057e-06
3919.61,-1.1465480012988088e-06
3920.51,-1.0963591693843052e-06
3921.41,-1.0562890440121111e-06
3922.31,-1.028081128559423e-06
3923.21,-1.01084521838175e-06
3924.11,-1.0014154022923151e-06
3925.01,-9.854372576897805e-07
3925.91,-9.5750833859902e-07
3926.81,-9.105823031107384e-07
3927.71,-8.478763660154163e-07
3928.61,-7.665312369047538e-07
3929.51,-6.82435925765893e-07
3930.41,-5.970251279996149e-07
3931.31,-5.204119674724699e-07
3932.21,-4.572760913196586e-07
3933.11,-4.116604840923072e-07
3934.01,-3.878978582504267e-07
3934.91,-3.871280008424326e-07
3935.81,-4.1303019013857495e-07
3936.71,-4.6526099809763785e-07
3937.61,-5.375113232574605e-07
3938.51,-6.189281359586375e-07
3939.42,-7.065685758614117e-07
3940.32,-7.830062822402354e-07
3941.22,-8.528827415576276e-07
3942.12,-9.008532672517034e-07
3943.02,-9.411965840340903e-07
3943.92,-9.737242747264964e-07
3944.82,-1.0180990588584527e-06
3945.72,-1.0704431446406627e-06
3946.62,-1.1325018188591635e-06
3947.52,-1.2019866603235066e-06
3948.42,-1.2671355276244625e-06
3949.32,-1.3254860783131595e-06
3950.22,-1.3774988850427369e-06
3951.12,-1.4161679936808505e-06
3952.02,-1.445411182924371e-06
3952.92,-1.4640061944593732e-06
3953.82,-1.4769375867466038e-06
3954.72,-1.486055333059484e-06
3955.62,-1.4777054295425089e-06
3956.52,-1.4709001885563963e-06
3957.42,-1.455899551587321e-06
3958.32,-1.4246309220884589e-06
3959.22,-1.3884747670916316e-06
3960.12,-1.3265961532085554e-06
3961.02,-1.25155715338966e-06
3961.92,-1.1567794199193961e-06
3962.82,-1.0589972378806193e-06
3963.72,-9.62721239930403e-07
3964.62,-8.735727555828729e-07
3965.52,-7.863927286256878e-07
3966.42,-7.024689390177906e-07
3967.32,-6.287143908747478e-07
3968.22,-5.661340561257397e-07
3969.12,-5.323255468773154e-07
3970.02,-5.322889255703349e-07
3970.92,-5.687197855500849e-07
3971.82,-6.426509546343235e-07
3972.72,-7.36542328265259e-07
3973.62,-8.513734187816454e-07
3974.52,-9.74599039578414e-07
3975.42,-1.0989255352296228e-06
3976.32,-1.2211640917035635e-06
3977.22,-1.3410455823646296e-06
3978.13,-1.458232482984397e-06
3979.03,-1.5575448389583218e-06
3979.93,-1.6465930099461786e-06
3980.83,-1.7182870713801924e-06
3981.73,-1.7617088357991432e-06
3982.63,-1.7909812282611595e-06
3983.53,-1.8148764577079533e-06
3984.43,-1.8328378866378633e-06
3985.33,-1.846500217805885e-06
3986.23,-1.8829596694206435e-06
3987.13,-1.9135064810643407e-06
3988.03,-1.948665683453035e-06
3988.93,-2.0037165120752997e-06
3989.83,-2.021141884758155e-06
3990.73,-2.048306672328437e-06
3991.63,-2.073550778402412e-06
3992.53,-2.0920016917629293e-06
3993.43,-2.103942791626864e-06
3994.33,-2.1080914038749745e-06
3995.23,-2.1160980213352674e-06
3996.13,-2.089732452552334e-06
3997.03,-2.095759322091788e-06
3997.93,-2.0936811016519845e-06
3998.83,-2.12630175490556e-06
3999.73,-2.1699523180218056e-06
4000.63,-2.2222396910143256e-06
4001.53,-2.2705446713937937e-06
4002.43,-2.3029860043470542e-06
4003.33,-2.301053278082437e-06
4004.23,-2.2716435172599296e-06
4005.13,-2.2273574264669493e-06
4006.03,-2.193493295810045e-06
4006.93,-2.174343159375379e-06
4007.83,-2.183029395638004e-06
4008.73,-2.224768528262347e-06
4009.63,-2.279080882880847e-06
4010.53,-2.3346402458529213e-06
4011.43,-2.3812727958992352e-06
4012.33,-2.4252081416615178e-06
4013.23,-2.479463463844837e-06
4014.13,-2.4925425849715415e-06
4015.03,-2.5114964691652555e-06
4015.93,-2.526598561167708e-06
4016.84,-2.5435626185186855e-06
4017.74,-2.5643095079384664e-06
4018.64,-2.573391173421767e-06
4019.54,-2.5863187965457083e-06
4020.44,-2.5874565271665993e-06
4021.34,-2.6056433533442428e-06
4022.24,-2.625654470011979e-06
4023.14,-2.612003516496302e-06
4024.04,-2.610050583380964e-06
4024.94,-2.6043731409870233e-06
4025.84,-2.6276621892811436e-06
4026.74,-2.643846398288766e-06
4027.64,-2.6510929192030712e-06
4028.54,-2.6532492831414863e-06
4029.44,-2.6013374455656704e-06
4030.34,-2.532643541857141e-06
4031.24,-2.429138223366764e-06
4032.14,-2.347458308179322e-06
4033.04,-2.274627166768976e-06
4033.94,-2.2592444464763683e-06
4034.84,-2.2839647217040647e-06
4035.74,-2.3737867730126392e-06
4036.64,-2.4937134804034877e-06
4037.54,-2.6229151892441346e-06
4038.44,-2.73031275986638e-06
4039.34,-2.8058845525153005e-06
4040.24,-2.827796446005715e-06
4041.14,-2.8339884295585896e-06
4042.04,-2.778299363074002e-06
4042.94,-2.6934571762040263e-06
4043.84,-2.5820895103301473e-06
4044.74,-2.463732782418231e-06
4045.64,-2.3585940400055237e-06
4046.54,-2.3141863638906306e-06
4047.44,-2.3313092781555915e-06
4048.34,-2.425328932742173e-06
4049.24,-2.54829979767021e-06
4050.14,-2.6981632489660266e-06
4051.04,-2.795280583113507e-06
4051.94,-2.8590154356265255e-06
4052.84,-2.873817394465412e-06
4053.74,-2.851042674360946e-06
4054.65,-2.8051030388494257e-06
4055.55,-2.7470458657454504e-06
4056.45,-2.7090072767711205e-06
4057.35,-2.6696083612845535e-06
4058.25,-2.6513561373934648e-06
4059.15,-2.6386646196431863e-06
4060.05,-2.654693734679851e-06
4060.95,-2.65490801788961e-06
4061.85,-2.625421514342126e-06
4062.75,-2.5739443780423176e-06
4063.65,-2.533255423691681e-06
4064.55,-2.4920553823027228e-06
4065.45,-2.4974580457615012e-06
4066.35,-2.5364130170881343e-06
4067.25,-2.6115057841281333e-06
4068.15,-2.7058690401350566e-06
4069.05,-2.7835478243756286e-06
4069.95,-2.8215723805134455e-06
4070.85,-2.8364832601381504e-06
4071.75,-2.846186463521668e-06
4072.65,-2.8202338012764138e-06
4073.55,-2.832437003219429e-06
4074.45,-2.8231381673492323e-06
4075.35,-2.813985304049711e-06
4076.25,-2.818045025030286e-06
4077.15,-2.7783356520800674e-06
4078.05,-2.7770875968779077e-06
4078.95,-2.8104387135808134e-06
4079.85,-2.899056473922751e-06
4080.75,-3.011468709880528e-06
4081.65,-3.120546193653053e-06
4082.55,-3.204770205649323e-06
4083.45,-3.258385242651402e-06
4084.35,-3.301510509127808e-06
4085.25,-3.3113820712256725e-06
4086.15,-3.35321182675782e-06
4087.05,-3.416880942559414e-06
4087.95,-3.5094199676500295e-06
4088.85,-3.5932548453007958e-06
4089.75,-3.6496738866872456e-06
4090.65,-3.6582444475903175e-06
4091.55,-3.6577111824427783e-06
4092.45,-3.6318982777479334e-06
4093.36,-3.5787004333754612e-06
4094.26,-3.501567431470505e-06
4095.16,-3.4433872478533225e-06
4096.06,-3.3469252143916124e-06
4096.96,-3.2636314144581802e-06
4097.86,-3.1835422793167258e-06
4098.76,-3.1016268771715797e-06
4099.66,-3.010246603316122e-06
4100.56,-2.937097719803627e-06
4101.46,-2.877248350418594e-06
4102.36,-2.85829165371746e-06
4103.26,-2.8806358531235003e-06
4104.16,-2.962775301453799e-06
4105.06,-3.0861246137646465e-06
4105.96,-3.2302880822423306e-06
4106.86,-3.345375042101459e-06
4107.76,-3.433185974455724e-06
4108.66,-3.506052766619478e-06
4109.56,-3.524296188483995e-06
4110.46,-3.5381330477078216e-06
4111.36,-3.5546813323963298e-06
4112.26,-3.571040071488979e-06
4113.16,-3.6147125487711016e-06
4114.06,-3.6688236411264375e-06
4114.96,-3.720035210984729e-06
4115.86,-3.771014021487981e-06
4116.76,-3.7957764277936206e-06
4117.66,-3.7965022178619347e-06
4118.56,-3.782757551678523e-06
4119.46,-3.7374500101293076e-06
4120.36,-3.720326249068295e-06
4121.26,-3.7071797699641133e-06
4122.16,-3.727593525170935e-06
4123.06,-3.7331492094274645e-06
4123.96,-3.771226458790225e-06
4124.86,-3.7986466577902547e-06
4125.76,-3.822297006944233e-06
4126.66,-3.818555398143584e-06
4127.56,-3.803202195234771e-06
4128.46,-3.756052912199382e-06
4129.36,-3.723864107166123e-06
4130.26,-3.662967922987137e-06
4131.17,-3.6006184384232997e-06
4132.06,-3.548143483895986e-06
4132.97,-3.506181364479113e-06
4133.87,-3.5032805731093716e-06
4134.77,-3.569198310165313e-06
4135.67,-3.6497537409014087e-06
4136.57,-3.758494468736043e-06
4137.47,-3.876702955853172e-06
4138.37,-3.994792977308888e-06
4139.27,-4.051252491379408e-06
4140.17,-4.0430910356386e-06
4141.07,-3.998687746224527e-06
4141.97,-3.9105402621551805e-06
4142.87,-3.7898393910895915e-06
4143.77,-3.701505674740004e-06
4144.67,-3.6398653044629467e-06
4145.57,-3.6452701516019057e-06
4146.47,-3.683330530039495e-06
4147.37,-3.7574125418340592e-06
4148.27,-3.84565970797706e-06
4149.17,-3.90728425710711e-06
4150.07,-3.917187030371828e-06
4150.97,-3.902516315871925e-06
4151.87,-3.89696421380632e-06
4152.77,-3.8637792473424605e-06
4153.67,-3.862329371444958e-06
4154.57,-3.858960840076826e-06
4155.47,-3.838952737219877e-06
4156.37,-3.866790845457922e-06
4157.27,-3.92973820153551e-06
4158.17,-3.997184686789277e-06
4159.07,-4.094224444000617e-06
4159.97,-4.207795647877377e-06
4160.87,-4.30709702445436e-06
4161.77,-4.391017855749537e-06
4162.67,-4.466469204048604e-06
4163.57,-4.526910807053894e-06
4164.47,-4.526551844541462e-06
4165.37,-4.4995148164481866e-06
4166.27,-4.451717083881731e-06
4167.17,-4.3992954067366265e-06
4168.07,-4.365171430384167e-06
4168.98,-4.349371653901465e-06
4169.88,-4.320036818453212e-06
4170.78,-4.27354921702486e-06
4171.68,-4.209067656000519e-06
4172.58,-4.122068633867998e-06
4173.48,-4.046821252128884e-06
4174.38,-4.033864534031699e-06
4175.28,-4.015718596433393e-06
4176.18,-4.044108415255295e-06
4177.08,-4.104574179133997e-06
4177.98,-4.150081791197169e-06
4178.88,-4.208855091221279e-06
4179.78,-4.2697074427216954e-06
4180.68,-4.30993495932661e-06
4181.58,-4.35246979226572e-06
4182.48,-4.400108217097802e-06
4183.38,-4.45429353489479e-06
4184.28,-4.485070881480546e-06
4185.18,-4.52617422324226e-06
4186.08,-4.556267965181439e-06
4186.98,-4.5406691044756845e-06
4187.88,-4.5447363873347295e-06
4188.78,-4.586434108566829e-06
4189.68,-4.600217833080902e-06
4190.58,-4.6684128025265865e-06
4191.48,-4.747083166770292e-06
4192.38,-4.803923478860561e-06
4193.28,-4.85135239359684e-06
4194.18,-4.894347126097311e-06
4195.08,-4.833511365965095e-06
4195.98,-4.729109363710629e-06
4196.88,-4.6382210394291066e-06
4197.78,-4.5164954730547444e-06
4198.68,-4.443689312241182e-06
4199.58,-4.3832883712000195e-06
4200.48,-4.369983564423862e-06
4201.38,-4.396439775418207e-06
4202.28,-4.457087348337951e-06
4203.18,-4.563549574467855e-06
4204.08,-4.6857830382939465e-06
4204.98,-4.841344660317431e-06
4205.88,-4.987321815283896e-06
4206.79,-5.1584619420930305e-06
4207.69,-5.276671950767057e-06
4208.59,-5.370730349941808e-06
4209.49,-5.444612380055313e-06
4210.39,-5.463732256746934e-06
4211.29,-5.4771158003803036e-06
4212.19,-5.443089410232266e-06
4213.09,-5.41305862487108e-06
4213.99,-5.3635681955309665e-06
4214.89,-5.299522997963892e-06
4215.79,-5.286636993255415e-06
4216.69,-5.2989348154207255e-06
4217.59,-5.395865139778329e-06
4218.49,-5.529296309231245e-06
4219.39,-5.664411770372546e-06
4220.29,-5.794401208586835e-06
4221.19,-5.821720884038858e-06
4222.09,-5.75215037510953e-06
4222.99,-5.579387080703817e-06
4223.89,-5.301523760387065e-06
4224.79,-4.981594133296187e-06
4225.69,-4.686401782470066e-06
4226.59,-4.402641921907914e-06
4227.49,-4.2960270294402764e-06
4228.39,-4.359749480615492e-06
4229.29,-4.578160526696949e-06
4230.19,-4.908668796442634e-06
4231.09,-5.213834142248679e-06
4231.99,-5.48034628175134e-06
4232.89,-5.637764418693001e-06
4233.79,-5.722165888972013e-06
4234.69,-5.727243424282433e-06
4235.59,-5.687957687829437e-06
4236.49,-5.629076894869719e-06
4237.39,-5.647429237937408e-06
4238.29,-5.653355163507645e-06
4239.19,-5.7526674691851254e-06
4240.09,-5.868250480404898e-06
4240.99,-6.045134915967367e-06
4241.89,-6.2066104153390565e-06
4242.79,-6.387597877586618e-06
4243.69,-6.517426519832382e-06
4244.59,-6.652974320647133e-06
4245.5,-6.695691775177987e-06
4246.4,-6.697437633063954e-06
4247.3,-6.595069499349979e-06
4248.2,-6.422873285948015e-06
4249.1,-6.2516171485748435e-06
4250.0,-6.0849283419952885e-06
4250.9,-5.966352455517605e-06
4251.8,-5.918237470439689e-06
4252.7,-5.891612172474636e-06
4253.6,-5.944867625914342e-06
4254.5,-5.9984411132374415e-06
4255.4,-6.0809310748126785e-06
4256.3,-6.130157309997542e-06
4257.2,-6.2247338053372e-06
4258.1,-6.263508929279716e-06
4259.0,-6.237452778196479e-06
4259.9,-6.219591522578427e-06
4260.8,-6.230281489668759e-06
4261.7,-6.302471240521722e-06
4262.6,-6.442524649166285e-06
4263.5,-6.692626965653022e-06
4264.4,-6.914343270782275e-06
4265.3,-7.15102795673682e-06
4266.2,-7.276646300995604e-06
4267.1,-7.313668257002143e-06
4268.0,-7.185443242961552e-06
4268.9,-6.960771641828467e-06
4269.8,-6.645937224987144e-06
4270.7,-6.3169651930707705e-06
4271.6,-6.012598475443885e-06
4272.5,-5.765228354110227e-06
4273.4,-5.64787730922285e-06
4274.3,-5.677400666534639e-06
4275.2,-5.843421409060456e-06
4276.1,-6.1078319631385824e-06
4277.0,-6.414854562285848e-06
4277.9,-6.717989040987475e-06
4278.8,-6.96650592141036e-06
