wave,flux
3700.85,-6.923343725197988e-07
3701.75,-6.751941470090345e-07
3702.65,-6.523768090147795e-07
3703.55,-6.103877753271542e-07
3704.45,-5.635364608378204e-07
3705.35,-5.215330052548251e-07
3706.25,-4.876578868096095e-07
3707.15,-4.7010435831052507e-07
3708.05,-4.6721912536571693e-07
3708.96,-4.798253805662625e-07
3709.86,-5.059468892025342e-07
3710.76,-5.438594569080657e-07
3711.66,-5.929566886579506e-07
3712.56,-6.363828298431877e-07
3713.46,-6.75490330839577e-07
3714.36,-7.030425182310334e-07
3715.26,-7.035233773525116e-07
3716.16,-6.890810589807017e-07
3717.06,-6.566492354151583e-07
3717.96,-6.034805713940189e-07
3718.86,-5.430726096687554e-07
3719.76,-4.859618392689243e-07
3720.66,-4.395455718356482e-07
3721.56,-4.1079662768775697e-07
3722.46,-4.1378242868982174e-07
3723.36,-4.404783507840197e-07
3724.26,-4.800871431449194e-07
3725.16,-5.190822566960013e-07
3726.06,-5.491952632758727e-07
3726.96,-5.624799331805444e-07
3727.86,-5.692992385398191e-07
3728.76,-5.689240375779316e-07
3729.66,-5.59437605633909e-07
3730.56,-5.446246995629452e-07
3731.46,-5.207616637029741e-07
3732.36,-4.854114723996983e-07
3733.26,-4.425949171422679e-07
3734.16,-3.9672805713877266e-07
3735.06,-3.6092554600280726e-07
3735.96,-3.432431283657391e-07
3736.86,-3.4485622979684006e-07
3737.76,-3.6878252306310935e-07
3738.66,-4.083000030887421e-07
3739.56,-4.5746705358940786e-07
3740.46,-4.978598493583108e-07
3741.36,-5.258503990814607e-07
3742.26,-5.333652651556424e-07
3743.16,-5.158860537831994e-07
3744.06,-4.861997217097322e-07
3744.96,-4.504947198789936e-07
3745.86,-4.162695267236968e-07
3746.76,-3.878861350898346e-07
3747.67,-3.668896181700864e-07
3748.57,-3.598453773722029e-07
3749.47,-3.6343401118146576e-07
3750.37,-3.856932506254114e-07
3751.27,-4.262087226025593e-07
3752.17,-4.789156565641064e-07
3753.07,-5.345459949320817e-07
3753.97,-5.845575625342529e-07
3754.87,-6.166499763953307e-07
3755.77,-6.278896530341759e-07
3756.67,-6.179462854993942e-07
3757.57,-5.86469463099293e-07
3758.47,-5.510530500810057e-07
3759.37,-5.25503010669044e-07
3760.27,-5.133071325814522e-07
3761.17,-5.15445458447014e-07
3762.07,-5.23730092552818e-07
3762.97,-5.310727326142719e-07
3763.87,-5.373847598462918e-07
3764.77,-5.409297371770999e-07
3765.67,-5.423906473794489e-07
3766.57,-5.471737778370782e-07
3767.47,-5.558640769181815e-07
3768.37,-5.677797272429488e-07
3769.27,-5.876144035621372e-07
3770.17,-6.094670683557378e-07
3771.07,-6.327069208708811e-07
3771.97,-6.577426963661794e-07
3772.87,-6.81229022969615e-07
3773.77,-6.999633942925661e-07
3774.67,-7.093684262504466e-07
3775.57,-7.158081740450475e-07
3776.47,-7.21047765711697e-07
3777.37,-7.267906581843654e-07
3778.27,-7.341445668718576e-07
3779.17,-7.467855322646146e-07
3780.07,-7.595746448862723e-07
3780.97,-7.730085455488488e-07
3781.87,-7.868356862854755e-07
3782.77,-7.928590556817614e-07
3783.67,-7.878286522426742e-07
3784.57,-7.728773668420318e-07
3785.47,-7.440304836061507e-07
3786.38,-7.058559360152249e-07
3787.28,-6.654329311162427e-07
3788.18,-6.323174729003419e-07
3789.08,-6.055088679771169e-07
3789.98,-5.948210148507167e-07
3790.88,-5.932025388826001e-07
3791.78,-5.944032452915433e-07
3792.68,-5.940111793795049e-07
3793.58,-5.882884367134373e-07
3794.48,-5.756728954136518e-07
3795.38,-5.619195980641906e-07
3796.28,-5.458303833920241e-07
3797.18,-5.299991714003459e-07
3798.08,-5.2189733358433e-07
3798.98,-5.262297619292914e-07
3799.88,-5.440899875591349e-07
3800.78,-5.696901023352927e-07
3801.68,-6.104880244471724e-07
3802.58,-6.533055632421241e-07
3803.48,-6.891257038821638e-07
3804.38,-7.123742943728576e-07
3805.28,-7.234464683254553e-07
3806.18,-7.20085779652843e-07
3807.08,-7.171080360291661e-07
3807.98,-7.111671429980294e-07
3808.88,-7.144055162512888e-07
3809.78,-7.179494521314647e-07
3810.68,-7.204874101653458e-07
3811.58,-7.117693709276278e-07
3812.48,-6.900895236902576e-07
3813.38,-6.602850768775459e-07
3814.28,-6.173379798632117e-07
3815.18,-5.841553952149895e-07
3816.08,-5.54821326652241e-07
3816.98,-5.373798884221993e-07
3817.88,-5.255873488927075e-07
3818.78,-5.158234828349803e-07
3819.68,-5.040307308515238e-07
3820.58,-4.909927556133413e-07
3821.48,-4.785287345588371e-07
3822.38,-4.7076466520661473e-07
3823.28,-4.6158684016133163e-07
3824.18,-4.516107709411237e-07
3825.09,-4.360834142627007e-07
3825.99,-4.1855083413875554e-07
3826.89,-4.0576078085049527e-07
3827.79,-3.967580569859099e-07
3828.69,-3.9930245155180155e-07
3829.59,-4.029941911504538e-07
3830.49,-4.0523148592320696e-07
3831.39,-4.0445638737878094e-07
3832.29,-3.9907471885226645e-07
3833.19,-3.915323591416677e-07
3834.09,-3.8881501312372623e-07
3834.99,-3.8625676546581294e-07
3835.89,-3.8873611737690787e-07
3836.79,-3.9533114063638516e-07
3837.69,-3.9825458587456625e-07
3838.59,-3.9769229012198514e-07
3839.49,-4.0233337893690934e-07
3840.39,-4.1513161949987976e-07
3841.29,-4.3965009586289647e-07
3842.19,-4.774081325927981e-07
3843.09,-5.199288058683084e-07
3843.99,-5.616346108932764e-07
3844.89,-5.960992506029398e-07
3845.79,-6.215714124307924e-07
3846.69,-6.388885263359616e-07
3847.59,-6.415563554892706e-07
3848.49,-6.38155919271474e-07
3849.39,-6.353630722630926e-07
3850.29,-6.276897518465131e-07
3851.19,-6.215454258436614e-07
3852.09,-6.217240776403927e-07
3852.99,-6.166071628102028e-07
3853.89,-6.131220238831769e-07
3854.79,-6.01123520960841e-07
3855.69,-5.833117823209809e-07
3856.59,-5.626901089995907e-07
3857.49,-5.366596145465058e-07
3858.39,-5.144150814775703e-07
3859.29,-5.000867097494458e-07
3860.19,-4.946425235567738e-07
3861.09,-5.069928505697021e-07
3861.99,-5.37090568791512e-07
3862.9,-5.675954981316065e-07
3863.8,-6.030162531798202e-07
3864.7,-6.268870753426687e-07
3865.6,-6.391663282581983e-07
3866.5,-6.392618117615578e-07
3867.4,-6.338263698487844e-07
3868.3,-6.2132868125228e-07
3869.2,-6.056982655709772e-07
3870.1,-5.85450039332613e-07
3871.0,-5.676214366621547e-07
3871.9,-5.552308884755562e-07
3872.8,-5.582742104361516e-07
3873.7,-5.691910498438529e-07
3874.6,-5.889309794326979e-07
3875.5,-6.101585490593504e-07
3876.4,-6.20380526310336e-07
3877.3,-6.210117745131095e-07
3878.2,-6.084708510771075e-07
3879.1,-5.983617543294132e-07
3880.0,-5.906910544312091e-07
3880.9,-5.854116432333228e-07
3881.8,-5.885919498587284e-07
3882.7,-5.93617188453667e-07
3883.6,-5.987479896771575e-07
3884.5,-6.017968642759616e-07
3885.4,-5.971274578337446e-07
3886.3,-5.86878266687886e-07
3887.2,-5.79074099850598e-07
3888.1,-5.811629481832562e-07
3889.0,-5.892742656726993e-07
3889.9,-6.169143883443378e-07
3890.8,-6.511001119807501e-07
3891.7,-6.928585573823129e-07
3892.6,-7.325405318555407e-07
3893.5,-7.568626306690813e-07
3894.4,-7.743709747360872e-07
3895.3,-7.785978359658783e-07
3896.2,-7.776851971347814e-07
3897.1,-7.798917343953604e-07
3898.0,-7.78715465227319e-07
3898.9,-7.796029864366185e-07
3899.8,-7.799006802794136e-07
3900.7,-7.76101966608419e-07
3901.6,-7.751133862897637e-07
3902.51,-7.719247220701186e-07
3903.41,-7.625057492356758e-07
3904.31,-7.53783820724934e-07
3905.21,-7.479943831595718e-07
3906.11,-7.467532321010966e-07
3907.01,-7.562673617248814e-07
3907.91,-7.800742367001525e-07
3908.81,-8.155402849124419e-07
3909.71,-8.554356087787573e-07
3910.61,-8.849485156149351e-07
3911.51,-9.060881091025856e-07
3912.41,-9.221009430015319e-07
3913.31,-9.3343895693317e-07
3914.21,-9.329394590506659e-07
3915.11,-9.229372772809773e-07
3916.01,-9.101802603118314e-07
3916.91,-8.888608623929399e-07
3917.81,-8.66778028982374e-07
3918.71,-8.321970198192478e-07
3919.61,-8.018505550350747e-07
3920.51,-7.654487276343844e-07
3921.41,-7.367638882430284e-07
3922.31,-7.142388317932282e-07
3923.21,-7.02808624677361e-07
3924.11,-6.943288249146813e-07
3925.01,-6.824997768342534e-07
3925.91,-6.584601260394667e-07
3926.81,-6.243917579160228e-07
3927.71,-5.785905595820259e-07
3928.61,-5.224101980181237e-07
3929.51,-4.6479713151284547e-07
3930.41,-4.061538243467679e-07
3931.31,-3.5342407745472584e-07
3932.21,-3.0899823344333516e-07
3933.11,-2.765765894924939e-07
3934.01,-2.6037119019071823e-07
3934.91,-2.618206326105894e-07
3935.81,-2.781931709790061e-07
3936.71,-3.117213399998639e-07
3937.61,-3.5937138972574146e-07
3938.51,-4.1400259253925374e-07
3939.42,-4.730194802487384e-07
3940.32,-5.218694061622317e-07
3941.22,-5.654458260351365e-07
3942.12,-5.984929304700397e-07
3943.02,-6.246621606349424e-07
3943.92,-6.484762747350271e-07
3944.82,-6.75333289655006e-07
3945.72,-7.087025807711647e-07
3946.62,-7.468353409208335e-07
3947.52,-7.882174786671201e-07
3948.42,-8.261005192788342e-07
3949.32,-8.600377255317611e-07
3950.22,-8.923783864345633e-07
3951.12,-9.164114405601747e-07
3952.02,-9.296689125652489e-07
3952.92,-9.417608882079698e-07
3953.82,-9.469413331047822e-07
3954.72,-9.514598166924457e-07
3955.62,-9.430091633914442e-07
3956.52,-9.402430871599286e-07
3957.42,-9.225341522560246e-07
3958.32,-9.054074841115236e-07
3959.22,-8.749342663973654e-07
3960.12,-8.380437356559094e-07
3961.02,-7.816470723343011e-07
3961.92,-7.241099374335408e-07
3962.82,-6.640066852595428e-07
3963.72,-6.036296897008806e-07
3964.62,-5.456301840670357e-07
3965.52,-4.918739814762183e-07
3966.42,-4.385223521702627e-07
3967.32,-3.89043947841899e-07
3968.22,-3.4892509220035836e-07
3969.12,-3.273924105116612e-07
3970.02,-3.291251363080559e-07
3970.92,-3.51059778330393e-07
3971.82,-3.953465331328509e-07
3972.72,-4.5510905916827784e-07
3973.62,-5.234693111008719e-07
3974.52,-5.980671247800929e-07
3975.42,-6.711949893228694e-07
3976.32,-7.473056191030497e-07
3977.22,-8.201593221667122e-07
3978.13,-8.813706178392229e-07
3979.03,-9.418198882345431e-07
3979.93,-9.90798681704934e-07
3980.83,-1.0289760186302696e-06
3981.73,-1.05545428993726e-06
3982.63,-1.0697014800979646e-06
3983.53,-1.077233532954546e-06
3984.43,-1.0881163457541508e-06
3985.33,-1.1013211327866225e-06
3986.23,-1.1184425611860278e-06
3987.13,-1.1327499085859812e-06
3988.03,-1.1589032273617214e-06
3988.93,-1.168386801083996e-06
3989.83,-1.185594035106065e-06
3990.73,-1.2016204413839408e-06
3991.63,-1.2093299510390403e-06
3992.53,-1.2178941840945813e-06
3993.43,-1.2205786030291655e-06
3994.33,-1.2196547902192888e-06
3995.23,-1.2135459788337945e-06
3996.13,-1.2035045078395127e-06
3997.03,-1.1940112412265444e-06
3997.93,-1.1906633568157198e-06
3998.83,-1.205985899816697e-06
3999.73,-1.22774096394887e-06
4000.63,-1.2526256802991789e-06
4001.53,-1.277312847242949e-06
4002.43,-1.2914816715409283e-06
4003.33,-1.2858670298003009e-06
4004.23,-1.2703884844092225e-06
4005.13,-1.2440447483933276e-06
4006.03,-1.2258163529343646e-06
4006.93,-1.2078950160820208e-06
4007.83,-1.2152363466971527e-06
4008.73,-1.2314132934614276e-06
4009.63,-1.2610492941177236e-06
4010.53,-1.2963708159377266e-06
4011.43,-1.322198686269433e-06
4012.33,-1.3388744785650785e-06
4013.23,-1.3526338264506136e-06
4014.13,-1.3606423864553246e-06
4015.03,-1.3728466062140284e-06
4015.93,-1.376331914326906e-06
4016.84,-1.377372488412806e-06
4017.74,-1.3703830825598802e-06
4018.64,-1.3797986460383349e-06
4019.54,-1.3807047960826319e-06
4020.44,-1.3907639009876476e-06
4021.34,-1.391803820029013e-06
4022.24,-1.3906143948045671e-06
4023.14,-1.386073229028243e-06
4024.04,-1.3897157693772538e-06
4024.94,-1.3890153001859563e-06
4025.84,-1.3956502706082707e-06
4026.74,-1.4027945358949006e-06
4027.64,-1.4121938717107266e-06
4028.54,-1.4010319584175554e-06
4029.44,-1.380361369855296e-06
4030.34,-1.3325384230562793e-06
4031.24,-1.2898783638703485e-06
4032.14,-1.2433328496135117e-06
4033.04,-1.2121111193028577e-06
4033.94,-1.199152904423515e-06
4034.84,-1.2175136300920573e-06
4035.74,-1.2568019982213867e-06
4036.64,-1.3117944047492293e-06
4037.54,-1.374944215743155e-06
4038.44,-1.4247292524859844e-06
4039.34,-1.4483749960366777e-06
4040.24,-1.4638589594496563e-06
4041.14,-1.4494270296488227e-06
4042.04,-1.4277589140580713e-06
4042.94,-1.3737716290742666e-06
4043.84,-1.3231037518640787e-06
4044.74,-1.2538382474465919e-06
4045.64,-1.2043460923587836e-06
4046.54,-1.1840082540570484e-06
4047.44,-1.1928681244407793e-06
4048.34,-1.2289070639182145e-06
4049.24,-1.293436857949511e-06
4050.14,-1.3541965253430167e-06
4051.04,-1.4113668614728306e-06
4051.94,-1.4369574723250634e-06
4052.84,-1.439959592337905e-06
4053.74,-1.4267100797046065e-06
4054.65,-1.4042246786307579e-06
4055.55,-1.3814250647467289e-06
4056.45,-1.359352117826313e-06
4057.35,-1.3410914791272325e-06
4058.25,-1.3251106507450029e-06
4059.15,-1.328021147252167e-06
4060.05,-1.3295189128261505e-06
4060.95,-1.3213464046596798e-06
4061.85,-1.3047673458771405e-06
4062.75,-1.2781560695579576e-06
4063.65,-1.2507958115122348e-06
4064.55,-1.2315644451767788e-06
4065.45,-1.2292434811905662e-06
4066.35,-1.247952571690375e-06
4067.25,-1.2806502126700415e-06
4068.15,-1.3190471249540152e-06
4069.05,-1.350583273818104e-06
4069.95,-1.372154217074895e-06
4070.85,-1.3682268127680848e-06
4071.75,-1.3662473642615335e-06
4072.65,-1.3569530822316029e-06
4073.55,-1.3512989654638014e-06
4074.45,-1.3485105618039587e-06
4075.35,-1.341657908825158e-06
4076.25,-1.3332191352962534e-06
4077.15,-1.315189540077949e-06
4078.05,-1.3164225973827258e-06
4078.95,-1.3378923196354125e-06
4079.85,-1.365714416821319e-06
4080.75,-1.4056990770721296e-06
4081.65,-1.4474708126618128e-06
4082.55,-1.4775816291297898e-06
4083.45,-1.5000910801128471e-06
4084.35,-1.5129956030977618e-06
4085.25,-1.5236748456225576e-06
4086.15,-1.535961753537552e-06
4087.05,-1.5689425700792609e-06
4087.95,-1.6019843018854476e-06
4088.85,-1.633493918133739e-06
4089.75,-1.6541650095325182e-06
4090.65,-1.6642329616879372e-06
4091.55,-1.6595406018617558e-06
4092.45,-1.6512402051371814e-06
4093.36,-1.621998286317551e-06
4094.26,-1.592949932200601e-06
4095.16,-1.5603711531276294e-06
4096.06,-1.524385805243972e-06
4096.96,-1.4867249170506961e-06
4097.86,-1.4475178475999182e-06
4098.76,-1.396028846685829e-06
4099.66,-1.35854013191173e-06
4100.56,-1.324178421143254e-06
4101.46,-1.2954816638449562e-06
4102.36,-1.275953378606588e-06
4103.26,-1.2904319300777563e-06
4104.16,-1.3205182750098663e-06
4105.06,-1.3677283869479882e-06
4105.96,-1.4190273424164829e-06
4106.86,-1.4681222962451756e-06
4107.76,-1.504444643062603e-06
4108.66,-1.5278225663080018e-06
4109.56,-1.5359129443064353e-06
4110.46,-1.5406225956108342e-06
4111.36,-1.5298445301368093e-06
4112.26,-1.5438068810097496e-06
4113.16,-1.5541176123487917e-06
4114.06,-1.5730343735706525e-06
4114.96,-1.5978527440692183e-06
4115.86,-1.6090600090880036e-06
4116.76,-1.6126322334272995e-06
4117.66,-1.6125157339035747e-06
4118.56,-1.5926760336441664e-06
4119.46,-1.5874659447590988e-06
4120.36,-1.574149091349555e-06
4121.26,-1.5631407969686301e-06
4122.16,-1.565170821123497e-06
4123.06,-1.5744967479639526e-06
4123.96,-1.5870071935056392e-06
4124.86,-1.5931983238059347e-06
4125.76,-1.5976060906020666e-06
4126.66,-1.5985678613101147e-06
4127.56,-1.590405164974616e-06
4128.46,-1.5679715717657914e-06
4129.36,-1.5484032712862088e-06
4130.26,-1.5200615471881356e-06
4131.17,-1.4948727622892384e-06
4132.06,-1.4614074496774827e-06
4132.97,-1.4472363888688664e-06
4133.87,-1.4444349081056e-06
4134.77,-1.4509611567244299e-06
4135.67,-1.493615519697709e-06
4136.57,-1.5309062993373492e-06
4137.47,-1.57650988979753e-06
4138.37,-1.6171646615126474e-06
4139.27,-1.6269605354395158e-06
4140.17,-1.6299084596662763e-06
4141.07,-1.6078974027121084e-06
4141.97,-1.5591716128234272e-06
4142.87,-1.5145672991085377e-06
4143.77,-1.4711427939747425e-06
4144.67,-1.4525523462586144e-06
4145.57,-1.4511167812256267e-06
4146.47,-1.4670261849830724e-06
4147.37,-1.499341846562756e-06
4148.27,-1.5283264512147592e-06
4149.17,-1.55057560850333e-06
4150.07,-1.5538937059952222e-06
4150.97,-1.5460211574375815e-06
4151.87,-1.5385580539911693e-06
4152.77,-1.5333514560165204e-06
4153.67,-1.52045904787565e-06
4154.57,-1.5234741919781087e-06
4155.47,-1.5151022544831953e-06
4156.37,-1.5265252948047425e-06
4157.27,-1.5399664167930994e-06
4158.17,-1.5607151586020393e-06
4159.07,-1.595510664612865e-06
4159.97,-1.6232176207595899e-06
4160.87,-1.6545567247353768e-06
4161.77,-1.6925487049761586e-06
4162.67,-1.7016274741396326e-06
4163.57,-1.7111532578921495e-06
4164.47,-1.708763725121133e-06
4165.37,-1.7026269871727028e-06
4166.27,-1.6832258035299059e-06
4167.17,-1.6623445214604537e-06
4168.07,-1.6409891299392502e-06
4168.98,-1.6326096677733924e-06
4169.88,-1.6065553560521612e-06
4170.78,-1.587831203543691e-06
4171.68,-1.564723980667726e-06
4172.58,-1.5385261997532628e-06
4173.48,-1.505890669800084e-06
4174.38,-1.496291830499028e-06
4175.28,-1.4942355734621867e-06
4176.18,-1.4991613540430284e-06
4177.08,-1.5065724552712687e-06
4177.98,-1.534560554597538e-06
4178.88,-1.5520904794866806e-06
4179.78,-1.5690684339775975e-06
4180.68,-1.5831525809475267e-06
4181.58,-1.592870517177922e-06
4182.48,-1.6065626514659754e-06
4183.38,-1.6117722048706638e-06
4184.28,-1.614347736199055e-06
4185.18,-1.6182497444286131e-06
4186.08,-1.6205398908261308e-06
4186.98,-1.6165015472378334e-06
4187.88,-1.6059690723235221e-06
4188.78,-1.609873346010998e-06
4189.68,-1.6208723215018527e-06
4190.58,-1.633960706704751e-06
4191.48,-1.6575781370308079e-06
4192.38,-1.6846461363700562e-06
4193.28,-1.68760136666098e-06
4194.18,-1.6907094427412395e-06
4195.08,-1.6736223565646302e-06
4195.98,-1.6446073886472312e-06
4196.88,-1.6101779749690866e-06
4197.78,-1.5706164503456972e-06
4198.68,-1.5366433889439169e-06
4199.58,-1.5132001352202996e-06
4200.48,-1.5121189692700866e-06
4201.38,-1.5093897443981205e-06
4202.28,-1.5292554583062838e-06
4203.18,-1.5454128367452389e-06
4204.08,-1.5795962353220062e-06
4204.98,-1.6314074606988281e-06
4205.88,-1.6673903919276928e-06
4206.79,-1.7228617848580528e-06
4207.69,-1.750569809325103e-06
4208.59,-1.7854126571941532e-06
4209.49,-1.7969415215640912e-06
4210.39,-1.8009421264197778e-06
4211.29,-1.8054025315011666e-06
4212.19,-1.7980706775000087e-06
4213.09,-1.779063782993192e-06
4213.99,-1.7654752959631516e-06
4214.89,-1.738053105460695e-06
4215.79,-1.7325965978541486e-06
4216.69,-1.7245440957716688e-06
4217.59,-1.7458408903841004e-06
4218.49,-1.7691575793006237e-06
4219.39,-1.8170627203821512e-06
4220.29,-1.8311824410326898e-06
4221.19,-1.836774372157857e-06
4222.09,-1.815007710293187e-06
4222.99,-1.7509578204559186e-06
4223.89,-1.6734548743684768e-06
4224.79,-1.5666659688423247e-06
4225.69,-1.4590548369918468e-06
4226.59,-1.3862476520637088e-06
4227.49,-1.3475308456509973e-06
4228.39,-1.3764076220797253e-06
4229.29,-1.4302548282729548e-06
4230.19,-1.5308611850954527e-06
4231.09,-1.6207159935201044e-06
4231.99,-1.6986287193970114e-06
4232.89,-1.7378660520750512e-06
4233.79,-1.7499276466695095e-06
4234.69,-1.7471329316491346e-06
4235.59,-1.735799090692123e-06
4236.49,-1.7177646588647023e-06
4237.39,-1.7079319906836517e-06
4238.29,-1.7153491062964308e-06
4239.19,-1.7383532239468907e-06
4240.09,-1.7612449184487837e-06
4240.99,-1.8022806801497792e-06
4241.89,-1.843394979974967e-06
4242.79,-1.8767706839115229e-06
4243.69,-1.914748415345932e-06
4244.59,-1.9408932930530866e-06
4245.5,-1.943588299330278e-06
4246.4,-1.931826036622306e-06
4247.3,-1.9049568577140438e-06
4248.2,-1.8601058980211362e-06
4249.1,-1.803832125230644e-06
4250.0,-1.7570589985293405e-06
4250.9,-1.727858320053082e-06
4251.8,-1.7139134481820398e-06
4252.7,-1.7091058784062902e-06
4253.6,-1.7234280544825509e-06
4254.5,-1.7379352371954458e-06
4255.4,-1.742325819093862e-06
4256.3,-1.7600501688952719e-06
4257.2,-1.7835247544746014e-06
4258.1,-1.780974619221688e-06
4259.0,-1.7779408176874527e-06
4259.9,-1.7666177313249991e-06
4260.8,-1.749531870060556e-06
4261.7,-1.7719873653677133e-06
4262.6,-1.7979996601341918e-06
4263.5,-1.864354570871868e-06
4264.4,-1.9191542958476836e-06
4265.3,-1.975982296254029e-06
4266.2,-1.9881788081573885e-06
4267.1,-1.99494002503512e-06
4268.0,-1.9596156238475288e-06
4268.9,-1.9034729352555556e-06
4269.8,-1.8224260917254772e-06
4270.7,-1.7291328488747507e-06
4271.6,-1.6472695663644588e-06
4272.5,-1.5894320542897996e-06
4273.4,-1.5596993996049347e-06
4274.3,-1.5646418372786686e-06
4275.2,-1.5951793933344311e-06
