wave,flux
3700.85,-2.6420426049722686e-07
3701.75,-2.5773177944888735e-07
3702.65,-2.490882499583046e-07
3703.55,-2.3311811451370597e-07
3704.45,-2.1528200321713813e-07
3705.35,-1.9928887630884159e-07
3706.25,-1.8639407841636951e-07
3707.15,-1.797325674331582e-07
3708.05,-1.7867706017734828e-07
3708.96,-1.8354747652965116e-07
3709.86,-1.9359133072624394e-07
3710.76,-2.0815338462958041e-07
3711.66,-2.2700510592236538e-07
3712.56,-2.436952204955271e-07
3713.46,-2.5874004150676726e-07
3714.36,-2.693655737413468e-07
3715.26,-2.6962184022100657e-07
3716.16,-2.641574891645902e-07
3717.06,-2.5179214779952135e-07
3717.96,-2.3146652960539616e-07
3718.86,-2.0835264523511826e-07
3719.76,-1.8649171475083533e-07
3720.66,-1.6872428020040803e-07
3721.56,-1.5773093888878226e-07
3722.46,-1.5891996140971882e-07
3723.36,-1.6921833066676912e-07
3724.26,-1.844842903624303e-07
3725.16,-1.9952256462153746e-07
3726.06,-2.1115393609859772e-07
3726.96,-2.163196842046551e-07
3727.86,-2.190010828983665e-07
3728.76,-2.1891556415706297e-07
3729.66,-2.153231642771486e-07
3730.56,-2.096781689124302e-07
3731.46,-2.0054494388647912e-07
3732.36,-1.8698192272118273e-07
3733.26,-1.705347641340844e-07
3734.16,-1.529031316631572e-07
3735.06,-1.3914195263365987e-07
3735.96,-1.3236079713301544e-07
3736.86,-1.3301869832106516e-07
3737.76,-1.422859732156275e-07
3738.66,-1.575753661029284e-07
3739.56,-1.7659808595029708e-07
3740.46,-1.922430050955521e-07
3741.36,-2.031061007807394e-07
3742.26,-2.060643446468731e-07
3743.16,-1.9936518362333834e-07
3744.06,-1.8794366287401817e-07
3744.96,-1.7418878168454058e-07
3745.86,-1.6099879892885496e-07
3746.76,-1.500616985909043e-07
3747.67,-1.4197764284678527e-07
3748.57,-1.392894237782162e-07
3749.47,-1.4071665428117202e-07
3750.37,-1.4937562542015337e-07
3751.27,-1.6511169665918485e-07
3752.17,-1.8558052351307132e-07
3753.07,-2.07193601243581e-07
3753.97,-2.2663996052331454e-07
3754.87,-2.3914753562335846e-07
3755.77,-2.4357266629332675e-07
3756.67,-2.397805918467778e-07
3757.57,-2.2762860059434987e-07
3758.47,-2.1394049835221676e-07
3759.37,-2.0407650776390312e-07
3760.27,-1.9939458600648518e-07
3761.17,-2.002797697017493e-07
3762.07,-2.035542817021272e-07
3762.97,-2.0646436752598353e-07
3763.87,-2.089752676758796e-07
3764.77,-2.104112151805935e-07
3765.67,-2.1103706962474053e-07
3766.57,-2.1295625724574331e-07
3767.47,-2.163975580370339e-07
3768.37,-2.2109671637163977e-07
3769.27,-2.2888300795817296e-07
3770.17,-2.3745981100941942e-07
3771.07,-2.465819359670732e-07
3771.97,-2.564091694228393e-07
3772.87,-2.656376011738797e-07
3773.77,-2.7301761664665304e-07
3774.67,-2.767618196996064e-07
3775.57,-2.793508534294389e-07
3776.47,-2.814728145502493e-07
3777.37,-2.837924736613034e-07
3778.27,-2.867426458822595e-07
3779.17,-2.917600350467775e-07
3780.07,-2.968380836839306e-07
3780.97,-3.0217098036761544e-07
3781.87,-3.0766057791083805e-07
3782.77,-3.1010101183152427e-07
3783.67,-3.082182846947009e-07
3784.57,-3.0245216533561804e-07
3785.47,-2.9124358245172445e-07
3786.38,-2.7637745125045616e-07
3787.28,-2.606216224068634e-07
3788.18,-2.477199601026749e-07
3789.08,-2.372826785676684e-07
3789.98,-2.3315867969998843e-07
3790.88,-2.3258841875920574e-07
3791.78,-2.331235264387409e-07
3792.68,-2.3303408246784735e-07
3793.58,-2.3085276242967628e-07
3794.48,-2.25964664019994e-07
3795.38,-2.2062715155987684e-07
3796.28,-2.143692862408424e-07
3797.18,-2.0820932109572468e-07
3798.08,-2.0508326536322154e-07
3798.98,-2.068429708039138e-07
3799.88,-2.1392244527011801e-07
3800.78,-2.2404982068060625e-07
3801.68,-2.4016152237440303e-07
3802.58,-2.5707688779674064e-07
3803.48,-2.71247391733721e-07
3804.38,-2.8047609493825194e-07
3805.28,-2.84914498585029e-07
3806.18,-2.836697111997459e-07
3807.08,-2.8257513936343836e-07
3807.98,-2.8031201923977773e-07
3808.88,-2.8166673356657225e-07
3809.78,-2.8314271648519385e-07
3810.68,-2.8422268408760966e-07
3811.58,-2.8086168430364284e-07
3812.48,-2.7238271331930554e-07
3813.38,-2.606913027722575e-07
3814.28,-2.4380300628778294e-07
3815.18,-2.307626396768393e-07
3816.08,-2.1923573506701294e-07
3816.98,-2.1240304871135705e-07
3817.88,-2.0779994372035628e-07
3818.78,-2.0399656935544625e-07
3819.68,-1.993884737624599e-07
3820.58,-1.942850761988803e-07
3821.48,-1.8940600784620687e-07
3822.38,-1.8638502026572432e-07
3823.28,-1.8280245779260985e-07
3824.18,-1.789016782580477e-07
3825.09,-1.7279954777415038e-07
3825.99,-1.6589864898874255e-07
3826.89,-1.6087418403584905e-07
3827.79,-1.5734891153079514e-07
3828.69,-1.5840238282659518e-07
3829.59,-1.599117265038672e-07
3830.49,-1.6084462304440477e-07
3831.39,-1.6058203213091705e-07
3832.29,-1.584898302643257e-07
3833.19,-1.5553811267740434e-07
3834.09,-1.5450203928006011e-07
3834.99,-1.5352862600299777e-07
3835.89,-1.545575686106775e-07
3836.79,-1.5722390453991415e-07
3837.69,-1.5843114170015e-07
3838.59,-1.58251997199384e-07
3839.49,-1.6014390022919056e-07
3840.39,-1.6528464380333085e-07
3841.29,-1.7509601717643355e-07
3842.19,-1.9018723220938528e-07
3843.09,-2.0718481503846996e-07
3843.99,-2.2386719116786648e-07
3844.89,-2.3767185411476543e-07
3845.79,-2.478979007679474e-07
3846.69,-2.5487638101367023e-07
3847.59,-2.5601301728862993e-07
3848.49,-2.5472807818552655e-07
3849.39,-2.536850151842199e-07
3850.29,-2.50692163572747e-07
3851.19,-2.4830846077635853e-07
3852.09,-2.48450170972382e-07
3852.99,-2.4647518211725695e-07
3853.89,-2.451515324826809e-07
3854.79,-2.404221794729995e-07
3855.69,-2.3336446042655563e-07
3856.59,-2.2517825898301944e-07
3857.49,-2.1482229169365766e-07
3858.39,-2.0597638234454423e-07
3859.29,-2.002960555377757e-07
3860.19,-1.9817183503239996e-07
3861.09,-2.0317757023914797e-07
3861.99,-2.153004545951314e-07
3862.9,-2.2759424520839118e-07
3863.8,-2.418660663940281e-07
3864.7,-2.515120960414467e-07
3865.6,-2.565116730237429e-07
3866.5,-2.5662309539341095e-07
3867.4,-2.545136398405485e-07
3868.3,-2.495663274153697e-07
3869.2,-2.4335753213713985e-07
3870.1,-2.3528932621889735e-07
3871.0,-2.2818923220162833e-07
3871.9,-2.2327186346952187e-07
3872.8,-2.245597997292572e-07
3873.7,-2.290164216815006e-07
3874.6,-2.3702662143125848e-07
3875.5,-2.45640311092603e-07
3876.4,-2.498269897464939e-07
3877.3,-2.501527841632751e-07
3878.2,-2.4517130611661875e-07
3879.1,-2.411671182096624e-07
3880.0,-2.381437091269688e-07
3880.9,-2.3608292450729558e-07
3881.8,-2.3743355091712015e-07
3882.7,-2.3952940440961993e-07
3883.6,-2.416690755867578e-07
3884.5,-2.429694256102585e-07
3885.4,-2.4115345625038363e-07
3886.3,-2.370823734835792e-07
3887.2,-2.3399696211243798e-07
3888.1,-2.349085824203582e-07
3889.0,-2.3825574257317616e-07
3889.9,-2.495030077951001e-07
3890.8,-2.6340480246851874e-07
3891.7,-2.80379066453627e-07
3892.6,-2.9652259314159447e-07
3893.5,-3.0645617123759797e-07
3894.4,-3.136357799374463e-07
3895.3,-3.154387211674347e-07
3896.2,-3.151599099995152e-07
3897.1,-3.1614536994761056e-07
3898.0,-3.157597210582875e-07
3898.9,-3.1621094228243644e-07
3899.8,-3.1642312730492454e-07
3900.7,-3.149729594918168e-07
3901.6,-3.146627552348201e-07
3902.51,-3.134599903955803e-07
3903.41,-3.0972481576846603e-07
3904.31,-3.0627070337102014e-07
3905.21,-3.0400644702933774e-07
3906.11,-3.035899772466396e-07
3907.01,-3.0754706517670914e-07
3907.91,-3.173204952334121e-07
3908.81,-3.318437294945435e-07
3909.71,-3.4817820262300795e-07
3910.61,-3.602951086933518e-07
3911.51,-3.6900899085625177e-07
3912.41,-3.7563944279749855e-07
3913.31,-3.803688097060539e-07
3914.21,-3.802758454275825e-07
3915.11,-3.763083178896461e-07
3916.01,-3.7121493817054783e-07
3916.91,-3.626254383555604e-07
3917.81,-3.537193977695684e-07
3918.71,-3.397063679638462e-07
3919.61,-3.2741424039054664e-07
3920.51,-3.126416856871652e-07
3921.41,-3.0101338432142615e-07
3922.31,-2.918956885314718e-07
3923.21,-2.873082523647211e-07
3924.11,-2.8392462363963095e-07
3925.01,-2.791690522252754e-07
3925.91,-2.6941463507639497e-07
3926.81,-2.555499842328247e-07
3927.71,-2.368738308022173e-07
3928.61,-2.1393629961010933e-07
3929.51,-1.9039845294098302e-07
3930.41,-1.6642467416005817e-07
3931.31,-1.4486068796979395e-07
3932.21,-1.2668864716212943e-07
3933.11,-1.1342909324929593e-07
3934.01,-1.0681429115977784e-07
3934.91,-1.0744043132864666e-07
3935.81,-1.1419256567124071e-07
3936.71,-1.279927708120372e-07
3937.61,-1.476012365140421e-07
3938.51,-1.7008937978946635e-07
3939.42,-1.9439373869673147e-07
3940.32,-2.1453236682381295e-07
3941.22,-2.3251435974668145e-07
3942.12,-2.4617596107598845e-07
3943.02,-2.570157316091029e-07
3943.92,-2.6689260444224977e-07
3944.82,-2.780280392355942e-07
3945.72,-2.9185187886312837e-07
3946.62,-3.0764611201676263e-07
3947.52,-3.2478859599142906e-07
3948.42,-3.4049896558613385e-07
3949.32,-3.5459176459094545e-07
3950.22,-3.680344537679836e-07
3951.12,-3.780578656781867e-07
3952.02,-3.836405248546391e-07
3952.92,-3.887453971852668e-07
3953.82,-3.9099947649523793e-07
3954.72,-3.92981491447635e-07
3955.62,-3.8960646187797393e-07
3956.52,-3.885787359214059e-07
3957.42,-3.813730752474996e-07
3958.32,-3.7440393162538707e-07
3959.22,-3.619099649990552e-07
3960.12,-3.467533337085664e-07
3961.02,-3.2351435992359885e-07
3961.92,-2.9978942642220013e-07
3962.82,-2.749876898958096e-07
3963.72,-2.500578202021134e-07
3964.62,-2.2609831941379337e-07
3965.52,-2.0388343711475393e-07
3966.42,-1.818230885743703e-07
3967.32,-1.6135603369007003e-07
3968.22,-1.4475982501840516e-07
3969.12,-1.3586694400490428e-07
3970.02,-1.366267237907629e-07
3970.92,-1.4577569826106096e-07
3971.82,-1.6421449737233919e-07
3972.72,-1.8909436908463593e-07
3973.62,-2.1756245369236847e-07
3974.52,-2.4864075160084595e-07
3975.42,-2.791263223723659e-07
3976.32,-3.108709174663015e-07
3977.22,-3.412792494194008e-07
3978.13,-3.6686098710112416e-07
3979.03,-3.9213962750250615e-07
3979.93,-4.1265609013532796e-07
3980.83,-4.2868482212548504e-07
3981.73,-4.398477248671081e-07
3982.63,-4.4591864811648596e-07
3983.53,-4.491930940829892e-07
3984.43,-4.5386716109547226e-07
3985.33,-4.59512860768961e-07
3986.23,-4.667966234953002e-07
3987.13,-4.7290992679775205e-07
3988.03,-4.83973956479622e-07
3988.93,-4.880810414407389e-07
3989.83,-4.9541805518272e-07
3990.73,-5.022659205669906e-07
3991.63,-5.056404904675292e-07
3992.53,-5.093745869211379e-07
3993.43,-5.106510199891973e-07
3994.33,-5.104182129033155e-07
3995.23,-5.080147352366366e-07
3996.13,-5.039630363447331e-07
3997.03,-5.001385359058274e-07
3997.93,-4.988866506001133e-07
3998.83,-5.054592732966613e-07
3999.73,-5.147327252343905e-07
4000.63,-5.253243018238252e-07
4001.53,-5.358394201349925e-07
4002.43,-5.419470762931505e-07
4003.33,-5.397541547923963e-07
4004.23,-5.334182077000878e-07
4005.13,-5.225149200300372e-07
4006.03,-5.150146256878337e-07
4006.93,-5.076388495910778e-07
4007.83,-5.108789097848293e-07
4008.73,-5.17836520242226e-07
4009.63,-5.30459910258026e-07
4010.53,-5.45483310840403e-07
4011.43,-5.56519919639911e-07
4012.33,-5.637099205850297e-07
4013.23,-5.696760128838675e-07
4014.13,-5.732230052497539e-07
4015.03,-5.785402901156201e-07
4015.93,-5.801854135588473e-07
4016.84,-5.808026388804454e-07
4017.74,-5.780312277066439e-07
4018.64,-5.82179911519609e-07
4019.54,-5.827396590232316e-07
4020.44,-5.871640328342905e-07
4021.34,-5.877821658930843e-07
4022.24,-5.874589155708366e-07
4023.14,-5.857191244867067e-07
4024.04,-5.874375682777118e-07
4024.94,-5.87320712236724e-07
4025.84,-5.903064100897358e-07
4026.74,-5.935094265198791e-07
4027.64,-5.976688083456997e-07
4028.54,-5.931261559192672e-07
4029.44,-5.845540170788007e-07
4030.34,-5.644746773793407e-07
4031.24,-5.465707735675607e-07
4032.14,-5.270089997027931e-07
4033.04,-5.139325065951898e-07
4033.94,-5.085940772593804e-07
4034.84,-5.165396944678238e-07
4035.74,-5.333716395059696e-07
4036.64,-5.568805782814255e-07
4037.54,-5.838679942677901e-07
4038.44,-6.051949265765696e-07
4039.34,-6.15428147407184e-07
4040.24,-6.221985920471982e-07
4041.14,-6.16253856633703e-07
4042.04,-6.072279212478361e-07
4042.94,-5.844468296289764e-07
4043.84,-5.630643477569383e-07
4044.74,-5.33751808711795e-07
4045.64,-5.128412202292534e-07
4046.54,-5.043362338560684e-07
4047.44,-5.082668109827424e-07
4048.34,-5.237840741203657e-07
4049.24,-5.514580300057123e-07
4050.14,-5.775411918432066e-07
4051.04,-6.021092180703625e-07
4051.94,-6.132159167248739e-07
4052.84,-6.146869687650779e-07
4053.74,-6.092193391333742e-07
4054.65,-5.998053699070088e-07
4055.55,-5.902492420263383e-07
4056.45,-5.809977977597045e-07
4057.35,-5.733705551222324e-07
4058.25,-5.667136153436013e-07
4059.15,-5.681343724758233e-07
4060.05,-5.689514650932654e-07
4060.95,-5.656295204756268e-07
4061.85,-5.587058164009657e-07
4062.75,-5.474806663682808e-07
4063.65,-5.359276444418889e-07
4064.55,-5.278515223135236e-07
4065.45,-5.27020487220579e-07
4066.35,-5.352080868491811e-07
4067.25,-5.494019146579118e-07
4068.15,-5.660503513335484e-07
4069.05,-5.797640518193018e-07
4069.95,-5.892072188748156e-07
4070.85,-5.877038059660589e-07
4071.75,-5.87036451603691e-07
4072.65,-5.83224747689312e-07
4073.55,-5.809757300324784e-07
4074.45,-5.799577902351063e-07
4075.35,-5.771907618734556e-07
4076.25,-5.737394477978517e-07
4077.15,-5.66157375694088e-07
4078.05,-5.668652788869615e-07
4078.95,-5.762904832423809e-07
4079.85,-5.884587087191843e-07
4080.75,-6.058768067521931e-07
4081.65,-6.240763219046092e-07
4082.55,-6.372580778975669e-07
4083.45,-6.471687315519139e-07
4084.35,-6.529405613913523e-07
4085.25,-6.57755396398027e-07
4086.15,-6.632675004315017e-07
4087.05,-6.777220434502799e-07
4087.95,-6.922120002897887e-07
4088.85,-7.060488460885041e-07
4089.75,-7.152081720423027e-07
4090.65,-7.197873743741023e-07
4091.55,-7.179835747776059e-07
4092.45,-7.146171880961587e-07
4093.36,-7.021853168307976e-07
4094.26,-6.898269623552453e-07
4095.16,-6.759315114385683e-07
4096.06,-6.605511800463348e-07
4096.96,-6.444348936896477e-07
4097.86,-6.276380445731398e-07
4098.76,-6.055035401005082e-07
4099.66,-5.894293837280798e-07
4100.56,-5.747022360834962e-07
4101.46,-5.624252067613089e-07
4102.36,-5.54122127741431e-07
4103.26,-5.605870013334472e-07
4104.16,-5.738384298269139e-07
4105.06,-5.945418364692345e-07
4105.96,-6.170363145679726e-07
4106.86,-6.385863797363745e-07
4107.76,-6.54592674456117e-07
4108.66,-6.649751494243567e-07
4109.56,-6.687083065635829e-07
4110.46,-6.709714758488784e-07
4111.36,-6.664887536944082e-07
4112.26,-6.727849810350822e-07
4113.16,-6.774933570811395e-07
4114.06,-6.859575977796946e-07
4114.96,-6.97001584134262e-07
4115.86,-7.021134026697397e-07
4116.76,-7.038958809761606e-07
4117.66,-7.040689133387699e-07
4118.56,-6.956276400616649e-07
4119.46,-6.935727704513774e-07
4120.36,-6.879735917930318e-07
4121.26,-6.833801289731616e-07
4122.16,-6.844857173444836e-07
4123.06,-6.887837148715154e-07
4123.96,-6.944780254482105e-07
4124.86,-6.974097592355588e-07
4125.76,-6.995624811839771e-07
4126.66,-7.002071762322606e-07
4127.56,-6.968543117565032e-07
4128.46,-6.872443664543987e-07
4129.36,-6.788845578816924e-07
4130.26,-6.666715540695472e-07
4131.17,-6.558363484966295e-07
4132.06,-6.413572977062008e-07
4132.97,-6.353438248764508e-07
4133.87,-6.3431713294596e-07
4134.77,-6.373873433838352e-07
4135.67,-6.563352140925653e-07
4136.57,-6.729375981333452e-07
4137.47,-6.932058749558933e-07
4138.37,-7.113104442530001e-07
4139.27,-7.158490051031329e-07
4140.17,-7.173764927869339e-07
4141.07,-7.079161792078285e-07
4141.97,-6.866842032108825e-07
4142.87,-6.672543335674226e-07
4143.77,-6.483319170019632e-07
4144.67,-6.403452143395758e-07
4145.57,-6.39918402361362e-07
4146.47,-6.47142640081397e-07
4147.37,-6.616111035841881e-07
4148.27,-6.74618554007638e-07
4149.17,-6.846603617461942e-07
4150.07,-6.863469166634436e-07
4150.97,-6.830901316128186e-07
4151.87,-6.800122274237475e-07
4152.77,-6.779300051711461e-07
4153.67,-6.724472824197597e-07
4154.57,-6.739986754614011e-07
4155.47,-6.705117129708965e-07
4156.37,-6.757856557883253e-07
4157.27,-6.819567161940776e-07
4158.17,-6.913689372916595e-07
4159.07,-7.070117584365486e-07
4159.97,-7.195226031920284e-07
4160.87,-7.336521233285082e-07
4161.77,-7.507417604576909e-07
4162.67,-7.55013692018756e-07
4163.57,-7.594868227434473e-07
4164.47,-7.586726077529441e-07
4165.37,-7.561936242678119e-07
4166.27,-7.478199493398746e-07
4167.17,-7.387830585728487e-07
4168.07,-7.295295333772841e-07
4168.98,-7.26043176489492e-07
4169.88,-7.146891293008723e-07
4170.78,-7.065896464161407e-07
4171.68,-6.965337878960682e-07
4172.58,-6.850951864715155e-07
4173.48,-6.707815209599283e-07
4174.38,-6.66723307107053e-07
4175.28,-6.660244104076651e-07
4176.18,-6.684381888897394e-07
4177.08,-6.71962065604588e-07
4177.98,-6.846690238101396e-07
4178.88,-6.927166994518858e-07
4179.78,-7.005232259569524e-07
4180.68,-7.070424930607693e-07
4181.58,-7.11615440538946e-07
4182.48,-7.179674573777001e-07
4183.38,-7.205315759642008e-07
4184.28,-7.219194867946508e-07
4185.18,-7.23901707650776e-07
4186.08,-7.251639669939865e-07
4186.98,-7.235942528948349e-07
4187.88,-7.191156059509374e-07
4188.78,-7.211005993570866e-07
4189.68,-7.262658457406707e-07
4190.58,-7.323710179373952e-07
4191.48,-7.43201086105959e-07
4192.38,-7.555859241057842e-07
4193.28,-7.571604800803758e-07
4194.18,-7.588046908428127e-07
4195.08,-7.513832594227857e-07
4195.98,-7.386000950322368e-07
4196.88,-7.233760706068121e-07
4197.78,-7.058356517700004e-07
4198.68,-6.907959644467448e-07
4199.58,-6.804815911414456e-07
4200.48,-6.802199090870839e-07
4201.38,-6.792164549114886e-07
4202.28,-6.883833036297125e-07
4203.18,-6.958863982304079e-07
4204.08,-7.115141228125797e-07
4204.98,-7.350951201989159e-07
4205.88,-7.515573213983509e-07
4206.79,-7.768204131973318e-07
4207.69,-7.895751353565154e-07
4208.59,-8.055574805297358e-07
4209.49,-8.110279567825297e-07
4210.39,-8.131031659846551e-07
4211.29,-8.153874360461581e-07
4212.19,-8.123456494543383e-07
4213.09,-8.040254760033873e-07
4213.99,-7.981493898666247e-07
4214.89,-7.860132950783977e-07
4215.79,-7.838061653676425e-07
4216.69,-7.804227997313001e-07
4217.59,-7.903233120476365e-07
4218.49,-8.011451244029063e-07
4219.39,-8.231125046819478e-07
4220.29,-8.297849626280389e-07
4221.19,-8.32596305051328e-07
4222.09,-8.230039594868063e-07
4222.99,-7.942257734675592e-07
4223.89,-7.593241258007726e-07
4224.79,-7.11106360343337e-07
4225.69,-6.624830755578755e-07
4226.59,-6.296353110035098e-07
4227.49,-6.1225466993842e-07
4228.39,-6.255840371048241e-07
4229.29,-6.502753175557006e-07
4230.19,-6.962496284456033e-07
4231.09,-7.373632007011684e-07
4231.99,-7.730693251899836e-07
4232.89,-7.911917947117468e-07
4233.79,-7.969500892758837e-07
4234.69,-7.959441530822292e-07
4235.59,-7.910460736273972e-07
4236.49,-7.830900784953924e-07
4237.39,-7.788690147106941e-07
4238.29,-7.825142041439062e-07
4239.19,-7.932747878197359e-07
4240.09,-8.039913060186926e-07
4240.99,-8.230004295300644e-07
4241.89,-8.420582406319887e-07
4242.79,-8.575927406160085e-07
4243.69,-8.752413340099494e-07
4244.59,-8.874911591534619e-07
4245.5,-8.890263107191505e-07
4246.4,-8.839439951637239e-07
4247.3,-8.719434832208425e-07
4248.2,-8.517014343307329e-07
4249.1,-8.262137217424339e-07
4250.0,-8.050618900398022e-07
4250.9,-7.919499774729234e-07
4251.8,-7.858239615183958e-07
4252.7,-7.838846636626679e-07
4253.6,-7.907209356322528e-07
4254.5,-7.976467649950872e-07
4255.4,-7.999325930561835e-07
4256.3,-8.083438312350727e-07
4257.2,-8.194026129205997e-07
4258.1,-8.1850835297857e-07
4259.0,-8.173911460138684e-07
4259.9,-8.124609898162672e-07
4260.8,-8.048763291451055e-07
4261.7,-8.154838104205358e-07
4262.6,-8.277359431203213e-07
4263.5,-8.585750579294313e-07
4264.4,-8.841119414711182e-07
4265.3,-9.106009147392353e-07
4266.2,-9.16533204464013e-07
4267.1,-9.19963078195342e-07
4268.0,-9.039809933645032e-07
4268.9,-8.783811861249441e-07
4269.8,-8.412677058883045e-07
4270.7,-7.984738357710111e-07
4271.6,-7.609306889103055e-07
4272.5,-7.344640616873895e-07
4273.4,-7.209708514891087e-07
4274.3,-7.235024744878324e-07
4275.2,-7.378752687459912e-07
4276.1,-7.673990268820709e-07
4277.0,-7.988324695425727e-07
4277.9,-8.350107956353249e-07
4278.8,-8.607410204216425e-07
