wave,flux
3700.85,-6.929578009562507e-07
3701.75,-6.83981168656819e-07
3702.65,-6.575130382232208e-07
3703.55,-6.177577090944884e-07
3704.45,-5.746207894387541e-07
3705.35,-5.353196931712244e-07
3706.25,-4.998643391704982e-07
3707.15,-4.836883980274024e-07
3708.05,-4.801625166437014e-07
3708.96,-4.936843122906147e-07
3709.86,-5.189798763336666e-07
3710.76,-5.517608645455139e-07
3711.66,-5.973940368145652e-07
3712.56,-6.450486028416187e-07
3713.46,-6.814625338579895e-07
3714.36,-7.072058781931504e-07
3715.26,-7.119589542883646e-07
3716.16,-7.038685268061384e-07
3717.06,-6.706898951699911e-07
3717.96,-6.247309151417487e-07
3718.86,-5.677134294473795e-07
3719.76,-5.146118736775847e-07
3720.66,-4.7048853217839096e-07
3721.56,-4.3885485672656837e-07
3722.46,-4.3952843623896246e-07
3723.36,-4.621450964650902e-07
3724.26,-4.954684320402496e-07
3725.16,-5.338116298092291e-07
3726.06,-5.672835820020443e-07
3726.96,-5.750968403844871e-07
3727.86,-5.803949125719152e-07
3728.76,-5.823109397641329e-07
3729.66,-5.729849974939087e-07
3730.56,-5.584716463491684e-07
3731.46,-5.345460943790567e-07
3732.36,-4.992187447544263e-07
3733.26,-4.5666362785541205e-07
3734.16,-4.118068149084745e-07
3735.06,-3.832976597384365e-07
3735.96,-3.674279030471984e-07
3736.86,-3.7302310421207685e-07
3737.76,-3.996129784624367e-07
3738.66,-4.42234686936722e-07
3739.56,-4.881562109724621e-07
3740.46,-5.284706890277664e-07
3741.36,-5.551523014207011e-07
3742.26,-5.596810395127841e-07
3743.16,-5.457965699156145e-07
3744.06,-5.157622318148092e-07
3744.96,-4.797031125153978e-07
3745.86,-4.4729572752186505e-07
3746.76,-4.1822006808095076e-07
3747.67,-3.9535383776550835e-07
3748.57,-3.852919153991657e-07
3749.47,-3.860479323622407e-07
3750.37,-4.0561182212238746e-07
3751.27,-4.4197937407132663e-07
3752.17,-4.941279310998815e-07
3753.07,-5.508523367784777e-07
3753.97,-6.025521507321694e-07
3754.87,-6.346744837110922e-07
3755.77,-6.475839436785627e-07
3756.67,-6.378518965504928e-07
3757.57,-6.107781785035556e-07
3758.47,-5.732431588436863e-07
3759.37,-5.48463226492617e-07
3760.27,-5.352718740224451e-07
3761.17,-5.355786484608686e-07
3762.07,-5.437232837868888e-07
3762.97,-5.532414156914326e-07
3763.87,-5.585884011858586e-07
3764.77,-5.60382024408946e-07
3765.67,-5.611822181817951e-07
3766.57,-5.607240080385544e-07
3767.47,-5.661472714360984e-07
3768.37,-5.722104367764971e-07
3769.27,-5.861233188342433e-07
3770.17,-6.018504405480193e-07
3771.07,-6.249832957799002e-07
3771.97,-6.489472157913332e-07
3772.87,-6.724771926058024e-07
3773.77,-6.915031453370728e-07
3774.67,-7.106675202714145e-07
3775.57,-7.166310797091757e-07
3776.47,-7.249357359378525e-07
3777.37,-7.3373164256316e-07
3778.27,-7.376597066831329e-07
3779.17,-7.516867755472521e-07
3780.07,-7.651529809055029e-07
3780.97,-7.821009004579623e-07
3781.87,-7.935390500395302e-07
3782.77,-7.998794553564412e-07
3783.67,-7.991348297205206e-07
3784.57,-7.817286472410129e-07
3785.47,-7.554735652126345e-07
3786.38,-7.183743319908646e-07
3787.28,-6.780976047251773e-07
3788.18,-6.405902340963449e-07
3789.08,-6.165319222738306e-07
3789.98,-6.015027045779542e-07
3790.88,-5.974602742951757e-07
3791.78,-5.970130623706526e-07
3792.68,-5.971567085548665e-07
3793.58,-5.893283493153882e-07
3794.48,-5.747470879554779e-07
3795.38,-5.578738007193466e-07
3796.28,-5.409707367614448e-07
3797.18,-5.243135153811817e-07
3798.08,-5.163747999331888e-07
3798.98,-5.195436626249319e-07
3799.88,-5.366402005772299e-07
3800.78,-5.631337687009978e-07
3801.68,-6.035820651560972e-07
3802.58,-6.426336138275288e-07
3803.48,-6.779461864864134e-07
3804.38,-7.037946424305905e-07
3805.28,-7.165040303994128e-07
3806.18,-7.169667950570563e-07
3807.08,-7.143192247136083e-07
3807.98,-7.109565150917101e-07
3808.88,-7.16334620194706e-07
3809.78,-7.229802113048939e-07
3810.68,-7.269535105027542e-07
3811.58,-7.211765936903622e-07
3812.48,-7.05459265748592e-07
3813.38,-6.727470550567062e-07
3814.28,-6.356904664889484e-07
3815.18,-5.977984878296003e-07
3816.08,-5.701347573725663e-07
3816.98,-5.51954804199963e-07
3817.88,-5.404985323791732e-07
3818.78,-5.344478534253483e-07
3819.68,-5.237344585491466e-07
3820.58,-5.113154490923107e-07
3821.48,-5.046965071639195e-07
3822.38,-4.956283841624345e-07
3823.28,-4.89715267286844e-07
3824.18,-4.771937637883179e-07
3825.09,-4.614554788756917e-07
3825.99,-4.451454145974716e-07
3826.89,-4.3052559479401534e-07
3827.79,-4.23742587056749e-07
3828.69,-4.2212510942563837e-07
3829.59,-4.26501223701891e-07
3830.49,-4.273896819250097e-07
3831.39,-4.2503274544463734e-07
3832.29,-4.1791173341406375e-07
3833.19,-4.1062120008838595e-07
3834.09,-4.0363695582465746e-07
3834.99,-4.0027403601235583e-07
3835.89,-4.0229879948319993e-07
3836.79,-4.052032434512021e-07
3837.69,-4.106652291644909e-07
3838.59,-4.1295700801522914e-07
3839.49,-4.1996136937547594e-07
3840.39,-4.351465410388892e-07
3841.29,-4.55611336717206e-07
3842.19,-4.923878122557006e-07
3843.09,-5.285448860415665e-07
3843.99,-5.684540121291166e-07
3844.89,-5.952851538665825e-07
3845.79,-6.183661321139863e-07
3846.69,-6.315041017609883e-07
3847.59,-6.361488253479722e-07
3848.49,-6.371078185409906e-07
3849.39,-6.323807302415884e-07
3850.29,-6.27929532222756e-07
3851.19,-6.258630140902889e-07
3852.09,-6.238494905702813e-07
3852.99,-6.206334561883136e-07
3853.89,-6.175256126714991e-07
3854.79,-6.101237107897625e-07
3855.69,-5.934949039332474e-07
3856.59,-5.775236573426999e-07
3857.49,-5.553954939859489e-07
3858.39,-5.387419039371036e-07
3859.29,-5.225581547744533e-07
3860.19,-5.195715550804865e-07
3861.09,-5.317789547623873e-07
3861.99,-5.589615742733984e-07
3862.9,-5.901052686557263e-07
3863.8,-6.224115571687668e-07
3864.7,-6.436895351474987e-07
3865.6,-6.530430517319795e-07
3866.5,-6.518863211562857e-07
3867.4,-6.43606829198922e-07
3868.3,-6.285912251632391e-07
3869.2,-6.109969936470955e-07
3870.1,-5.891921079937044e-07
3871.0,-5.751328117198972e-07
3871.9,-5.6643251633261e-07
3872.8,-5.676914544648253e-07
3873.7,-5.841785502046203e-07
3874.6,-6.058599889582383e-07
3875.5,-6.344067762074617e-07
3876.4,-6.459498575255782e-07
3877.3,-6.474001575208349e-07
3878.2,-6.37853150854091e-07
3879.1,-6.235454395619749e-07
3880.0,-6.119666757046391e-07
3880.9,-6.056467098878228e-07
3881.8,-6.056564729750921e-07
3882.7,-6.070763194480357e-07
3883.6,-6.116158053387269e-07
3884.5,-6.126894934631935e-07
3885.4,-6.084025228195198e-07
3886.3,-6.013356006701634e-07
3887.2,-5.908319843856401e-07
3888.1,-5.892012347893188e-07
3889.0,-5.960235494237477e-07
3889.9,-6.193414578353678e-07
3890.8,-6.553779962104751e-07
3891.7,-6.946208825387856e-07
3892.6,-7.347641202371423e-07
3893.5,-7.683257719758762e-07
3894.4,-7.912454392082161e-07
3895.3,-8.026020316386733e-07
3896.2,-8.051042485389631e-07
3897.1,-8.048683222866577e-07
3898.0,-8.100609190012987e-07
3898.9,-8.149636929219037e-07
3899.8,-8.123436040436342e-07
3900.7,-8.167775698297298e-07
3901.6,-8.157700998978865e-07
3902.51,-8.06857447885173e-07
3903.41,-7.948010529767894e-07
3904.31,-7.848239724673477e-07
3905.21,-7.736868231145986e-07
3906.11,-7.728743749743669e-07
3907.01,-7.882536883853043e-07
3907.91,-8.139633441262692e-07
3908.81,-8.458095077713051e-07
3909.71,-8.844725643311129e-07
3910.61,-9.123899277192914e-07
3911.51,-9.373332197911511e-07
3912.41,-9.533631225739402e-07
3913.31,-9.617883669130138e-07
3914.21,-9.610727133460248e-07
3915.11,-9.54043838793672e-07
3916.01,-9.406847878019588e-07
3916.91,-9.195802902849791e-07
3917.81,-8.963685284577213e-07
3918.71,-8.643444782841184e-07
3919.61,-8.334206841423445e-07
3920.51,-7.985971114449098e-07
3921.41,-7.734203241657726e-07
3922.31,-7.519263508064438e-07
3923.21,-7.44280544350379e-07
3924.11,-7.338651124804e-07
3925.01,-7.225725098085854e-07
3925.91,-6.996655647594499e-07
3926.81,-6.658497924597253e-07
3927.71,-6.15626627991565e-07
3928.61,-5.569970882576739e-07
3929.51,-4.937247129146181e-07
3930.41,-4.313426999463144e-07
3931.31,-3.736094601848882e-07
3932.21,-3.2603148002890027e-07
3933.11,-2.8903784374521663e-07
3934.01,-2.692059883004385e-07
3934.91,-2.70351683770029e-07
3935.81,-2.8703032908692233e-07
3936.71,-3.2399012572269953e-07
3937.61,-3.750919604957833e-07
3938.51,-4.359759739846881e-07
3939.42,-4.96296596971509e-07
3940.32,-5.528566493523208e-07
3941.22,-5.968927293720722e-07
3942.12,-6.313446450432059e-07
3943.02,-6.573719955676079e-07
3943.92,-6.786367977996764e-07
3944.82,-7.081284885798641e-07
3945.72,-7.404258814728919e-07
3946.62,-7.777283499085503e-07
3947.52,-8.194225640717923e-07
3948.42,-8.626344291671757e-07
3949.32,-8.935533734034732e-07
3950.22,-9.208193855498839e-07
3951.12,-9.411513563377721e-07
3952.02,-9.62275003026015e-07
3952.92,-9.67554997141785e-07
3953.82,-9.776378006580638e-07
3954.72,-9.772578813687718e-07
3955.62,-9.722004859540517e-07
3956.52,-9.675128223846643e-07
3957.42,-9.568653349049735e-07
3958.32,-9.372638198338246e-07
3959.22,-9.124258076800352e-07
3960.12,-8.82019746864371e-07
3961.02,-8.317352310970848e-07
3961.92,-7.742368549645219e-07
3962.82,-7.109054359389971e-07
3963.72,-6.468218490075972e-07
3964.62,-5.838971272566619e-07
3965.52,-5.252554767823659e-07
3966.42,-4.6533826215865626e-07
3967.32,-4.1259479383643666e-07
3968.22,-3.6841419973564466e-07
3969.12,-3.4466349499449115e-07
3970.02,-3.4233433406591454e-07
3970.92,-3.6690740194210037e-07
3971.82,-4.114099740610127e-07
3972.72,-4.726432901736612e-07
3973.62,-5.439480125549869e-07
3974.52,-6.193296987454234e-07
3975.42,-6.944481271723915e-07
3976.32,-7.675345773489669e-07
3977.22,-8.381054886183158e-07
3978.13,-9.054519854865206e-07
3979.03,-9.641776762562623e-07
3979.93,-1.0191888465483085e-06
3980.83,-1.058290148477893e-06
3981.73,-1.081827360594144e-06
3982.63,-1.100666604505384e-06
3983.53,-1.107516006925399e-06
3984.43,-1.1156781562829216e-06
3985.33,-1.121510489911066e-06
3986.23,-1.1348471053377773e-06
3987.13,-1.1522513852764293e-06
3988.03,-1.1743219896086908e-06
3988.93,-1.1962359682561429e-06
3989.83,-1.2068738099911783e-06
3990.73,-1.2276774180856189e-06
3991.63,-1.2351509702385694e-06
3992.53,-1.2484743938963497e-06
3993.43,-1.2532218364081563e-06
3994.33,-1.2527207633144247e-06
3995.23,-1.2466937633900887e-06
3996.13,-1.2369688098489176e-06
3997.03,-1.2327595940425975e-06
3997.93,-1.2323007243714804e-06
3998.83,-1.2484733270470094e-06
3999.73,-1.2734612182601008e-06
4000.63,-1.2963117626771957e-06
4001.53,-1.3246303586574312e-06
4002.43,-1.3380282913727362e-06
4003.33,-1.3380559968750053e-06
4004.23,-1.3187038414824499e-06
4005.13,-1.2928720390546123e-06
4006.03,-1.261340729432412e-06
4006.93,-1.24452475551408e-06
4007.83,-1.2525225258321664e-06
4008.73,-1.272468071994591e-06
4009.63,-1.2989221827013017e-06
4010.53,-1.3280955150088286e-06
4011.43,-1.3491652512853855e-06
4012.33,-1.3709418001362528e-06
4013.23,-1.3885378424424533e-06
4014.13,-1.3991263137362573e-06
4015.03,-1.4093977631090865e-06
4015.93,-1.4154560420792925e-06
4016.84,-1.4210683907030462e-06
4017.74,-1.4268102398478925e-06
4018.64,-1.4290597365219017e-06
4019.54,-1.442501918831067e-06
4020.44,-1.4397079121865495e-06
4021.34,-1.4484555038270091e-06
4022.24,-1.4421451450587554e-06
4023.14,-1.435889918781541e-06
4024.04,-1.4326017818026133e-06
4024.94,-1.43134001528223e-06
4025.84,-1.4308890756454436e-06
4026.74,-1.4344426201433125e-06
4027.64,-1.4446623058007344e-06
4028.54,-1.4301378694716679e-06
4029.44,-1.4074150446392814e-06
4030.34,-1.368633767459465e-06
4031.24,-1.3112941064183344e-06
4032.14,-1.2591055724582019e-06
4033.04,-1.2250671224317544e-06
4033.94,-1.2101181345430921e-06
4034.84,-1.2295107428455613e-06
4035.74,-1.2697024454879657e-06
4036.64,-1.3275267590493847e-06
4037.54,-1.3932145956347504e-06
4038.44,-1.4397813323896148e-06
4039.34,-1.4778351669071648e-06
4040.24,-1.4897282889775732e-06
4041.14,-1.4853111366179037e-06
4042.04,-1.4608141872441625e-06
4042.94,-1.4099688436053291e-06
4043.84,-1.3605490466114047e-06
4044.74,-1.295475792062618e-06
4045.64,-1.2389349602520856e-06
4046.54,-1.2211605503152471e-06
4047.44,-1.224713429890064e-06
4048.34,-1.2631890161345383e-06
4049.24,-1.3235519108942177e-06
4050.14,-1.3864593939317934e-06
4051.04,-1.43166197407468e-06
4051.94,-1.4599466093867355e-06
4052.84,-1.452437066922794e-06
4053.74,-1.4417017717289344e-06
4054.65,-1.4144715821468234e-06
4055.55,-1.3822800834863337e-06
4056.45,-1.358077812798139e-06
4057.35,-1.3355113820671163e-06
4058.25,-1.3199850901581982e-06
4059.15,-1.320573136314768e-06
4060.05,-1.3211613865949388e-06
4060.95,-1.3184447630134157e-06
4061.85,-1.306572073970307e-06
4062.75,-1.2865746861227892e-06
4063.65,-1.2560325307619286e-06
4064.55,-1.2430783303458569e-06
4065.45,-1.2444405808541465e-06
4066.35,-1.2639067984166908e-06
4067.25,-1.2932462933109088e-06
4068.15,-1.3249770919970258e-06
4069.05,-1.3574039724378999e-06
4069.95,-1.376121019226459e-06
4070.85,-1.3805217408666395e-06
4071.75,-1.3770369376549402e-06
4072.65,-1.3650041285755839e-06
4073.55,-1.363491275333089e-06
4074.45,-1.362046001138407e-06
4075.35,-1.349392042109362e-06
4076.25,-1.3365708169547108e-06
4077.15,-1.318719719442658e-06
4078.05,-1.3122140293836567e-06
4078.95,-1.3259681432900123e-06
4079.85,-1.3571704299325412e-06
4080.75,-1.4026398916015074e-06
4081.65,-1.456525749102279e-06
4082.55,-1.492679148590305e-06
4083.45,-1.5132815791443926e-06
4084.35,-1.5336331491669865e-06
4085.25,-1.5341212839553368e-06
4086.15,-1.5496205147950662e-06
4087.05,-1.5695539544672185e-06
4087.95,-1.5978383408724765e-06
4088.85,-1.6322534404510265e-06
4089.75,-1.653837489060026e-06
4090.65,-1.6550865136377338e-06
4091.55,-1.653143522380984e-06
4092.45,-1.6349242720368946e-06
4093.36,-1.6030173792757854e-06
4094.26,-1.573871300935268e-06
4095.16,-1.538623729298657e-06
4096.06,-1.497184757322737e-06
4096.96,-1.4479315788357652e-06
4097.86,-1.4101272182933242e-06
4098.76,-1.3657440099267097e-06
4099.66,-1.3231798714789057e-06
4100.56,-1.2791435996635953e-06
4101.46,-1.2491019601773373e-06
4102.36,-1.233534554326628e-06
4103.26,-1.2449698639324645e-06
4104.16,-1.2741456334649464e-06
4105.06,-1.3269991614218567e-06
4105.96,-1.3898951862193836e-06
4106.86,-1.4392671939425008e-06
4107.76,-1.485114203862409e-06
4108.66,-1.5024579087968318e-06
4109.56,-1.5165796613105179e-06
4110.46,-1.5264342662658348e-06
4111.36,-1.5264538674312028e-06
4112.26,-1.5369272415665974e-06
4113.16,-1.5437825393499688e-06
4114.06,-1.5733068916352838e-06
4114.96,-1.5936653295182001e-06
4115.86,-1.6104883791029441e-06
4116.76,-1.6182534460046794e-06
4117.66,-1.6142507264349166e-06
4118.56,-1.6024027746445082e-06
4119.46,-1.5876927508378852e-06
4120.36,-1.5645793316101317e-06
4121.26,-1.5627521739199988e-06
4122.16,-1.5588229049241348e-06
4123.06,-1.5550351621263072e-06
4123.96,-1.5760824870974204e-06
4124.86,-1.576057947005136e-06
4125.76,-1.5808448151037116e-06
4126.66,-1.5767581282393533e-06
4127.56,-1.5726626802644288e-06
4128.46,-1.5543063739998015e-06
4129.36,-1.5276873485363547e-06
4130.26,-1.5050969360814118e-06
4131.17,-1.4808904553480762e-06
4132.06,-1.4584231340127431e-06
4132.97,-1.4401857799489187e-06
4133.87,-1.439339846043326e-06
4134.77,-1.4523061843676092e-06
4135.67,-1.4912800978496644e-06
4136.57,-1.5332161392896435e-06
4137.47,-1.5775897439677657e-06
4138.37,-1.6081788646886606e-06
4139.27,-1.628986465441805e-06
4140.17,-1.631206325413151e-06
4141.07,-1.613563406802864e-06
4141.97,-1.5793666849978293e-06
4142.87,-1.5259667062189515e-06
4143.77,-1.483575391568321e-06
4144.67,-1.4620409493901291e-06
4145.57,-1.4613456505957931e-06
4146.47,-1.478859058318492e-06
4147.37,-1.5001731595970735e-06
4148.27,-1.5216803841873056e-06
4149.17,-1.5258892206853394e-06
4150.07,-1.5331901333005615e-06
4150.97,-1.521203065074641e-06
4151.87,-1.516688039251674e-06
4152.77,-1.5055888051713905e-06
4153.67,-1.4940804509047227e-06
4154.57,-1.4880514317081658e-06
4155.47,-1.4727018477292758e-06
4156.37,-1.4862046939408205e-06
4157.27,-1.5037731657408454e-06
4158.17,-1.5225406102772182e-06
4159.07,-1.5502186597663093e-06
4159.97,-1.588780914278024e-06
4160.87,-1.6231245205765099e-06
4161.77,-1.6487086551075835e-06
4162.67,-1.675043448118867e-06
4163.57,-1.689066546285572e-06
4164.47,-1.690351428104818e-06
4165.37,-1.6810564914558138e-06
4166.27,-1.66248538324426e-06
4167.17,-1.639873066789524e-06
4168.07,-1.6294785208157804e-06
4168.98,-1.6042890121411138e-06
4169.88,-1.5832072561492656e-06
4170.78,-1.573119985755378e-06
4171.68,-1.5479425458920378e-06
4172.58,-1.516161343698873e-06
4173.48,-1.48953607631747e-06
4174.38,-1.4658659848660057e-06
4175.28,-1.4617123020692507e-06
4176.18,-1.4673005242180135e-06
4177.08,-1.476389725778414e-06
4177.98,-1.4910549260717242e-06
4178.88,-1.5074164411909443e-06
4179.78,-1.5272297522655507e-06
4180.68,-1.5360080056320214e-06
4181.58,-1.5533327042682734e-06
4182.48,-1.5641453571454816e-06
4183.38,-1.5778531061233584e-06
4184.28,-1.5959033745344924e-06
4185.18,-1.6043030780425585e-06
4186.08,-1.606789689485406e-06
4186.98,-1.6112844740407236e-06
4187.88,-1.6080014836475413e-06
4188.78,-1.61170033050185e-06
4189.68,-1.6187019815752463e-06
4190.58,-1.631511017241924e-06
4191.48,-1.6601341385671177e-06
4192.38,-1.6838107818994068e-06
4193.28,-1.6900960169980884e-06
4194.18,-1.683787854825253e-06
4195.08,-1.671320124005933e-06
4195.98,-1.6397232300153899e-06
4196.88,-1.600367333125317e-06
4197.78,-1.5612596472147125e-06
4198.68,-1.5267847806418288e-06
4199.58,-1.5114202013797106e-06
4200.48,-1.4991160114459655e-06
4201.38,-1.506326684891161e-06
4202.28,-1.5212102905316531e-06
4203.18,-1.543788783924049e-06
4204.08,-1.5883725023165029e-06
4204.98,-1.626992563601187e-06
4205.88,-1.6679757547507135e-06
4206.79,-1.7237111990164904e-06
4207.69,-1.756421259209312e-06
4208.59,-1.7825474250740125e-06
4209.49,-1.795254986755393e-06
4210.39,-1.8008345034447915e-06
4211.29,-1.7998414234957941e-06
4212.19,-1.7945627722292236e-06
4213.09,-1.7673457688411365e-06
4213.99,-1.7477489180183232e-06
4214.89,-1.73100393627339e-06
4215.79,-1.7119109051802928e-06
4216.69,-1.7139636083753389e-06
4217.59,-1.7444288219430422e-06
4218.49,-1.7803400971988471e-06
4219.39,-1.823704689141936e-06
4220.29,-1.8525315313334114e-06
4221.19,-1.8666124423605665e-06
4222.09,-1.8425187250272124e-06
4222.99,-1.789887211909406e-06
4223.89,-1.7035493900802973e-06
4224.79,-1.6104509415892365e-06
4225.69,-1.505977636123957e-06
4226.59,-1.42572114568211e-06
4227.49,-1.390342895592595e-06
4228.39,-1.407848140742723e-06
4229.29,-1.4648868631658855e-06
4230.19,-1.5519190723405143e-06
4231.09,-1.6517214823053706e-06
4231.99,-1.7163892260793383e-06
4232.89,-1.765941898323501e-06
4233.79,-1.7810380378559486e-06
4234.69,-1.7690010206471355e-06
4235.59,-1.747989798625046e-06
4236.49,-1.7359797577230247e-06
4237.39,-1.7263985711589554e-06
4238.29,-1.7409302285078791e-06
4239.19,-1.755149567012754e-06
4240.09,-1.7858537076177655e-06
4240.99,-1.8256172402032682e-06
4241.89,-1.8759113034457694e-06
4242.79,-1.9167715051914857e-06
4243.69,-1.960178868571735e-06
4244.59,-1.9844876807504386e-06
4245.5,-2.0038288820839627e-06
4246.4,-1.9938024673656874e-06
4247.3,-1.9466501480001914e-06
4248.2,-1.9096748032666433e-06
4249.1,-1.8568651566700596e-06
4250.0,-1.8115833727278956e-06
4250.9,-1.7788292652903857e-06
4251.8,-1.7497905975290918e-06
4252.7,-1.751737580517372e-06
4253.6,-1.754031337983841e-06
4254.5,-1.7712335514425937e-06
4255.4,-1.7859667148426643e-06
4256.3,-1.805561209469835e-06
4257.2,-1.8164650685495042e-06
4258.1,-1.8155393646569633e-06
4259.0,-1.8084637146418972e-06
4259.9,-1.7908006926555076e-06
4260.8,-1.7916650587422262e-06
4261.7,-1.8084189977956423e-06
4262.6,-1.8421515495676447e-06
4263.5,-1.9013504259161654e-06
4264.4,-1.9737243290386013e-06
4265.3,-2.023661752062699e-06
4266.2,-2.0558959665379697e-06
4267.1,-2.0568389971673795e-06
4268.0,-2.022291272310803e-06
4268.9,-1.943574528026292e-06
4269.8,-1.8760023096849086e-06
4270.7,-1.7762978287758066e-06
4271.6,-1.691492638835043e-06
4272.5,-1.6225965523507514e-06
4273.4,-1.5889997796403295e-06
4274.3,-1.6007504821418974e-06
4275.2,-1.627587351531994e-06
