wave,flux
3700.85,-8.40776206466313e-05
3701.75,-8.26097925120676e-05
3702.65,-8.029891843753754e-05
3703.55,-7.67137163274736e-05
3704.45,-7.235984966224639e-05
3705.35,-6.898271019078393e-05
3706.25,-6.634203887260474e-05
3707.15,-6.481602044837988e-05
3708.05,-6.548848778836557e-05
3708.96,-6.6812940938696e-05
3709.86,-6.934983281603498e-05
3710.76,-7.301725479886726e-05
3711.66,-7.744493579086228e-05
3712.56,-8.214611765714746e-05
3713.46,-8.658072192559064e-05
3714.36,-9.022700448593516e-05
3715.26,-9.20254643583713e-05
3716.16,-9.218371782254527e-05
3717.06,-8.998902685867278e-05
3717.96,-8.60528949265767e-05
3718.86,-8.004293312274897e-05
3719.76,-7.431555320200983e-05
3720.66,-6.881200520600871e-05
3721.56,-6.525866030146398e-05
3722.46,-6.507578928534147e-05
3723.36,-6.809687683076761e-05
3724.26,-7.257536474042798e-05
3725.16,-7.800991604670711e-05
3726.06,-8.2797635199159e-05
3726.96,-8.567761944405267e-05
3727.86,-8.643997459287154e-05
3728.76,-8.695547488549456e-05
3729.66,-8.679970857339087e-05
3730.56,-8.554768712798815e-05
3731.46,-8.304649617370319e-05
3732.36,-7.853595891730443e-05
3733.26,-7.314698805161537e-05
3734.16,-6.722139731633576e-05
3735.06,-6.292007631930209e-05
3735.96,-6.0587198532388406e-05
3736.86,-6.115633284044577e-05
3737.76,-6.530069801378798e-05
3738.66,-7.136428536149935e-05
3739.56,-7.84707796750524e-05
3740.46,-8.465719378820238e-05
3741.36,-8.931899733776199e-05
3742.26,-9.014992640150425e-05
3743.16,-8.939453834891787e-05
3744.06,-8.637429529318703e-05
3744.96,-8.212033275499196e-05
3745.86,-7.751042963396558e-05
3746.76,-7.343615340046803e-05
3747.67,-7.026497337545863e-05
3748.57,-6.803557205334253e-05
3749.47,-6.740865204666234e-05
3750.37,-6.971163440702896e-05
3751.27,-7.497363761993027e-05
3752.17,-8.216667930419002e-05
3753.07,-9.085456080400508e-05
3753.97,-9.927316331429183e-05
3754.87,-0.00010483819859427006
3755.77,-0.00010811216924906588
3756.67,-0.00010745918739985615
3757.57,-0.00010417539758238848
3758.47,-0.00010060286224037472
3759.37,-9.716001066679626e-05
3760.27,-9.568077675265539e-05
3761.17,-9.711653735567162e-05
3762.07,-9.882257051820327e-05
3762.97,-0.00010113862260947941
3763.87,-0.00010376564224887651
3764.77,-0.00010467357531793379
3765.67,-0.00010551063794959343
3766.57,-0.00010559033463694829
3767.47,-0.00010598333832920538
3768.37,-0.00010591301990626273
3769.27,-0.00010713228342967101
3770.17,-0.000108421794081613
3771.07,-0.00011096832981515271
3771.97,-0.00011414505772160031
3772.87,-0.00011805309681764555
3773.77,-0.00012256082663756734
3774.67,-0.000127123323959573
3775.57,-0.00012975037870012802
3776.47,-0.00013193542592522897
3777.37,-0.00013469282586732305
3778.27,-0.00013694171803324795
3779.17,-0.00013976937354117993
3780.07,-0.0001442860506675078
3780.97,-0.00014787835227240832
3781.87,-0.00014999628403264363
3782.77,-0.0001515951805264155
3783.67,-0.00015196373941814983
3784.57,-0.0001503974292099591
3785.47,-0.00014695294767732737
3786.38,-0.00014218024957680933
3787.28,-0.00013726738515354507
3788.18,-0.00013306518409149335
3789.08,-0.00012994256376017482
3789.98,-0.0001289046517921219
3790.88,-0.00012824744581975596
3791.78,-0.00012866900139414753
3792.68,-0.00012828233241437108
3793.58,-0.00012732669810943786
3794.48,-0.00012475580415770255
3795.38,-0.0001217488427040896
3796.28,-0.00011735552227691828
3797.18,-0.00011477070459381011
3798.08,-0.0001126474731799244
3798.98,-0.00011385779010492566
3799.88,-0.00011719167425459345
3800.78,-0.00012447891135919357
3801.68,-0.00013373461662633795
3802.58,-0.0001432801446413308
3803.48,-0.0001518916207593575
3804.38,-0.00015808656934827942
3805.28,-0.00016181304978482388
3806.18,-0.00016383376592871528
3807.08,-0.0001637854934377905
3807.98,-0.00016382003849992925
3808.88,-0.0001655082148459623
3809.78,-0.00016806894258175348
3810.68,-0.00016885100113955587
3811.58,-0.00016906309535891776
3812.48,-0.00016592473492181608
3813.38,-0.0001608132328488775
3814.28,-0.0001542933062858684
3815.18,-0.00014867648892073212
3816.08,-0.000145039951630557
3816.98,-0.00014306053738939538
3817.88,-0.00014273908604369074
3818.78,-0.00014141108547604007
3819.68,-0.00014094926343081695
3820.58,-0.0001393606858564137
3821.48,-0.000137195831520285
3822.38,-0.00013686954728036612
3823.28,-0.000135448936875867
3824.18,-0.00013271918712018092
3825.09,-0.00013031421951042795
3825.99,-0.00012645285111418425
3826.89,-0.00012302865542182618
3827.79,-0.00012103992484732198
3828.69,-0.00012053040845605851
3829.59,-0.00012069656160886981
3830.49,-0.00012001587781892251
3831.39,-0.00011937779429558314
3832.29,-0.00011614898561297974
3833.19,-0.00011315925863652134
3834.09,-0.00011029437343189707
3834.99,-0.00010941842306621305
3835.89,-0.00010943044968553807
3836.79,-0.00011069172529611183
3837.69,-0.00011192074221315804
3838.59,-0.00011497812738354278
3839.49,-0.00011860770149913868
3840.39,-0.00012394976725754926
3841.29,-0.00013330410911290778
3842.19,-0.0001442624949923015
3843.09,-0.00015581846914468803
3843.99,-0.00016775268002748643
3844.89,-0.00017742449594942915
3845.79,-0.00018509373507141378
3846.69,-0.00019014134422637365
3847.59,-0.00019382597759534605
3848.49,-0.0001947020367406119
3849.39,-0.00019529343585020375
3850.29,-0.00019572462940859958
3851.19,-0.00019709799752690502
3852.09,-0.00019862859273449027
3852.99,-0.0001992178680677238
3853.89,-0.00019992409194823506
3854.79,-0.00019765794906034752
3855.69,-0.00019465892933888564
3856.59,-0.00019061232219382866
3857.49,-0.0001849767115764187
3858.39,-0.00018013919519743038
3859.29,-0.00017678041825110261
3860.19,-0.0001757509885027468
3861.09,-0.0001803061542570575
3861.99,-0.00018822863078443754
3862.9,-0.0001981365916238263
3863.8,-0.0002072781776130714
3864.7,-0.0002144844398410581
3865.6,-0.0002193304240302937
3866.5,-0.0002210599075521255
3867.4,-0.00022057263241909137
3868.3,-0.00021940438362030222
3869.2,-0.00021757997135631762
3870.1,-0.00021362460936673647
3871.0,-0.00020844041401394962
3871.9,-0.00020446792380870768
3872.8,-0.00020251005395963985
3873.7,-0.00020482916096556874
3874.6,-0.00020667970132114382
3875.5,-0.00021254054046545873
3876.4,-0.00021653960933048512
3877.3,-0.00021776344013637783
3878.2,-0.00021599054082740334
3879.1,-0.00021471413285296226
3880.0,-0.00021405986125247673
3880.9,-0.00021492039392908757
3881.8,-0.00021546943808215324
3882.7,-0.00021748552239042346
3883.6,-0.00021826276114884953
3884.5,-0.00021713788209542435
3885.4,-0.0002130896351603938
3886.3,-0.00020807551657844002
3887.2,-0.00020238105965599188
3888.1,-0.00019877124623012384
3889.0,-0.00019897116092061891
3889.9,-0.00020386334465399405
3890.8,-0.00021316005762709756
3891.7,-0.0002243336343705803
3892.6,-0.00023723652642779078
3893.5,-0.00024620396756981053
3894.4,-0.0002542860767042637
3895.3,-0.0002609722080170268
3896.2,-0.0002647453899940229
3897.1,-0.0002688812789387436
3898.0,-0.0002737140586702139
3898.9,-0.0002764173212657547
3899.8,-0.0002787680051266435
3900.7,-0.00028071517701888275
3901.6,-0.00028254265139942235
3902.51,-0.00028329811621050576
3903.41,-0.0002817924094479413
3904.31,-0.00028101268787419817
3905.21,-0.0002806280743640891
3906.11,-0.0002811299328760542
3907.01,-0.00028466811194443595
3907.91,-0.0002926730910983954
3908.81,-0.00030444925411342614
3909.71,-0.00031444358380184473
3910.61,-0.0003276347032613583
3911.51,-0.0003355733911996848
3912.41,-0.00034244284858598765
3913.31,-0.00034527394717875215
3914.21,-0.0003458180456511766
3915.11,-0.00034484142728615717
3916.01,-0.000341357161154996
3916.91,-0.0003384398184958929
3917.81,-0.00033236435331545483
3918.71,-0.0003269325833526758
3919.61,-0.00031961124576492894
3920.51,-0.00031196420519303376
3921.41,-0.00030429238112555126
3922.31,-0.0003013939505142916
3923.21,-0.0002989160272580648
3924.11,-0.00029460746651313444
3925.01,-0.0002922232017772109
3925.91,-0.0002823643239189822
3926.81,-0.00027023642838405846
3927.71,-0.0002515946731455646
3928.61,-0.0002310395827883986
3929.51,-0.00020657602275191042
3930.41,-0.00018102460562287545
3931.31,-0.0001573374899109957
3932.21,-0.0001362717583997471
3933.11,-0.00012043339025439139
3934.01,-0.00011249377764733663
3934.91,-0.00011181942621244279
3935.81,-0.00011937730815549948
3936.71,-0.0001357949179252269
3937.61,-0.00015895375620452492
3938.51,-0.00018600440825943876
3939.42,-0.0002150309155369453
3940.32,-0.0002413476071595306
3941.22,-0.000263988836950502
3942.12,-0.0002825654238662625
3943.02,-0.0002977966440417158
3943.92,-0.0003109480998950383
3944.82,-0.00032577294542772693
3945.72,-0.00034052931888514795
3946.62,-0.0003564530987777831
3947.52,-0.0003712241193102165
3948.42,-0.00038644038381430563
3949.32,-0.00039918575338973827
3950.22,-0.00040919647430898707
3951.12,-0.0004199405707678693
3952.02,-0.0004266983044825957
3952.92,-0.0004326428509881924
3953.82,-0.0004377902682496044
3954.72,-0.00044167830370926833
3955.62,-0.00044219518601294375
3956.52,-0.00044231614917015447
3957.42,-0.0004408630641856724
3958.32,-0.00043708676581124574
3959.22,-0.000429429547924068
3960.12,-0.00041788573428199507
3961.02,-0.00039954991227292877
3961.92,-0.0003778857221240133
3962.82,-0.00035053752209732695
3963.72,-0.00032337215561690407
3964.62,-0.00029536710986673804
3965.52,-0.0002661036012759528
3966.42,-0.00023566814315913973
3967.32,-0.00020715482243881917
3968.22,-0.00018500748794031576
3969.12,-0.0001713939602140275
3970.02,-0.00017036961529426437
3970.92,-0.00018228390186308076
3971.82,-0.00020678109909071945
3972.72,-0.00023887320666884785
3973.62,-0.00027882869381547643
3974.52,-0.000318807826772216
3975.42,-0.00035950705120106055
3976.32,-0.0003987261837980482
3977.22,-0.00043479131075926193
3978.13,-0.00046900440546042947
3979.03,-0.0005001666149516419
3979.93,-0.0005255094689377985
3980.83,-0.0005444214839514588
3981.73,-0.0005601666345064601
3982.63,-0.0005705897031093381
3983.53,-0.0005790588817130405
3984.43,-0.0005867919151235435
3985.33,-0.0005949195203492723
3986.23,-0.000605476068723897
3987.13,-0.0006167069387691656
3988.03,-0.0006285032620484684
3988.93,-0.0006439951052856767
3989.83,-0.0006556259678852794
3990.73,-0.0006650028483226931
3991.63,-0.0006724116741874181
3992.53,-0.0006787282343888192
3993.43,-0.0006850604778654233
3994.33,-0.0006885025388795586
3995.23,-0.0006888284521204409
3996.13,-0.0006882383760250797
3997.03,-0.0006843964043060358
3997.93,-0.0006843689590992192
3998.83,-0.0006931881457755844
3999.73,-0.0007049858109683648
4000.63,-0.0007229467620076306
4001.53,-0.0007378787357278682
4002.43,-0.000750211796130056
4003.33,-0.0007545936528918452
4004.23,-0.0007531735446827297
4005.13,-0.0007405594430853628
4006.03,-0.0007374631003850754
4006.93,-0.0007349448457273539
4007.83,-0.0007458226797721992
4008.73,-0.0007615796086454933
4009.63,-0.0007795368531151399
4010.53,-0.0007969443943190803
4011.43,-0.000812694173211484
4012.33,-0.0008269914656837326
4013.23,-0.0008330987958959505
4014.13,-0.0008417330626718796
4015.03,-0.0008512813425210456
4015.93,-0.0008603337195446497
4016.84,-0.0008609669034602388
4017.74,-0.0008703892999983875
4018.64,-0.0008753864172748706
4019.54,-0.0008812256353849409
4020.44,-0.00089219579902822
4021.34,-0.0008962638855932274
4022.24,-0.0009057126356538223
4023.14,-0.000907263309282247
4024.04,-0.0009110984803341203
4024.94,-0.00092730541024105
4025.84,-0.0009289278305071276
4026.74,-0.000943376531921308
4027.64,-0.0009536921705428571
4028.54,-0.0009555792058351483
4029.44,-0.0009550636837368885
4030.34,-0.0009413731789652166
4031.24,-0.0009203572686327864
4032.14,-0.000903847745798335
4033.04,-0.0008940033666774196
4033.94,-0.0008965802967579319
4034.84,-0.0009128487506038878
4035.74,-0.0009428002540297477
4036.64,-0.0009764457391485228
4037.54,-0.0010109702821368644
4038.44,-0.0010423197839344715
4039.34,-0.0010635219482495932
4040.24,-0.0010808469413865639
4041.14,-0.0010773714550797275
4042.04,-0.0010677762851396585
4042.94,-0.0010498336225194134
4043.84,-0.0010228300751358018
4044.74,-0.0009993176206580306
4045.64,-0.0009749540864348771
4046.54,-0.0009697361807426009
4047.44,-0.000977653660228598
4048.34,-0.0010111848694589433
4049.24,-0.0010491696518174622
4050.14,-0.0010918859568147142
4051.04,-0.001124601464743687
4051.94,-0.0011445320937204522
4052.84,-0.0011504393284919566
4053.74,-0.0011594473155703525
4054.65,-0.001149246590342527
4055.55,-0.0011389677217485423
4056.45,-0.0011307647632602593
4057.35,-0.0011346718502358336
4058.25,-0.0011416923559916792
4059.15,-0.0011451611090959163
4060.05,-0.0011600615280078132
4060.95,-0.001163612192425354
4061.85,-0.0011603638591217475
4062.75,-0.0011521313961025228
4063.65,-0.0011427518956183495
4064.55,-0.0011330529053898081
4065.45,-0.0011347295995044358
4066.35,-0.0011530499874182194
4067.25,-0.0011770768674563095
4068.15,-0.0012112256443394605
4069.05,-0.0012415480294118817
4069.95,-0.0012589477100812144
4070.85,-0.0012703651709613756
4071.75,-0.0012748487303349029
4072.65,-0.0012801717334252401
4073.55,-0.0012794389648802707
4074.45,-0.0012838438091950404
4075.35,-0.0012742363392438923
4076.25,-0.0012743692172742331
4077.15,-0.0012626531838534371
4078.05,-0.001257798545112102
4078.95,-0.0012754028370538216
4079.85,-0.001303894872619866
4080.75,-0.0013431021889123962
4081.65,-0.0013825668491221047
4082.55,-0.001417480959390711
4083.45,-0.0014401913008828464
4084.35,-0.0014641556272175398
4085.25,-0.0014791579573590222
4086.15,-0.0015089839676927495
4087.05,-0.0015442381635568932
4087.95,-0.001586479094942389
4088.85,-0.0016230896457106324
4089.75,-0.0016381565732731418
4090.65,-0.001671962287429324
4091.55,-0.001676690382771899
4092.45,-0.001675067101448913
4093.36,-0.0016679757544085098
4094.26,-0.0016535988782657156
4095.16,-0.0016436244924304107
4096.06,-0.0016118439197515483
4096.96,-0.0015860186791073225
4097.86,-0.0015515583171312978
4098.76,-0.001512821147604845
4099.66,-0.0014753210052579832
4100.56,-0.0014287459694116741
4101.46,-0.0013963949608216744
4102.36,-0.0013803019913443523
4103.26,-0.0013891875606901881
4104.16,-0.0014355066520253803
4105.06,-0.0014945293958455268
4105.96,-0.0015750731402512691
4106.86,-0.0016440616295614347
4107.76,-0.0016972442559202374
4108.66,-0.0017438020426629082
4109.56,-0.0017616378181313317
4110.46,-0.0017882125303692572
4111.36,-0.001810992131669975
4112.26,-0.0018401234866128717
4113.16,-0.0018761606663654088
4114.06,-0.0019026785139936518
4114.96,-0.0019377433989304991
4115.86,-0.0019625925710767453
4116.76,-0.0019853598543443764
4117.66,-0.0019870898800805926
4118.56,-0.0019994188146954047
4119.46,-0.0020002156071392565
4120.36,-0.0019976168417661514
4121.26,-0.0020001155954059795
4122.16,-0.0020219519565076336
4123.06,-0.0020391628910198943
4123.96,-0.002059493403736707
4124.86,-0.0020873675243749104
4125.76,-0.0021117494414420596
4126.66,-0.0021178965362552305
4127.56,-0.0021242695106070205
4128.46,-0.0021179995187831217
4129.36,-0.002116531340273853
4130.26,-0.002096356832787803
4131.17,-0.002090445894135529
4132.06,-0.002085819190352043
4132.97,-0.002084070285567463
4133.87,-0.0020956082451309118
4134.77,-0.0021214112352719817
4135.67,-0.0021653140986983
4136.57,-0.0022350551967091335
4137.47,-0.0022936513488399416
4138.37,-0.00236213795624395
4139.27,-0.0024024648407479777
4140.17,-0.002416063688972078
4141.07,-0.0024084872843046054
4141.97,-0.0023811012171316586
4142.87,-0.0023459808365225198
4143.77,-0.0023065792744830374
4144.67,-0.0023065121093177755
4145.57,-0.0023164192855194693
4146.47,-0.0023638741746663987
4147.37,-0.002410142272782362
4148.27,-0.0024790481465902774
4149.17,-0.0025006690269919057
4150.07,-0.002543183793436468
4150.97,-0.0025545324124777004
4151.87,-0.0025634816787020527
4152.77,-0.0025702648618790586
4153.67,-0.002570739762856058
4154.57,-0.0025877299331265135
4155.47,-0.0025922392938095306
4156.37,-0.0026267445724495507
4157.27,-0.002659694574953793
4158.17,-0.002706692213749344
4159.07,-0.0027654597254203627
4159.97,-0.0028253137047962
4160.87,-0.0028853384570737906
4161.77,-0.0029361283329344978
4162.67,-0.002987879921953367
4163.57,-0.003007505018691867
4164.47,-0.0030250365373264477
4165.37,-0.0030396145346406256
4166.27,-0.0030347106605977487
4167.17,-0.0030409006793226515
4168.07,-0.0030278280649939002
4168.98,-0.003044349442589372
4169.88,-0.00301866246235763
4170.78,-0.003006983062261583
4171.68,-0.0029756528374101504
4172.58,-0.0029403926843992673
4173.48,-0.002917950462293948
4174.38,-0.0029249087515393108
4175.28,-0.002935876784542393
4176.18,-0.0029859664049876806
4177.08,-0.0030413560449384326
4177.98,-0.0030916908467390996
4178.88,-0.003150676772305399
4179.78,-0.0031996135085923675
4180.68,-0.0032536036019743518
4181.58,-0.0033026926745769432
4182.48,-0.0033416793872337045
4183.38,-0.0033629226510576665
4184.28,-0.0033955942171798783
4185.18,-0.0034255270526289934
4186.08,-0.0034250865856698723
4186.98,-0.003456932247321161
4187.88,-0.003473914056420677
4188.78,-0.003499132533430007
4189.68,-0.0035169482845516433
4190.58,-0.0035807389613891263
4191.48,-0.0036533185700714137
4192.38,-0.003700586051230849
4193.28,-0.003759810444095196
4194.18,-0.003802881444135735
4195.08,-0.003813605049112346
4195.98,-0.00380752163468033
4196.88,-0.003751263909098154
4197.78,-0.0037078867050145776
4198.68,-0.0036672783457786726
4199.58,-0.003665920809511108
4200.48,-0.0036696365866838248
4201.38,-0.003693712979742585
4202.28,-0.003739330236438119
4203.18,-0.003808380572949716
4204.08,-0.0038886427213270023
4204.98,-0.0039877588394892065
4205.88,-0.004098286824927883
4206.79,-0.004190191618861826
4207.69,-0.004295998333331985
4208.59,-0.004383314042911407
4209.49,-0.00444373073954195
4210.39,-0.004528637448970325
4211.29,-0.004552662944370853
4212.19,-0.0045903691403658565
4213.09,-0.004599129536126674
4213.99,-0.004609516326455206
4214.89,-0.004570298435606112
4215.79,-0.0045734416909655054
4216.69,-0.004613606710124276
4217.59,-0.004621019725378737
4218.49,-0.004725713853122442
4219.39,-0.0048245268556734245
4220.29,-0.004902945314092146
4221.19,-0.004943017380326379
4222.09,-0.004947263913636744
4222.99,-0.0048796091518167935
4223.89,-0.004747007966487551
4224.79,-0.004569430146522925
4225.69,-0.004383487892655071
4226.59,-0.004265974550997336
4227.49,-0.004242290912944698
4228.39,-0.004319754966551353
4229.29,-0.004483047717404212
4230.19,-0.004714533615133534
4231.09,-0.00496179827322963
4231.99,-0.005194931324648855
4232.89,-0.005316214832984996
4233.79,-0.005387327495211594
4234.69,-0.005385924255918966
4235.59,-0.005412729730621408
4236.49,-0.005389758918295323
4237.39,-0.005410748889688152
4238.29,-0.005472756594096491
4239.19,-0.005543452724295048
4240.09,-0.0056641300055247715
4240.99,-0.005780088828441215
4241.89,-0.0058921634618009
4242.79,-0.006036137114851424
4243.69,-0.006160659311005276
4244.59,-0.006247758239650648
4245.5,-0.006265920049063361
4246.4,-0.006304869194268061
4247.3,-0.0062652671922530075
4248.2,-0.0062089207839128345
4249.1,-0.00616342328862858
4250.0,-0.006117766600515168
4250.9,-0.006148628727946678
4251.8,-0.006193304465481526
4252.7,-0.0062510707162316504
4253.6,-0.006369881943722016
4254.5,-0.006456033811271891
4255.4,-0.00654665479626166
4256.3,-0.006636207958848849
4257.2,-0.006695424443809779
4258.1,-0.006757935871784907
4259.0,-0.006749633223909088
4259.9,-0.006779707705538432
4260.8,-0.006811043373574472
4261.7,-0.006894085690617495
4262.6,-0.007049463095353749
4263.5,-0.007229413999631228
4264.4,-0.007464353014632331
4265.3,-0.007670961793014313
4266.2,-0.0078023188623215205
4267.1,-0.007878118441489912
4268.0,-0.007856210632182562
4268.9,-0.007735607856786321
4269.8,-0.007587259210738809
4270.7,-0.007379132839147525
4271.6,-0.007223671095734977
4272.5,-0.007092714264174148
4273.4,-0.007076782352675366
4274.3,-0.007125433096224994
4275.2,-0.0073455901074388295
4276.1,-0.007562423042765517
4277.0,-0.007891222178330798
4277.9,-0.008144641458225525
4278.8,-0.008387564683162258
4279.7,-0.008525276508057057
4280.6,-0.008640893619901288
4281.5,-0.008670647617436137
4282.4,-0.008678760797957912
