wave,flux
3700.85,-5.431400150036105e-05
3701.75,-5.3493531739763594e-05
3702.65,-5.155737803337465e-05
3703.55,-4.816108144301503e-05
3704.45,-4.4890334097397336e-05
3705.35,-4.136585789719827e-05
3706.25,-3.876662910427207e-05
3707.15,-3.718942239363329e-05
3708.05,-3.7145841645050174e-05
3708.96,-3.842386458154746e-05
3709.86,-4.075470848868862e-05
3710.76,-4.433764269342202e-05
3711.66,-4.846350150039109e-05
3712.56,-5.275157460725734e-05
3713.46,-5.642197038050526e-05
3714.36,-5.865138418629287e-05
3715.26,-5.9334185180963105e-05
3716.16,-5.774192002800429e-05
3717.06,-5.489847998414044e-05
3717.96,-5.016648417428168e-05
3718.86,-4.5237662605744626e-05
3719.76,-4.023624031291429e-05
3720.66,-3.6238188066234645e-05
3721.56,-3.4292977774178595e-05
3722.46,-3.4540382497775964e-05
3723.36,-3.699229297380363e-05
3724.26,-4.0762480853881487e-05
3725.16,-4.433986980116769e-05
3726.06,-4.7376409289194945e-05
3726.96,-4.890224185098835e-05
3727.86,-4.962094078960066e-05
3728.76,-4.95743210934434e-05
3729.66,-4.906430390124154e-05
3730.56,-4.801289987029843e-05
3731.46,-4.596268501382684e-05
3732.36,-4.292615282532311e-05
3733.26,-3.906744773010403e-05
3734.16,-3.483343168788231e-05
3735.06,-3.1747755314633476e-05
3735.96,-3.011348989820015e-05
3736.86,-3.0415106276256305e-05
3737.76,-3.285545204581786e-05
3738.66,-3.6913491379638466e-05
3739.56,-4.156675059118616e-05
3740.46,-4.5673022243804314e-05
3741.36,-4.839842947408822e-05
3742.26,-4.892348792739094e-05
3743.16,-4.765495141107151e-05
3744.06,-4.487694964883424e-05
3744.96,-4.1624055217937326e-05
3745.86,-3.837762077712932e-05
3746.76,-3.573337847134263e-05
3747.67,-3.410251566863057e-05
3748.57,-3.358894688631818e-05
3749.47,-3.4235813865844394e-05
3750.37,-3.6819723159741305e-05
3751.27,-4.119280534714485e-05
3752.17,-4.6557698869370125e-05
3753.07,-5.2762497266192816e-05
3753.97,-5.7676041381370676e-05
3754.87,-6.116616039104413e-05
3755.77,-6.276830148256159e-05
3756.67,-6.139596578181112e-05
3757.57,-5.85508559091527e-05
3758.47,-5.5096298785917715e-05
3759.37,-5.242600997622508e-05
3760.27,-5.1603890124233545e-05
3761.17,-5.19797114123071e-05
3762.07,-5.310653603349738e-05
3762.97,-5.410857447986741e-05
3763.87,-5.4819589608626576e-05
3764.77,-5.565009440871944e-05
3765.67,-5.6096696108010094e-05
3766.57,-5.6877769653454045e-05
3767.47,-5.83188590703544e-05
3768.37,-6.030323763787117e-05
3769.27,-6.287601246908716e-05
3770.17,-6.596749690082261e-05
3771.07,-6.91448728760714e-05
3771.97,-7.23720323076176e-05
3772.87,-7.505173990137977e-05
3773.77,-7.754764589139417e-05
3774.67,-7.90359699587981e-05
3775.57,-7.963441282746548e-05
3776.47,-8.056164649030049e-05
3777.37,-8.132445014688447e-05
3778.27,-8.246381753357205e-05
3779.17,-8.382090537337392e-05
3780.07,-8.613433843417368e-05
3780.97,-8.802350683503986e-05
3781.87,-8.926785440481405e-05
3782.77,-9.057115558473268e-05
3783.67,-9.034573052716506e-05
3784.57,-8.87399940812824e-05
3785.47,-8.57778552792885e-05
3786.38,-8.158934818382365e-05
3787.28,-7.721705957221411e-05
3788.18,-7.304201216770814e-05
3789.08,-7.0506031005136e-05
3789.98,-6.933158623683927e-05
3790.88,-6.959805889444976e-05
3791.78,-7.024656742444245e-05
3792.68,-7.052319174392507e-05
3793.58,-7.015653545625499e-05
3794.48,-6.929165510953305e-05
3795.38,-6.752116988218259e-05
3796.28,-6.617008561572717e-05
3797.18,-6.479689105582821e-05
3798.08,-6.41381955686179e-05
3798.98,-6.476424344553473e-05
3799.88,-6.695921057498812e-05
3800.78,-7.095992766444531e-05
3801.68,-7.597370751665607e-05
3802.58,-8.195048107188908e-05
3803.48,-8.670760690659194e-05
3804.38,-9.066342340658949e-05
3805.28,-9.211139975985078e-05
3806.18,-9.213763035700725e-05
3807.08,-9.171617084312325e-05
3807.98,-9.109557799647953e-05
3808.88,-9.164175520842965e-05
3809.78,-9.273767522945678e-05
3810.68,-9.330541014126396e-05
3811.58,-9.288164879630068e-05
3812.48,-8.992869076447272e-05
3813.38,-8.595150653703622e-05
3814.28,-8.10309761416414e-05
3815.18,-7.636163692920905e-05
3816.08,-7.283054210349663e-05
3816.98,-7.057242911138456e-05
3817.88,-6.895233061427427e-05
3818.78,-6.779095140488233e-05
3819.68,-6.640537957544345e-05
3820.58,-6.500633533942437e-05
3821.48,-6.36264634797948e-05
3822.38,-6.255738405993024e-05
3823.28,-6.163004626153985e-05
3824.18,-6.0647105547017446e-05
3825.09,-5.8596392685261674e-05
3825.99,-5.659047137007686e-05
3826.89,-5.496179892574285e-05
3827.79,-5.445838294079363e-05
3828.69,-5.469188879999881e-05
3829.59,-5.5480763494754104e-05
3830.49,-5.671945985803142e-05
3831.39,-5.693576507671563e-05
3832.29,-5.668344060478136e-05
3833.19,-5.6387950758633403e-05
3834.09,-5.594062144252131e-05
3834.99,-5.624692043811927e-05
3835.89,-5.725166053201657e-05
3836.79,-5.8531082578731484e-05
3837.69,-5.865449739973144e-05
3838.59,-5.885812607090361e-05
3839.49,-5.983426192139199e-05
3840.39,-6.169837709848112e-05
3841.29,-6.563684752921104e-05
3842.19,-7.169794222103015e-05
3843.09,-7.835434085696729e-05
3843.99,-8.578771197217703e-05
3844.89,-9.155885719065119e-05
3845.79,-9.608954251919304e-05
3846.69,-9.867426726796789e-05
3847.59,-9.969277784333348e-05
3848.49,-9.95275526304718e-05
3849.39,-9.894236191526458e-05
3850.29,-9.814623232867971e-05
3851.19,-9.773995480112019e-05
3852.09,-9.786337950347934e-05
3852.99,-9.779090721461705e-05
3853.89,-9.745608608519153e-05
3854.79,-9.599094869319244e-05
3855.69,-9.317205350763622e-05
3856.59,-8.94539152336443e-05
3857.49,-8.646180951456718e-05
3858.39,-8.243108292837297e-05
3859.29,-8.048583652048412e-05
3860.19,-8.000287156173336e-05
3861.09,-8.258375279424702e-05
3861.99,-8.797293162707027e-05
3862.9,-9.434005978009397e-05
3863.8,-0.00010046698254630709
3864.7,-0.00010472167256590224
3865.6,-0.00010838097397010395
3866.5,-0.00010867088330717183
3867.4,-0.00010805605314338627
3868.3,-0.00010675831303762322
3869.2,-0.00010436509352691463
3870.1,-0.00010147535888772457
3871.0,-9.859180268926905e-05
3871.9,-9.739804650198293e-05
3872.8,-9.827670063276713e-05
3873.7,-0.00010061971017061514
3874.6,-0.00010540438605978076
3875.5,-0.00010940905178391956
3876.4,-0.00011189204784636276
3877.3,-0.00011249980105034584
3878.2,-0.00011140337365832487
3879.1,-0.00010904712884047262
3880.0,-0.00010821202877675813
3880.9,-0.00010816563336392678
3881.8,-0.00010887399645571328
3882.7,-0.00011064070125649348
3883.6,-0.0001131335174534551
3884.5,-0.00011416498213311813
3885.4,-0.00011448300765841059
3886.3,-0.00011367185121732097
3887.2,-0.00011252297478010186
3888.1,-0.00011317225964180729
3889.0,-0.00011730300849723171
3889.9,-0.0001236109261490886
3890.8,-0.0001315376938162026
3891.7,-0.00014114323722536572
3892.6,-0.00014871421156991365
3893.5,-0.00015493982094208142
3894.4,-0.00015846117431802994
3895.3,-0.0001604795276862366
3896.2,-0.0001602489148120037
3897.1,-0.00016167956159425303
3898.0,-0.00016142149748737885
3898.9,-0.00016216246587291494
3899.8,-0.0001630089351375382
3900.7,-0.00016305183412861969
3901.6,-0.00016307898555090267
3902.51,-0.00016254947787079253
3903.41,-0.00016124134885053273
3904.31,-0.00016033129822117778
3905.21,-0.00015967162674288725
3906.11,-0.00016058687712403237
3907.01,-0.00016508351711388194
3907.91,-0.00017107438283845726
3908.81,-0.00017974674338321503
3909.71,-0.00018780048972444433
3910.61,-0.00019716483609910645
3911.51,-0.00020434117098356186
3912.41,-0.00020841629590950686
3913.31,-0.0002124844544526132
3914.21,-0.00021187838865053296
3915.11,-0.00021153624627667325
3916.01,-0.00020949845757080348
3916.91,-0.00020510648128986
3917.81,-0.00020036021063149913
3918.71,-0.0001935733271950258
3919.61,-0.0001859790548438843
3920.51,-0.0001790959929070854
3921.41,-0.00017242053333539354
3922.31,-0.00016806753582915333
3923.21,-0.0001658030415516516
3924.11,-0.00016432733863648897
3925.01,-0.00016200917217196187
3925.91,-0.00015789502748747464
3926.81,-0.00015053310776156836
3927.71,-0.00013984122255542253
3928.61,-0.0001270326084775132
3929.51,-0.00011315135590109327
3930.41,-9.995460481867118e-05
3931.31,-8.734840100948405e-05
3932.21,-7.751234372335781e-05
3933.11,-7.014988276459816e-05
3934.01,-6.676855158335039e-05
3934.91,-6.714264751476352e-05
3935.81,-7.202882067438355e-05
3936.71,-8.090409845519507e-05
3937.61,-9.33914216976131e-05
3938.51,-0.00010764827009336095
3939.42,-0.00012305359929645066
3940.32,-0.00013656115414517782
3941.22,-0.00014843556076467578
3942.12,-0.00015732967616149333
3943.02,-0.0001655645837332864
3943.92,-0.0001721585531803478
3944.82,-0.0001805529646794527
3945.72,-0.0001905007568720128
3946.62,-0.0002025540169407562
3947.52,-0.00021454790657966845
3948.42,-0.00022755715305771863
3949.32,-0.0002394675107893202
3950.22,-0.0002478673933251099
3951.12,-0.00025745637048072773
3952.02,-0.0002646402643586717
3952.92,-0.0002679730828962343
3953.82,-0.0002709579130812498
3954.72,-0.000273502430133473
3955.62,-0.00027346232888437593
3956.52,-0.00027377570633856443
3957.42,-0.0002691944807899757
3958.32,-0.0002647685045870477
3959.22,-0.0002571685830369849
3960.12,-0.00024599328480878074
3961.02,-0.00023150835020305824
3961.92,-0.00021448783142278478
3962.82,-0.00019713467435605595
3963.72,-0.00018003833281638528
3964.62,-0.00016324903722938033
3965.52,-0.0001483283659926619
3966.42,-0.00013295868515570886
3967.32,-0.00011963131176408554
3968.22,-0.0001086771111964556
3969.12,-0.00010283859291955022
3970.02,-0.00010371744093064513
3970.92,-0.00011166012917798355
3971.82,-0.00012608474159778282
3972.72,-0.00014573773662992864
3973.62,-0.00016948119445972802
3974.52,-0.00019433357105199216
3975.42,-0.00021933974382716914
3976.32,-0.0002449687771203399
3977.22,-0.00027056776864614585
3978.13,-0.0002948598056433543
3979.03,-0.0003156829492612092
3979.93,-0.0003336580030511068
3980.83,-0.00034989637659063697
3981.73,-0.00035959751273459455
3982.63,-0.0003666584509950629
3983.53,-0.00037218322770520587
3984.43,-0.0003788335801846315
3985.33,-0.0003836944669329868
3986.23,-0.00039213301171821995
3987.13,-0.00040074804781604104
3988.03,-0.00041091520423634445
3988.93,-0.00041698593309404016
3989.83,-0.00042517771584825876
3990.73,-0.0004315624476385816
3991.63,-0.00043950751607066825
3992.53,-0.00044486339895761546
3993.43,-0.00044851446743627335
3994.33,-0.00044977095469014356
3995.23,-0.0004507678259199776
3996.13,-0.00044828521585483567
3997.03,-0.00044843599717088765
3997.93,-0.00045156427223583647
3998.83,-0.0004573502998569143
3999.73,-0.000468842660146022
4000.63,-0.00048098009968981765
4001.53,-0.0004929413625099373
4002.43,-0.000501095677438467
4003.33,-0.0005042425925913576
4004.23,-0.0005010240815453504
4005.13,-0.0004920418496165674
4006.03,-0.0004872132124893479
4006.93,-0.00048316921444992796
4007.83,-0.0004875560912727217
4008.73,-0.0005001344456870864
4009.63,-0.0005131423209605433
4010.53,-0.0005293560320761825
4011.43,-0.0005414430423241025
4012.33,-0.0005547845508549106
4013.23,-0.0005645819910562707
4014.13,-0.0005717880081784227
4015.03,-0.0005763002945227507
4015.93,-0.0005828949427917191
4016.84,-0.0005890097102929194
4017.74,-0.000593521575826471
4018.64,-0.0005959283745801716
4019.54,-0.0006016384597635166
4020.44,-0.0006057507037914488
4021.34,-0.0006093452212328887
4022.24,-0.0006165747834571133
4023.14,-0.0006149315089462268
4024.04,-0.0006185368903376863
4024.94,-0.0006266696892146212
4025.84,-0.00063026690429938
4026.74,-0.0006388055110180994
4027.64,-0.0006461865156488927
4028.54,-0.0006460980478467106
4029.44,-0.0006395286346397383
4030.34,-0.000621976063289408
4031.24,-0.000601705365952747
4032.14,-0.0005824140889134715
4033.04,-0.0005683567320092271
4033.94,-0.0005682707800626065
4034.84,-0.0005779052447770417
4035.74,-0.0006003701048927767
4036.64,-0.000634861398726201
4037.54,-0.000665352435091991
4038.44,-0.0006957485792154649
4039.34,-0.0007143955841639399
4040.24,-0.0007248471389372937
4041.14,-0.0007232789197239417
4042.04,-0.000713071328224318
4042.94,-0.0006933795243239983
4043.84,-0.0006688791186535026
4044.74,-0.0006389131789381852
4045.64,-0.0006160980482142834
4046.54,-0.0006042491490988529
4047.44,-0.000611380360448924
4048.34,-0.0006391722745359915
4049.24,-0.0006759715469501807
4050.14,-0.0007145164389977919
4051.04,-0.0007458805462226673
4051.94,-0.0007677468730348831
4052.84,-0.0007737341742892048
4053.74,-0.0007770780165993106
4054.65,-0.0007658440707468094
4055.55,-0.0007585423369607379
4056.45,-0.0007502056428777892
4057.35,-0.000743360874282689
4058.25,-0.0007448196007871494
4059.15,-0.000744302807018639
4060.05,-0.0007491422102784981
4060.95,-0.0007451922401790372
4061.85,-0.0007438022813667109
4062.75,-0.0007313299603224007
4063.65,-0.0007171857147715753
4064.55,-0.0007115437919867241
4065.45,-0.0007160264526363931
4066.35,-0.0007313339649507361
4067.25,-0.0007574060927193903
4068.15,-0.0007805968503468625
4069.05,-0.0008102011525164553
4069.95,-0.0008223320789947788
4070.85,-0.0008293353244313909
4071.75,-0.0008275354069215712
4072.65,-0.0008328186749528073
4073.55,-0.0008319974533724361
4074.45,-0.0008378256968778599
4075.35,-0.0008378248865841015
4076.25,-0.0008369941142771239
4077.15,-0.0008386556090226496
4078.05,-0.0008414024831037028
4078.95,-0.000857062127062317
4079.85,-0.0008805780036836894
4080.75,-0.0009187396958114218
4081.65,-0.0009524339584924185
4082.55,-0.0009794741164405847
4083.45,-0.0010028027818785642
4084.35,-0.0010162314687998035
4085.25,-0.0010295845819932314
4086.15,-0.0010453599060918886
4087.05,-0.0010749805147750508
4087.95,-0.001099677415713893
4088.85,-0.0011324563279172986
4089.75,-0.0011543920133258298
4090.65,-0.0011726997460931618
4091.55,-0.0011722850843353197
4092.45,-0.0011707970227076013
4093.36,-0.0011603490237076682
4094.26,-0.0011427455184534997
4095.16,-0.001126877200934648
4096.06,-0.0011044329960045415
4096.96,-0.0010844681171229432
4097.86,-0.001064246910822635
4098.76,-0.0010385559737063781
4099.66,-0.0010186730011473198
4100.56,-0.000999959468574259
4101.46,-0.0009861921498572782
4102.36,-0.0009821251066569497
4103.26,-0.0009959606033973208
4104.16,-0.0010256616655270605
4105.06,-0.0010666041854205204
4105.96,-0.0011139362991227548
4106.86,-0.0011589606580384346
4107.76,-0.0011918167168229838
4108.66,-0.0012113689713120252
4109.56,-0.0012290424812709895
4110.46,-0.001231405533657879
4111.36,-0.0012396617491848942
4112.26,-0.0012544976227658702
4113.16,-0.0012706289036368153
4114.06,-0.0012965753385130753
4114.96,-0.0013208700745815296
4115.86,-0.0013360269244574784
4116.76,-0.0013582711065200392
4117.66,-0.0013562985772101687
4118.56,-0.0013519461569744008
4119.46,-0.0013516371781098703
4120.36,-0.0013539628280531397
4121.26,-0.00135848340646139
4122.16,-0.0013653773474774154
4123.06,-0.0013842341131998464
4123.96,-0.0014000713617033985
4124.86,-0.0014183859183074926
4125.76,-0.0014348215286399677
4126.66,-0.001444308963138893
4127.56,-0.0014419276223586693
4128.46,-0.0014376701520509624
4129.36,-0.0014219795362721518
4130.26,-0.0014041084244422858
4131.17,-0.0013798994385311758
4132.06,-0.001366893164927247
4132.97,-0.0013557708665135316
4133.87,-0.0013632361833308309
4134.77,-0.0013856985203179125
4135.67,-0.0014269550732256171
4136.57,-0.0014753634492446573
4137.47,-0.0015342965485010426
4138.37,-0.0015723457801794056
4139.27,-0.0016046851358452528
4140.17,-0.001614280216794976
4141.07,-0.0015956247637041684
4141.97,-0.001562972198166332
4142.87,-0.0015215393823623015
4143.77,-0.0014884309717996603
4144.67,-0.0014757283406053494
4145.57,-0.0014858477994489768
4146.47,-0.0015205163775593386
4147.37,-0.0015562654874976697
4148.27,-0.0016014331616822821
4149.17,-0.0016416314803326412
4150.07,-0.0016589184893200833
4150.97,-0.0016588157946273755
4151.87,-0.001665913787989577
4152.77,-0.001664857085426302
4153.67,-0.0016669398205637908
4154.57,-0.0016709708322283183
4155.47,-0.0016906198255449856
4156.37,-0.0017000953323516215
4157.27,-0.001734329851077277
4158.17,-0.0017735297918600303
4159.07,-0.0018198089974947828
4159.97,-0.0018807863243979225
4160.87,-0.0019282693616806833
4161.77,-0.001967216188646629
4162.67,-0.002011939655492303
4163.57,-0.002033626608124239
4164.47,-0.0020442137473479943
4165.37,-0.0020436844449813977
4166.27,-0.0020357450297137773
4167.17,-0.002026392131323343
4168.07,-0.0020061252982766548
4168.98,-0.0020105351278846112
4169.88,-0.0019991338299227683
4170.78,-0.001991574684632147
4171.68,-0.0019675274805633384
4172.58,-0.0019483136837194187
4173.48,-0.0019271734702101919
4174.38,-0.0019234774006269483
4175.28,-0.0019230111801188333
4176.18,-0.0019508912542585304
4177.08,-0.0019869743883960465
4177.98,-0.0020230200751797656
4178.88,-0.0020709336770491165
4179.78,-0.002110677796949794
4180.68,-0.0021385353823762812
4181.58,-0.002167467352766267
4182.48,-0.0022049480879743834
4183.38,-0.002227111365908245
4184.28,-0.002252942104898896
4185.18,-0.00227862261609862
4186.08,-0.002290819962956139
4186.98,-0.0022995475241368683
4187.88,-0.0023052762870952527
4188.78,-0.002319748098844401
4189.68,-0.002340860916097693
4190.58,-0.0023796694628212367
4191.48,-0.002424758687339489
4192.38,-0.002492279521133571
4193.28,-0.0025208194183297707
4194.18,-0.0025410565732377002
4195.08,-0.00254208361758812
4195.98,-0.0025099408053537733
4196.88,-0.0024737451490283616
4197.78,-0.002425843563610988
4198.68,-0.002384742378788181
4199.58,-0.002368662597299256
4200.48,-0.0023639286601436107
4201.38,-0.0023927177009991163
4202.28,-0.002442130734973594
4203.18,-0.0024888787790146253
4204.08,-0.0025678843972584903
4204.98,-0.0026683800670259353
4205.88,-0.002763032633180823
4206.79,-0.0028579578970187145
4207.69,-0.002949012178360846
4208.59,-0.003020440958574617
4209.49,-0.003073832908697724
4210.39,-0.0031052396313438783
4211.29,-0.0031288685583832016
4212.19,-0.0031202332871266246
4213.09,-0.0031245942128274194
4213.99,-0.00309362915984479
4214.89,-0.003093343723214178
4215.79,-0.0031077461258447506
4216.69,-0.0031385295662987897
4217.59,-0.0031789583333453205
4218.49,-0.0032755932487942077
4219.39,-0.003367621166220963
4220.29,-0.0034481875878513506
4221.19,-0.0034631072370014666
4222.09,-0.0034372651104061713
4222.99,-0.0033500889536787998
4223.89,-0.0031868119088515026
4224.79,-0.0030199617321170643
4225.69,-0.0028200040657606383
4226.59,-0.002670158534372266
4227.49,-0.002623614042807705
4228.39,-0.0026933439467271333
4229.29,-0.002854426482101686
4230.19,-0.003040041048340798
4231.09,-0.003270107911342536
4231.99,-0.003452536084843789
4232.89,-0.0035762774800047895
4233.79,-0.0036521828378862876
4234.69,-0.003663685574145471
4235.59,-0.0036730239073514137
4236.49,-0.0036735721489105297
4237.39,-0.00368839001493568
4238.29,-0.0037337311606671897
4239.19,-0.003799403642266
4240.09,-0.0038987119833567498
4240.99,-0.004018351163595915
4241.89,-0.004141222085304779
4242.79,-0.004269884657926836
4243.69,-0.004389016899933176
4244.59,-0.004487577328457906
4245.5,-0.004535901262849272
4246.4,-0.004535246590345669
4247.3,-0.004486523088045152
4248.2,-0.0044016591639570715
4249.1,-0.004328672238096007
4250.0,-0.004214725182122198
4250.9,-0.004173775051265146
4251.8,-0.0041709611453478535
4252.7,-0.004190013962424147
4253.6,-0.004240744217494993
4254.5,-0.004292194668126762
4255.4,-0.004390884370801367
4256.3,-0.004450314684456911
4257.2,-0.004534797901125427
4258.1,-0.004585024614841188
4259.0,-0.004615591493135742
4259.9,-0.004611681209197439
4260.8,-0.0046354351414161585
4261.7,-0.004710253012363004
4262.6,-0.004858158712543082
4263.5,-0.005042231814184341
4264.4,-0.005270400044542518
4265.3,-0.005451657406326931
4266.2,-0.005559006401823272
4267.1,-0.005606003443116589
4268.0,-0.005550214009744691
4268.9,-0.005394181055753368
4269.8,-0.005215024018655816
4270.7,-0.004999574376906082
4271.6,-0.004784242952300234
4272.5,-0.004632794627244311
4273.4,-0.004570642043736845
4274.3,-0.0046037714263678685
4275.2,-0.0047663626294727
4276.1,-0.004991775689373902
4277.0,-0.005283513279673867
4277.9,-0.005558186111785504
4278.8,-0.0057719911820117795
4279.7,-0.005951525851320898
4280.6,-0.0060365029296017775
4281.5,-0.006124566034411186
4282.4,-0.0061610565088772405
