wave,flux
3700.85,-5.281621406705819e-07
3701.75,-5.215182602707491e-07
3702.65,-5.099236376369824e-07
3703.55,-4.903282821117687e-07
3704.45,-4.6805854047140377e-07
3705.35,-4.515676218416458e-07
3706.25,-4.396514415291571e-07
3707.15,-4.38922076724534e-07
3708.05,-4.4139827843987646e-07
3708.96,-4.4926885660798556e-07
3709.86,-4.571196914852578e-07
3710.76,-4.662499765249807e-07
3711.66,-4.802968903230408e-07
3712.56,-4.953870820758508e-07
3713.46,-5.127271833587747e-07
3714.36,-5.309300915735524e-07
3715.26,-5.480946911849049e-07
3716.16,-5.522404946672023e-07
3717.06,-5.500659404055861e-07
3717.96,-5.384928527830613e-07
3718.86,-5.122934178105121e-07
3719.76,-4.831300838847609e-07
3720.66,-4.545072659161161e-07
3721.56,-4.329198867381901e-07
3722.46,-4.2674951881054084e-07
3723.36,-4.3752325249872157e-07
3724.26,-4.575319332129452e-07
3725.16,-4.815375368871695e-07
3726.06,-5.064334145434378e-07
3726.96,-5.214666468979947e-07
3727.86,-5.312461355262011e-07
3728.76,-5.321390194261839e-07
3729.66,-5.290265903496346e-07
3730.56,-5.231891959934389e-07
3731.46,-5.081727053598451e-07
3732.36,-4.84270111681367e-07
3733.26,-4.53788303753942e-07
3734.16,-4.2365923175246906e-07
3735.06,-4.041648061041044e-07
3735.96,-3.9455967175636006e-07
3736.86,-4.02670809830829e-07
3737.76,-4.216053548793723e-07
3738.66,-4.5280551239212074e-07
3739.56,-4.85384954415149e-07
3740.46,-5.13452190276652e-07
3741.36,-5.34138694791489e-07
3742.26,-5.438734685118414e-07
3743.16,-5.379189160984092e-07
3744.06,-5.259285415139918e-07
3744.96,-5.05246305396207e-07
3745.86,-4.864292814189239e-07
3746.76,-4.6311142179690674e-07
3747.67,-4.419271854071882e-07
3748.57,-4.2326962068359556e-07
3749.47,-4.1129475639143274e-07
3750.37,-4.1391980920560336e-07
3751.27,-4.3079629253369335e-07
3752.17,-4.620062245121017e-07
3753.07,-4.983459600028164e-07
3753.97,-5.343350104256766e-07
3754.87,-5.646346206446076e-07
3755.77,-5.831803100751948e-07
3756.67,-5.87457495881035e-07
3757.57,-5.77785419842547e-07
3758.47,-5.638346407629068e-07
3759.37,-5.523005207420121e-07
3760.27,-5.468189389334572e-07
3761.17,-5.49327425706946e-07
3762.07,-5.589107917150954e-07
3762.97,-5.702681165630695e-07
3763.87,-5.794576051759102e-07
3764.77,-5.843097941561674e-07
3765.67,-5.810895922343139e-07
3766.57,-5.768795135081709e-07
3767.47,-5.689643909538577e-07
3768.37,-5.534967297196452e-07
3769.27,-5.412206390552806e-07
3770.17,-5.359907125466811e-07
3771.07,-5.347324157460567e-07
3771.97,-5.416868317624009e-07
3772.87,-5.581792104677205e-07
3773.77,-5.775450025718229e-07
3774.67,-5.982888357486714e-07
3775.57,-6.192166910545016e-07
3776.47,-6.330943615131594e-07
3777.37,-6.465226809817563e-07
3778.27,-6.633491460186751e-07
3779.17,-6.760848448142613e-07
3780.07,-6.93051526932013e-07
3780.97,-7.072976742198571e-07
3781.87,-7.168113888622342e-07
3782.77,-7.192950144719969e-07
3783.67,-7.188422090312767e-07
3784.57,-7.114933585779872e-07
3785.47,-7.042308886113801e-07
3786.38,-6.877578093750062e-07
3787.28,-6.705069660641638e-07
3788.18,-6.522759288544829e-07
3789.08,-6.454312888434722e-07
3789.98,-6.380469110677163e-07
3790.88,-6.329848197081919e-07
3791.78,-6.29378933963641e-07
3792.68,-6.196380452698569e-07
3793.58,-6.101193430948481e-07
3794.48,-5.926484406115424e-07
3795.38,-5.689541919086147e-07
3796.28,-5.455562895915386e-07
3797.18,-5.269977052859562e-07
3798.08,-5.146347412390818e-07
3798.98,-5.118061580342118e-07
3799.88,-5.270596850205233e-07
3800.78,-5.559658745785051e-07
3801.68,-5.933664380093771e-07
3802.58,-6.320937662032975e-07
3803.48,-6.670056953319131e-07
3804.38,-6.908752165701721e-07
3805.28,-7.061542276492847e-07
3806.18,-7.136320263759314e-07
3807.08,-7.199496513466684e-07
3807.98,-7.220328473172742e-07
3808.88,-7.275870161613613e-07
3809.78,-7.327238930607143e-07
3810.68,-7.392332221465028e-07
3811.58,-7.334190375544077e-07
3812.48,-7.255797721111655e-07
3813.38,-7.088421430233627e-07
3814.28,-6.925327897063641e-07
3815.18,-6.763649973805641e-07
3816.08,-6.673737921343502e-07
3816.98,-6.634172494833228e-07
3817.88,-6.656699933814893e-07
3818.78,-6.644882547924774e-07
3819.68,-6.602224794191306e-07
3820.58,-6.579054277769271e-07
3821.48,-6.547467765838569e-07
3822.38,-6.457610987680488e-07
3823.28,-6.393754080294572e-07
3824.18,-6.316983078000692e-07
3825.09,-6.193027219697933e-07
3825.99,-6.047136564899531e-07
3826.89,-5.900168044787116e-07
3827.79,-5.84111396152264e-07
3828.69,-5.734983084992881e-07
3829.59,-5.693940814280137e-07
3830.49,-5.597301502687041e-07
3831.39,-5.433464594223193e-07
3832.29,-5.236454341231157e-07
3833.19,-4.988083824325326e-07
3834.09,-4.774944185288189e-07
3834.99,-4.61896977082046e-07
3835.89,-4.533684833652222e-07
3836.79,-4.5452743557870106e-07
3837.69,-4.6600132161270503e-07
3838.59,-4.8006412762084e-07
3839.49,-5.022651222359125e-07
3840.39,-5.294313228774007e-07
3841.29,-5.632944678841424e-07
3842.19,-5.974600657394163e-07
3843.09,-6.355526851590727e-07
3843.99,-6.674130367258628e-07
3844.89,-6.948913464833117e-07
3845.79,-7.160977282249952e-07
3846.69,-7.292460753250498e-07
3847.59,-7.416729019438028e-07
3848.49,-7.486355275121759e-07
3849.39,-7.524875453409015e-07
3850.29,-7.507669817839402e-07
3851.19,-7.571205401986069e-07
3852.09,-7.614093655174183e-07
3852.99,-7.659723037997593e-07
3853.89,-7.703556843521679e-07
3854.79,-7.661005767311138e-07
3855.69,-7.591764657234759e-07
3856.59,-7.453158934206156e-07
3857.49,-7.295568668127225e-07
3858.39,-7.151700222657572e-07
3859.29,-7.09447389354064e-07
3860.19,-7.037869283323511e-07
3861.09,-7.106940954866047e-07
3861.99,-7.278011127067922e-07
3862.9,-7.493272048629026e-07
3863.8,-7.701644077958271e-07
3864.7,-7.845947454814998e-07
3865.6,-7.951729053069719e-07
3866.5,-7.975332445736749e-07
3867.4,-7.980474509892108e-07
3868.3,-7.986005946381442e-07
3869.2,-7.928543061968837e-07
3870.1,-7.826049949487582e-07
3871.0,-7.690377263342655e-07
3871.9,-7.506281498060891e-07
3872.8,-7.358633670060056e-07
3873.7,-7.255338784003401e-07
3874.6,-7.26038862658564e-07
3875.5,-7.292331206242689e-07
3876.4,-7.341897994659414e-07
3877.3,-7.326731879316911e-07
3878.2,-7.312695075194078e-07
3879.1,-7.274733351813577e-07
3880.0,-7.25823378697548e-07
3880.9,-7.251106257499608e-07
3881.8,-7.267136385922161e-07
3882.7,-7.232055835027719e-07
3883.6,-7.153954285151745e-07
3884.5,-6.996401958396679e-07
3885.4,-6.769381734617006e-07
3886.3,-6.463952146261666e-07
3887.2,-6.185888562391875e-07
3888.1,-5.971342229256624e-07
3889.0,-5.798723470273475e-07
3889.9,-5.798042157855217e-07
3890.8,-5.923390824724068e-07
3891.7,-6.172828845514942e-07
3892.6,-6.480639349137545e-07
3893.5,-6.75246338723615e-07
3894.4,-6.994963210705652e-07
3895.3,-7.161638559312219e-07
3896.2,-7.285454733905655e-07
3897.1,-7.415169294853303e-07
3898.0,-7.521903302415516e-07
3898.9,-7.628882314767636e-07
3899.8,-7.679779882436709e-07
3900.7,-7.746499466558161e-07
3901.6,-7.786348370785629e-07
3902.51,-7.772684306705051e-07
3903.41,-7.78838676208149e-07
3904.31,-7.75028793683162e-07
3905.21,-7.685750689532537e-07
3906.11,-7.708276508643933e-07
3907.01,-7.766185030164425e-07
3907.91,-7.899455556399795e-07
3908.81,-8.044434621709857e-07
3909.71,-8.282282504297621e-07
3910.61,-8.43008538403386e-07
3911.51,-8.556983491327398e-07
3912.41,-8.660038008815214e-07
3913.31,-8.694928891467139e-07
3914.21,-8.659361809508793e-07
3915.11,-8.606046278842938e-07
3916.01,-8.490526193164304e-07
3916.91,-8.401882141154951e-07
3917.81,-8.255745554880504e-07
3918.71,-8.169890717784912e-07
3919.61,-8.019805268010245e-07
3920.51,-7.898710913552849e-07
3921.41,-7.829895749807667e-07
3922.31,-7.757591358268459e-07
3923.21,-7.704194660760547e-07
3924.11,-7.604958689933546e-07
3925.01,-7.469702748883937e-07
3925.91,-7.284554359138648e-07
3926.81,-6.983036423431259e-07
3927.71,-6.520062677129483e-07
3928.61,-6.024207614503388e-07
3929.51,-5.425470220044593e-07
3930.41,-4.797221764554316e-07
3931.31,-4.145440675888642e-07
3932.21,-3.572602504675747e-07
3933.11,-3.103086523320457e-07
3934.01,-2.83569157735496e-07
3934.91,-2.7946226380454947e-07
3935.81,-2.99542190977284e-07
3936.71,-3.4163980576830496e-07
3937.61,-3.98723548760237e-07
3938.51,-4.6586247128799267e-07
3939.42,-5.322786836611713e-07
3940.32,-5.93753135451926e-07
3941.22,-6.427932662992464e-07
3942.12,-6.839926154676756e-07
3943.02,-7.139568544625449e-07
3943.92,-7.399824733379763e-07
3944.82,-7.628666421813573e-07
3945.72,-7.819565422029125e-07
3946.62,-8.037885934128894e-07
3947.52,-8.244292148811554e-07
3948.42,-8.391963343425309e-07
3949.32,-8.49959201252572e-07
3950.22,-8.576927246343612e-07
3951.12,-8.679849996510333e-07
3952.02,-8.749807015134574e-07
3952.92,-8.791859691410761e-07
3953.82,-8.8543195674926e-07
3954.72,-8.901772615910768e-07
3955.62,-8.845771654267595e-07
3956.52,-8.844720529177358e-07
3957.42,-8.798484968336505e-07
3958.32,-8.729514586199433e-07
3959.22,-8.611603805639253e-07
3960.12,-8.404035491793717e-07
3961.02,-8.173697629882966e-07
3961.92,-7.79728310504994e-07
3962.82,-7.352138084624229e-07
3963.72,-6.838014870109621e-07
3964.62,-6.270891562554266e-07
3965.52,-5.622037353009787e-07
3966.42,-4.962815154762408e-07
3967.32,-4.3038851986010876e-07
3968.22,-3.7797019494228975e-07
3969.12,-3.45768846048563e-07
3970.02,-3.370430162501258e-07
3970.92,-3.566281280336947e-07
3971.82,-4.00805515525177e-07
3972.72,-4.6299198948373004e-07
3973.62,-5.331543595708301e-07
3974.52,-6.04686109711752e-07
3975.42,-6.725193759441865e-07
3976.32,-7.346356946033327e-07
3977.22,-7.903449727437401e-07
3978.13,-8.349904514358727e-07
3979.03,-8.766027019894543e-07
3979.93,-9.068096927805397e-07
3980.83,-9.304105142477043e-07
3981.73,-9.465732366156987e-07
3982.63,-9.534285319229787e-07
3983.53,-9.615139643781401e-07
3984.43,-9.692125581640834e-07
3985.33,-9.811225216391957e-07
3986.23,-9.898095355888114e-07
3987.13,-1.0010479497058667e-06
3988.03,-1.0119504509680077e-06
3988.93,-1.0223345180419446e-06
3989.83,-1.0329695004400321e-06
3990.73,-1.0401768891161671e-06
3991.63,-1.0476734800022729e-06
3992.53,-1.056917430789729e-06
3993.43,-1.0627633562569786e-06
3994.33,-1.058534470028297e-06
3995.23,-1.056990428233225e-06
3996.13,-1.0432241318028396e-06
3997.03,-1.0357452525582715e-06
3997.93,-1.0307238329001665e-06
3998.83,-1.0317051148908437e-06
3999.73,-1.0459301002173412e-06
4000.63,-1.057150120688676e-06
4001.53,-1.0703322007943363e-06
4002.43,-1.0807300826568602e-06
4003.33,-1.087871463780399e-06
4004.23,-1.079207290224426e-06
4005.13,-1.072790278928161e-06
4006.03,-1.0590289873729805e-06
4006.93,-1.0605553733728923e-06
4007.83,-1.0647340938972436e-06
4008.73,-1.0725988785205897e-06
4009.63,-1.0923186949395806e-06
4010.53,-1.1048532364099879e-06
4011.43,-1.115268179601647e-06
4012.33,-1.1238363413229886e-06
4013.23,-1.1252589821645056e-06
4014.13,-1.12841863798648e-06
4015.03,-1.1310213366453158e-06
4015.93,-1.1358852273666379e-06
4016.84,-1.1369161512928234e-06
4017.74,-1.1392049719492518e-06
4018.64,-1.141969813548959e-06
4019.54,-1.1460154149977353e-06
4020.44,-1.1540894705890096e-06
4021.34,-1.148071377129152e-06
4022.24,-1.1480106689944908e-06
4023.14,-1.154024242487145e-06
4024.04,-1.1509262972353575e-06
4024.94,-1.1523874105059476e-06
4025.84,-1.1641891241065923e-06
4026.74,-1.1721546787967358e-06
4027.64,-1.173547593840779e-06
4028.54,-1.1781463442053686e-06
4029.44,-1.1576674076068104e-06
4030.34,-1.1437518325228067e-06
4031.24,-1.1226493744460258e-06
4032.14,-1.113362932729598e-06
4033.04,-1.1022239729681874e-06
4033.94,-1.1000163003767214e-06
4034.84,-1.1155993559376028e-06
4035.74,-1.1338271917770552e-06
4036.64,-1.1626873809012325e-06
4037.54,-1.1853240060060247e-06
4038.44,-1.2074818634199878e-06
4039.34,-1.2177061021381395e-06
4040.24,-1.2266421789972332e-06
4041.14,-1.2208093915829125e-06
4042.04,-1.2032217323805332e-06
4042.94,-1.1882715008970867e-06
4043.84,-1.164102884847061e-06
4044.74,-1.1450065932631557e-06
4045.64,-1.1249805990707578e-06
4046.54,-1.1179896587892792e-06
4047.44,-1.1210888089647458e-06
4048.34,-1.1422257813419064e-06
4049.24,-1.1628725326753089e-06
4050.14,-1.1902182233627158e-06
4051.04,-1.2081617210654512e-06
4051.94,-1.2224449880508837e-06
4052.84,-1.2214367048935956e-06
4053.74,-1.2137916883006502e-06
4054.65,-1.2137255169053371e-06
4055.55,-1.2069916938427286e-06
4056.45,-1.1946752125463011e-06
4057.35,-1.2049107181421374e-06
4058.25,-1.196841474564996e-06
4059.15,-1.1990235281904288e-06
4060.05,-1.2045048868540962e-06
4060.95,-1.2036494293869558e-06
4061.85,-1.2009383817070042e-06
4062.75,-1.18558993801514e-06
4063.65,-1.1775279023789523e-06
4064.55,-1.161757613803885e-06
4065.45,-1.1654138608539259e-06
4066.35,-1.1648470812500514e-06
4067.25,-1.174110880518733e-06
4068.15,-1.193342899612402e-06
4069.05,-1.2068076643544101e-06
4069.95,-1.213268801213565e-06
4070.85,-1.2167544540017621e-06
4071.75,-1.21892798458881e-06
4072.65,-1.2115540234426981e-06
4073.55,-1.2068053596181666e-06
4074.45,-1.203724122342177e-06
4075.35,-1.1891087736129348e-06
4076.25,-1.1765999899586928e-06
4077.15,-1.1598665157785398e-06
4078.05,-1.151689148073e-06
4078.95,-1.153176200680621e-06
4079.85,-1.164107290328648e-06
4080.75,-1.1844663737446033e-06
4081.65,-1.2086300778032495e-06
4082.55,-1.2286806152371187e-06
4083.45,-1.2450150580303483e-06
4084.35,-1.2516297655535882e-06
4085.25,-1.260585915692393e-06
4086.15,-1.2677511427984933e-06
4087.05,-1.286438661513262e-06
4087.95,-1.3029398933559857e-06
4088.85,-1.3198964427841942e-06
4089.75,-1.3285700492581964e-06
4090.65,-1.3348676399681326e-06
4091.55,-1.3300184783304871e-06
4092.45,-1.3263043226879819e-06
4093.36,-1.317264534243654e-06
4094.26,-1.3062973585004902e-06
4095.16,-1.2851323831137993e-06
4096.06,-1.2610262605488122e-06
4096.96,-1.2301320639581449e-06
4097.86,-1.199158845919196e-06
4098.76,-1.1546205764696328e-06
4099.66,-1.1120789119651415e-06
4100.56,-1.0670525725280465e-06
4101.46,-1.0271996155399863e-06
4102.36,-1.0106994525987947e-06
4103.26,-1.0096356043744926e-06
4104.16,-1.0276755059954055e-06
4105.06,-1.0688237596942449e-06
4105.96,-1.1214078942801166e-06
4106.86,-1.1630411615274771e-06
4107.76,-1.2038708083343326e-06
4108.66,-1.2312886019824202e-06
4109.56,-1.253425987111722e-06
4110.46,-1.2623917298105234e-06
4111.36,-1.2745416112942737e-06
4112.26,-1.2942357356332359e-06
4113.16,-1.3109679330227706e-06
4114.06,-1.327363911409064e-06
4114.96,-1.337064090276218e-06
4115.86,-1.3451145309935947e-06
4116.76,-1.3531835606040485e-06
4117.66,-1.3572687537195479e-06
4118.56,-1.344574302433799e-06
4119.46,-1.3410099431925898e-06
4120.36,-1.334123056679286e-06
4121.26,-1.3346645068748202e-06
4122.16,-1.3333550279111832e-06
4123.06,-1.3358554042799471e-06
4123.96,-1.3437625095888654e-06
4124.86,-1.3586812543943184e-06
4125.76,-1.3629138440826231e-06
4126.66,-1.3685247407070854e-06
4127.56,-1.3645505399186107e-06
4128.46,-1.3594662947236315e-06
4129.36,-1.3567866482505518e-06
4130.26,-1.3445745979464552e-06
4131.17,-1.3358764255232657e-06
4132.06,-1.3250748782805523e-06
4132.97,-1.321797113599062e-06
4133.87,-1.3163880917607263e-06
4134.77,-1.3198279015934289e-06
4135.67,-1.3404709281830048e-06
4136.57,-1.3590539765990263e-06
4137.47,-1.3841890364048905e-06
4138.37,-1.4034280173071097e-06
4139.27,-1.4197033239164348e-06
4140.17,-1.4153073804426153e-06
4141.07,-1.4146434126138728e-06
4141.97,-1.3917015481156222e-06
4142.87,-1.3713333554285477e-06
4143.77,-1.3626943262060817e-06
4144.67,-1.3575146987117991e-06
4145.57,-1.355807689811809e-06
4146.47,-1.370596948937609e-06
4147.37,-1.3817564594523331e-06
4148.27,-1.3891593929411422e-06
4149.17,-1.4047772428959283e-06
4150.07,-1.4083186937855382e-06
4150.97,-1.4103936292027595e-06
4151.87,-1.4133233171480784e-06
4152.77,-1.4076211781947882e-06
4153.67,-1.401049221744129e-06
4154.57,-1.3974781196287613e-06
4155.47,-1.4022813819935868e-06
4156.37,-1.399270257611042e-06
4157.27,-1.4070010153129247e-06
4158.17,-1.4218500364571868e-06
4159.07,-1.4294536620199109e-06
4159.97,-1.4460877635843108e-06
4160.87,-1.4600033805330302e-06
4161.77,-1.4701540746748536e-06
4162.67,-1.4798677577558596e-06
4163.57,-1.4861999760126572e-06
4164.47,-1.489311062317052e-06
4165.37,-1.4851392697309446e-06
4166.27,-1.487094624368508e-06
4167.17,-1.4826154539112627e-06
4168.07,-1.4700511070712356e-06
4168.98,-1.4696839258126103e-06
4169.88,-1.4531078552207782e-06
4170.78,-1.4318822016515398e-06
4171.68,-1.4152114637841344e-06
4172.58,-1.3883854365011454e-06
4173.48,-1.3796295662497021e-06
4174.38,-1.370497888235519e-06
4175.28,-1.3685572147944575e-06
4176.18,-1.3797095768617657e-06
4177.08,-1.3910063606289365e-06
4177.98,-1.4087497604162064e-06
4178.88,-1.4252984647396688e-06
4179.78,-1.431495776986926e-06
4180.68,-1.4458658237440005e-06
4181.58,-1.458850133542621e-06
4182.48,-1.4649309309356854e-06
4183.38,-1.4634880869532486e-06
4184.28,-1.4681604037719263e-06
4185.18,-1.4623705099783451e-06
4186.08,-1.4698496988672971e-06
4186.98,-1.4518140074939258e-06
4187.88,-1.456965471585844e-06
4188.78,-1.4605732499551024e-06
4189.68,-1.4558643619132708e-06
4190.58,-1.4735672263059124e-06
4191.48,-1.4821277206541184e-06
4192.38,-1.493413537068388e-06
4193.28,-1.5032817916306626e-06
4194.18,-1.511606421629957e-06
4195.08,-1.505708129357979e-06
4195.98,-1.502632686101391e-06
4196.88,-1.490411109500659e-06
4197.78,-1.4634950222234875e-06
4198.68,-1.4571321973561579e-06
4199.58,-1.4378136020070444e-06
4200.48,-1.431823037318787e-06
4201.38,-1.430199593755046e-06
4202.28,-1.4368625709051112e-06
4203.18,-1.439389227437912e-06
4204.08,-1.447055577331025e-06
4204.98,-1.4650232501227145e-06
4205.88,-1.4812580054820642e-06
4206.79,-1.4991498796309717e-06
4207.69,-1.516020077564132e-06
4208.59,-1.5328703653994933e-06
4209.49,-1.5464969567344342e-06
4210.39,-1.5530626041164275e-06
4211.29,-1.55513410069473e-06
4212.19,-1.5607960578870838e-06
4213.09,-1.5532179790580725e-06
4213.99,-1.5407195205330694e-06
4214.89,-1.5272552634263648e-06
4215.79,-1.513754041276819e-06
4216.69,-1.5126656897007227e-06
4217.59,-1.508455960975128e-06
4218.49,-1.5212091053686967e-06
4219.39,-1.5388051885026797e-06
4220.29,-1.5455571454015863e-06
4221.19,-1.5528257834801006e-06
4222.09,-1.5539631055484703e-06
4222.99,-1.5304141433445907e-06
4223.89,-1.4987508762232604e-06
4224.79,-1.4590677399296082e-06
4225.69,-1.418333514282901e-06
4226.59,-1.3831112639377153e-06
4227.49,-1.3764370346548405e-06
4228.39,-1.388926059413513e-06
4229.29,-1.4204629715210545e-06
4230.19,-1.457221401990274e-06
4231.09,-1.5067847688344822e-06
4231.99,-1.5301924089660717e-06
4232.89,-1.5384932258744915e-06
4233.79,-1.5494933735759175e-06
4234.69,-1.5429509795939107e-06
4235.59,-1.541635040019778e-06
4236.49,-1.5356376042174484e-06
4237.39,-1.531803113786223e-06
4238.29,-1.5369475294794306e-06
4239.19,-1.5453185357581718e-06
4240.09,-1.5586028595993695e-06
4240.99,-1.581010459388255e-06
4241.89,-1.5868186448931781e-06
4242.79,-1.6025946428623996e-06
4243.69,-1.6138788564567798e-06
4244.59,-1.6165057403309103e-06
4245.5,-1.6142935587066714e-06
4246.4,-1.6032774224876297e-06
4247.3,-1.5875455139908207e-06
4248.2,-1.5708581425545618e-06
4249.1,-1.551841662329836e-06
4250.0,-1.5487770720893388e-06
4250.9,-1.558718354650793e-06
4251.8,-1.5714997263861631e-06
4252.7,-1.575262585521812e-06
4253.6,-1.5889484709718172e-06
4254.5,-1.5981970144392998e-06
4255.4,-1.6043074488873485e-06
4256.3,-1.6118820036693606e-06
4257.2,-1.6144574946982693e-06
4258.1,-1.6221269045716764e-06
4259.0,-1.6084372070882739e-06
4259.9,-1.5978902776637475e-06
4260.8,-1.6017791517393909e-06
4261.7,-1.6028853951033387e-06
4262.6,-1.6241511751057322e-06
4263.5,-1.638475686244636e-06
4264.4,-1.66177416125039e-06
4265.3,-1.6823262785588721e-06
4266.2,-1.7003217560012703e-06
4267.1,-1.7009502356033205e-06
4268.0,-1.686557180665596e-06
4268.9,-1.6672894175639985e-06
4269.8,-1.633916728262083e-06
4270.7,-1.6028101475920686e-06
4271.6,-1.5743158221972546e-06
4272.5,-1.5495242002802604e-06
4273.4,-1.5411567038890463e-06
4274.3,-1.5366903048951406e-06
4275.2,-1.5505070508122129e-06
4276.1,-1.5836292579016127e-06
