wave,flux
3700.85,0.006353763734566449
3701.75,0.006306658788751567
3702.65,0.006072060988273752
3703.55,0.005741821660417302
3704.45,0.0053287543448796845
3705.35,0.00492837045079777
3706.25,0.004623345332340399
3707.15,0.004458691549456591
3708.05,0.0044650945401304145
3708.96,0.004660626804858325
3709.86,0.005027976070258226
3710.76,0.005553732739975102
3711.66,0.0061785601129850255
3712.56,0.006845217822834683
3713.46,0.007414807865874053
3714.36,0.007725432671455473
3715.26,0.00779542438027744
3716.16,0.007630269782103318
3717.06,0.007208273606678068
3717.96,0.0066636647300841725
3718.86,0.0059723938560283536
3719.76,0.00533598559976
3720.66,0.004815415179601957
3721.56,0.004576102701289726
3722.46,0.004641128960659282
3723.36,0.005032912524578008
3724.26,0.00558092612003603
3725.16,0.006160470393378363
3726.06,0.0065956712943862576
3726.96,0.0068633024579042735
3727.86,0.0070015839834521015
3728.76,0.007046860837645945
3729.66,0.007033965010355775
3730.56,0.006890777236147867
3731.46,0.006632375004663039
3732.36,0.006195173406688044
3733.26,0.005646559303468006
3734.16,0.005083268909911529
3735.06,0.004667416707077698
3735.96,0.004470694268861058
3736.86,0.004570724206825866
3737.76,0.0049905883356534345
3738.66,0.005678680799406273
3739.56,0.006460580227557579
3740.46,0.0072082066696417205
3741.36,0.007695730105310944
3742.26,0.007832551000334144
3743.16,0.007652906619317917
3744.06,0.007234099419103244
3744.96,0.006715483459158389
3745.86,0.006199252973239252
3746.76,0.005834241860070082
3747.67,0.005616041553351256
3748.57,0.005557888863864342
3749.47,0.005815654372864516
3750.37,0.006318146654204271
3751.27,0.007155609406017373
3752.17,0.008214770438434828
3753.07,0.009411690690420003
3753.97,0.010461868897588888
3754.87,0.011236165111632711
3755.77,0.011523451880197393
3756.67,0.01140001645680936
3757.57,0.010902471090457142
3758.47,0.01033270116485693
3759.37,0.00986716082663102
3760.27,0.009726098151360343
3761.17,0.009868425402418099
3762.07,0.010137162957308071
3762.97,0.010378500308225904
3763.87,0.010625600039123238
3764.77,0.010848037978150945
3765.67,0.011016460340193697
3766.57,0.011236718033788224
3767.47,0.011724046691772252
3768.37,0.01227387224524276
3769.27,0.01302104966371251
3770.17,0.01393025614945885
3771.07,0.014880476599486615
3771.97,0.015770600912361262
3772.87,0.01648948815231704
3773.77,0.017094955129447944
3774.67,0.017585223122764993
3775.57,0.01781955787726625
3776.47,0.018155111876429052
3777.37,0.018428477407539518
3778.27,0.018915089221286492
3779.17,0.01937702704925239
3780.07,0.02005845522627092
3780.97,0.020703378204277232
3781.87,0.02131618025800779
3782.77,0.021710587379180114
3783.67,0.02188067352341293
3784.57,0.02169971931204254
3785.47,0.02101808760974229
3786.38,0.02005546075331907
3787.28,0.018976307811186692
3788.18,0.018019648089608594
3789.08,0.01742982511310236
3789.98,0.017261773332937384
3790.88,0.017371596588336403
3791.78,0.017738242663049603
3792.68,0.018121181121052276
3793.58,0.018168923705379824
3794.48,0.01811768728777137
3795.38,0.017879353336346764
3796.28,0.017558291253369655
3797.18,0.01739356304571499
3798.08,0.017470591788765793
3798.98,0.01786661971600911
3799.88,0.018561744218186918
3800.78,0.019852108452124588
3801.68,0.02155406728272331
3802.58,0.02337964545964151
3803.48,0.02507053897876862
3804.38,0.026281723812230037
3805.28,0.027021971712620125
3806.18,0.027265032106397368
3807.08,0.027345557481850694
3807.98,0.02751007746943388
3808.88,0.027999414262533762
3809.78,0.028533343147420377
3810.68,0.0291396143829467
3811.58,0.029195914168048284
3812.48,0.02866787453731676
3813.38,0.027694833885332042
3814.28,0.02614112741422304
3815.18,0.02461564608360856
3816.08,0.023580933878536922
3816.98,0.022838948711989354
3817.88,0.022529110364350565
3818.78,0.022214987182323793
3819.68,0.02202075696678333
3820.58,0.02165839942611153
3821.48,0.021470150683531905
3822.38,0.021290727020999677
3823.28,0.021312171849609273
3824.18,0.021108892072831866
3825.09,0.02077570833114156
3825.99,0.020278341732431076
3826.89,0.019948557240566885
3827.79,0.019913897316012077
3828.69,0.020374463655023694
3829.59,0.021056321050981944
3830.49,0.021713371109450888
3831.39,0.022151449162756583
3832.29,0.02232637558320291
3833.19,0.022463861651712335
3834.09,0.022726401408408717
3834.99,0.02327298456832649
3835.89,0.024016576237390622
3836.79,0.024730915900543427
3837.69,0.025298588349567164
3838.59,0.025536516136567766
3839.49,0.026040162562020228
3840.39,0.026915837685047045
3841.29,0.028828415606685146
3842.19,0.031587166174257206
3843.09,0.034949416938607446
3843.99,0.03827199294123589
3844.89,0.041238750154042776
3845.79,0.04334694664663732
3846.69,0.04510013341297809
3847.59,0.045981921438611545
3848.49,0.04614477738102629
3849.39,0.046497666511984434
3850.29,0.04673754701000892
3851.19,0.04691034558237181
3852.09,0.04709734174186643
3852.99,0.047953192942737345
3853.89,0.04820343395087122
3854.79,0.04792187630145768
3855.69,0.046968226540771485
3856.59,0.046048689174456085
3857.49,0.04460961789370905
3858.39,0.04331442767278207
3859.29,0.042866097692451234
3860.19,0.04309287565078816
3861.09,0.045217092555995236
3861.99,0.04877116958240921
3862.9,0.0532379572181918
3863.8,0.05752420679679865
3864.7,0.06101192445777375
3865.6,0.06316542006796377
3866.5,0.06417320503685864
3867.4,0.06393214789068039
3868.3,0.06369942508818954
3869.2,0.06234864227748667
3870.1,0.0612673167658406
3871.0,0.06027527850159804
3871.9,0.060581099274014054
3872.8,0.06255521187024878
3873.7,0.06605270701159632
3874.6,0.0709361784871312
3875.5,0.07554150164089872
3876.4,0.07816556808767448
3877.3,0.08009712949535845
3878.2,0.07947490036641079
3879.1,0.078693749009585
3880.0,0.07822641210570278
3880.9,0.07883800599549824
3881.8,0.08018782862136734
3882.7,0.08250268258447241
3883.6,0.08567374261437
3884.5,0.08827222734406294
3885.4,0.09024950758537162
3886.3,0.0914249110722541
3887.2,0.09212005577554645
3888.1,0.09521905965805098
3889.0,0.10031476896321485
3889.9,0.10750398606198246
3890.8,0.11741163221411931
3891.7,0.12800930444494102
3892.6,0.13711143969071904
3893.5,0.1449965961203281
3894.4,0.15018825855341184
3895.3,0.15327175003691182
3896.2,0.15528535741718355
3897.1,0.15690148009470095
3898.0,0.15971855267827378
3898.9,0.16073785270812532
3899.8,0.1633121130141396
3900.7,0.16507390955111984
3901.6,0.16707434725716078
3902.51,0.16790119957036204
3903.41,0.16767863456673468
3904.31,0.167859187780031
3905.21,0.16923311698095703
3906.11,0.17288461928264826
3907.01,0.17887171935868537
3907.91,0.18973564764616518
3908.81,0.20245398397569775
3909.71,0.21543549436776216
3910.61,0.22852880168168188
3911.51,0.23941582625314017
3912.41,0.24848938517446975
3913.31,0.25517771358447017
3914.21,0.2602485328548854
3915.11,0.2620851676542294
3916.01,0.2610671392335708
3916.91,0.25887159414940003
3917.81,0.2541808334587757
3918.71,0.24704817584221103
3919.61,0.23908749600217874
3920.51,0.23029710049815114
3921.41,0.22505148668169062
3922.31,0.21984424805865876
3923.21,0.21994227494874782
3924.11,0.22028283037669052
3925.01,0.22033072406839874
3925.91,0.2179047755566575
3926.81,0.20968691501497932
3927.71,0.19811705286580608
3928.61,0.18217966246658981
3929.51,0.16343387392494793
3930.41,0.14593001539074868
3931.31,0.12922262956979721
3932.21,0.11503677033833272
3933.11,0.10531544661828604
3934.01,0.10082472352700605
3934.91,0.1023427264384125
3935.81,0.11133744799356647
3936.71,0.12653408038779068
3937.61,0.14702023020915106
3938.51,0.17151018160087791
3939.42,0.197818111518652
3940.32,0.2215303307943643
3941.22,0.24099835793760974
3942.12,0.2567882584972241
3943.02,0.26872823331885437
3943.92,0.28049896649684797
3944.82,0.2964737425045397
3945.72,0.31426462974778446
3946.62,0.3385109225878607
3947.52,0.3642854546000242
3948.42,0.3917177026510573
3949.32,0.41329074264255605
3950.22,0.4358258164156927
3951.12,0.453171296585788
3952.02,0.46902567354497043
3952.92,0.48151126290349067
3953.82,0.4893363860602119
3954.72,0.49653209101115203
3955.62,0.496685380714323
3956.52,0.49974549065745477
3957.42,0.49553294121274427
3958.32,0.4890662989373287
3959.22,0.47666896526501334
3960.12,0.4590820069374147
3961.02,0.43039553498120187
3961.92,0.40242063370678316
3962.82,0.3693879231809527
3963.72,0.3377333165088565
3964.62,0.3102663704337475
3965.52,0.2818893379068933
3966.42,0.2558332983560985
3967.32,0.23075356805859462
3968.22,0.21039794732730252
3969.12,0.19985441899189768
3970.02,0.2029814850897444
3970.92,0.21882097195621467
3971.82,0.24808658127620234
3972.72,0.28624044950709376
3973.62,0.3339560279081106
3974.52,0.3808668726994809
3975.42,0.43320265122996027
3976.32,0.48623963658450087
3977.22,0.5369253274886056
3978.13,0.5856180409169806
3979.03,0.6297551596350012
3979.93,0.6680243004473846
3980.83,0.6977812590099077
3981.73,0.724549365484416
3982.63,0.7358079135403132
3983.53,0.7473891083650921
3984.43,0.758317245695673
3985.33,0.7645862392854749
3986.23,0.7813377925522441
3987.13,0.7990747846223754
3988.03,0.8153236656496178
3988.93,0.831544809637289
3989.83,0.847005300542333
3990.73,0.8580300453720385
3991.63,0.8710486122965221
3992.53,0.882766014490165
3993.43,0.884934640579842
3994.33,0.8921743649444847
3995.23,0.8919253669681664
3996.13,0.8863936988726124
3997.03,0.8855986515572968
3997.93,0.888807388017597
3998.83,0.9015467740402654
3999.73,0.919691755205272
4000.63,0.9475159651474204
4001.53,0.969250067060471
4002.43,0.9783337731565235
4003.33,0.9812311092489708
4004.23,0.9661542003914441
4005.13,0.9487673251520092
4006.03,0.9313431341359734
4006.93,0.9194602179105251
4007.83,0.9209927901790448
4008.73,0.9416524015343744
4009.63,0.9653883866768738
4010.53,0.9900888561083306
4011.43,1.010464266318269
4012.33,1.031257066835986
4013.23,1.0485164067432464
4014.13,1.052809794380698
4015.03,1.065939217125081
4015.93,1.0728787807452762
4016.84,1.0779437026562952
4017.74,1.0799889650917538
4018.64,1.088396191121672
4019.54,1.0900708881128793
4020.44,1.0931741408634108
4021.34,1.0935685782181954
4022.24,1.0871001527729327
4023.14,1.0833755828848448
4024.04,1.0821024078480417
4024.94,1.082070695849175
4025.84,1.0784150981354934
4026.74,1.0821982987428675
4027.64,1.0904876026682342
4028.54,1.0774853286562756
4029.44,1.0589246030003965
4030.34,1.0172191624667108
4031.24,0.9687393484755615
4032.14,0.9276158923167559
4033.04,0.8878393779810742
4033.94,0.8765421783903958
4034.84,0.8883423439964327
4035.74,0.9196617724184266
4036.64,0.9763834667965253
4037.54,1.0271181637059805
4038.44,1.0681422210849645
4039.34,1.0964071809926919
4040.24,1.110395232810681
4041.14,1.1072707713981247
4042.04,1.077297902507224
4042.94,1.037562512679992
4043.84,0.9838466446651151
4044.74,0.9301935859443763
4045.64,0.8842358153789603
4046.54,0.8583289799324235
4047.44,0.8582475623505915
4048.34,0.8935926401193562
4049.24,0.9446823510088863
4050.14,0.9963932578921669
4051.04,1.0392962195144284
4051.94,1.0680653573822043
4052.84,1.0675880066587216
4053.74,1.0568981037522023
4054.65,1.037217672637653
4055.55,1.0049358969345308
4056.45,0.9798192955819931
4057.35,0.9649898405869157
4058.25,0.952083088684501
4059.15,0.9456656954851794
4060.05,0.9387681437757283
4060.95,0.9318844186320119
4061.85,0.915894482383341
4062.75,0.8977035223578774
4063.65,0.8784196134536898
4064.55,0.8562912136112188
4065.45,0.857583591335026
4066.35,0.8694871382942567
4067.25,0.8979150853672097
4068.15,0.9213486494523134
4069.05,0.9513302557740007
4069.95,0.9646878804386126
4070.85,0.9644679299238905
4071.75,0.9561218938872639
4072.65,0.9500231522438347
4073.55,0.9451118133083545
4074.45,0.9437364852334243
4075.35,0.9383476687308232
4076.25,0.9315393416580764
4077.15,0.9301124349506442
4078.05,0.9240543556745386
4078.95,0.9361092178613991
4079.85,0.9581389459690967
4080.75,0.9985081195619367
4081.65,1.0305758978004829
4082.55,1.057269382764579
4083.45,1.075133289443396
4084.35,1.0831919763411526
4085.25,1.0866047875885652
4086.15,1.0934854194862222
4087.05,1.115192438012483
4087.95,1.1401504520171521
4088.85,1.1621358598009144
4089.75,1.174542409383849
4090.65,1.1770891896085447
4091.55,1.1709707481758032
4092.45,1.1520597315056298
4093.36,1.1318918257684416
4094.26,1.1084104529640908
4095.16,1.071081297824318
4096.06,1.046584625764957
4096.96,1.0080520825013903
4097.86,0.9798832653870113
4098.76,0.9485610579205667
4099.66,0.9257804359422248
4100.56,0.8994398758967643
4101.46,0.8862179975138467
4102.36,0.8772167252624894
4103.26,0.884731549749452
4104.16,0.9013910834088047
4105.06,0.933986768890521
4105.96,0.9744172408357707
4106.86,1.004132374707799
4107.76,1.026191112488727
4108.66,1.0342357439415368
4109.56,1.0379774153191677
4110.46,1.033498569608672
4111.36,1.033737797771042
4112.26,1.0378101388625653
4113.16,1.0407186762393215
4114.06,1.052650266228716
4114.96,1.0706642421412962
4115.86,1.0743895719158216
4116.76,1.0834149648643505
4117.66,1.076784904109473
4118.56,1.068797470556691
4119.46,1.0505425163986306
4120.36,1.041895308016312
4121.26,1.0307146939272565
4122.16,1.0311958182381162
4123.06,1.0345267685908062
4123.96,1.0425686208349005
4124.86,1.0461174312855483
4125.76,1.0490902876917065
4126.66,1.0468842112605843
4127.56,1.0407709750222667
4128.46,1.0290863131254617
4129.36,1.0099659922230746
4130.26,0.9872285566822767
4131.17,0.962322985788418
4132.06,0.941827682928539
4132.97,0.923806473661629
4133.87,0.9241980798055607
4134.77,0.9285958674877814
4135.67,0.9538969098308249
4136.57,0.9871514583364751
4137.47,1.019648849620195
4138.37,1.0392207140197784
4139.27,1.050176794237557
4140.17,1.0482941308798097
4141.07,1.030232012462584
4141.97,0.9994145057450141
4142.87,0.9623899294003448
4143.77,0.9339838067275127
4144.67,0.9173035592794785
4145.57,0.9103423406786947
4146.47,0.9232124976808034
4147.37,0.9379787881522379
4148.27,0.9558212072021995
4149.17,0.966825450787291
4150.07,0.9723826301553685
4150.97,0.9636497379531156
4151.87,0.9546012889558091
4152.77,0.9471548728170412
4153.67,0.9354871436857015
4154.57,0.9348189064492254
4155.47,0.9333945358127484
4156.37,0.937130829697455
4157.27,0.9487502238503069
4158.17,0.9643963257823192
4159.07,0.984485967344319
4159.97,1.0105891583139335
4160.87,1.0326347199957455
4161.77,1.061595241573718
4162.67,1.0660089925976037
4163.57,1.0805871343245872
4164.47,1.0776063637924154
4165.37,1.0685028039142448
4166.27,1.0521850253082576
4167.17,1.0366486851446677
4168.07,1.0239673114029162
4168.98,1.007822838687538
4169.88,0.9995724970138249
4170.78,0.9904259074688848
4171.68,0.9721551867555546
4172.58,0.9565040357217237
4173.48,0.9335907937342206
4174.38,0.9222022355386815
4175.28,0.9157838063679071
4176.18,0.9150322634118693
4177.08,0.9219016444305064
4177.98,0.9322669944155153
4178.88,0.9416116861107869
4179.78,0.9477459536663848
4180.68,0.9602310630021307
4181.58,0.9668776327487608
4182.48,0.9783801220640345
4183.38,0.9828898098574943
4184.28,0.9901226745683257
4185.18,0.9967179747626228
4186.08,1.000659452207863
4186.98,1.0028093709249344
4187.88,0.9972118169915849
4188.78,0.996171631596307
4189.68,0.9989961792788846
4190.58,1.0104525047255388
4191.48,1.022799099717313
4192.38,1.0364312524101233
4193.28,1.0432038636021763
4194.18,1.0416242324081428
4195.08,1.0238418108918266
4195.98,1.0028667942594358
4196.88,0.9744170845174683
4197.78,0.9447715487217115
4198.68,0.9222589908764005
4199.58,0.9056189390411482
4200.48,0.9019592528664852
4201.38,0.9070172058557767
4202.28,0.9162913530086427
4203.18,0.9364203448419535
4204.08,0.9618580346105603
4204.98,0.9948789826854422
4205.88,1.0271635073949528
4206.79,1.0627144815055272
4207.69,1.0836410334272926
4208.59,1.104553724831847
4209.49,1.1073648923999817
4210.39,1.1125474718691906
4211.29,1.1031094553327294
4212.19,1.0877999065922876
4213.09,1.0703936129107203
4213.99,1.0604283035870852
4214.89,1.0448911875277065
4215.79,1.0348068704319733
4216.69,1.0331517672149868
4217.59,1.0537204017893675
4218.49,1.0831018166107997
4219.39,1.104519282075327
4220.29,1.1247232875263173
4221.19,1.1362743667923743
4222.09,1.1117106240216432
4222.99,1.0691998511358536
4223.89,1.0083612430022766
4224.79,0.9346212778410301
4225.69,0.8599297943999974
4226.59,0.8099978137035813
4227.49,0.7830816737968292
4228.39,0.7917491652811283
4229.29,0.8332724111047822
4230.19,0.8956515725123042
4231.09,0.9570034034814094
4231.99,1.004372417990898
4232.89,1.033504623484557
4233.79,1.0463073818106647
4234.69,1.039641809513382
4235.59,1.0319803673751702
4236.49,1.0235220725752356
4237.39,1.0168313213328488
4238.29,1.0158457485322823
4239.19,1.03227432840886
4240.09,1.0550682670855807
4240.99,1.0828390490440973
4241.89,1.1134151473519978
4242.79,1.1414851662887195
4243.69,1.1682304898874492
4244.59,1.1844273390292643
4245.5,1.1897904388477574
4246.4,1.1833748536494266
4247.3,1.160788289707193
4248.2,1.1252899929579698
4249.1,1.0801367107360482
4250.0,1.0413817939576737
4250.9,1.0144855510183166
4251.8,0.9963015182758798
4252.7,0.9886635679535797
4253.6,0.988529633689888
4254.5,0.991790166498395
4255.4,1.0018461440880009
4256.3,1.014497687971631
4257.2,1.0204084497741983
4258.1,1.031248108957069
4259.0,1.0238128644464013
4259.9,1.0160839465441993
4260.8,1.0069004512325348
4261.7,1.0179465815935473
4262.6,1.034858381463299
4263.5,1.0772340760001182
4264.4,1.1150784010483694
4265.3,1.1546709891456497
4266.2,1.1709530092185383
4267.1,1.164756821156209
4268.0,1.1402825424155967
4268.9,1.0905681275764032
4269.8,1.0396866018607709
4270.7,0.9742185214207728
4271.6,0.9104667587676584
4272.5,0.8646886787846912
4273.4,0.8405602901195586
4274.3,0.8443304013261919
4275.2,0.8620769159308979
4276.1,0.903600416008546
4277.0,0.9490414049187671
4277.9,0.997689417574457
4278.8,1.0338315012796808
4279.7,1.060580754133187
4280.6,1.0706687317648043
4281.5,1.066992786927338
4282.4,1.0648240455555293
4283.31,1.0594211253853492
4284.21,1.0502573451859671
4285.11,1.0370495866836715
4286.01,1.0213190450209633
4286.91,1.0029809492748192
4287.81,0.9788532114895676
4288.71,0.9511152528089976
4289.61,0.9240329718064938
4290.51,0.9092517889111246
4291.41,0.9090816741200882
4292.31,0.9080886440333489
4293.21,0.9221197885926506
4294.11,0.93854245635162
4295.01,0.9430887969029398
4295.91,0.9374007551836423
4296.81,0.9204253397317012
4297.71,0.8905412049718374
4298.61,0.8486141590939144
4299.51,0.8066142086120449
4300.41,0.7684623530648269
4301.31,0.7383438508621941
4302.21,0.7212388029261986
4303.11,0.7129340863966189
4304.01,0.7062033104496924
4304.91,0.7037614916340524
4305.81,0.6964446586023235
4306.71,0.678639825356589
4307.61,0.6684564610278788
4308.51,0.6589875477066507
4309.41,0.6582227752880653
4310.31,0.6740705108223093
4311.21,0.7079903726352466
4312.11,0.7546790450286496
4313.01,0.8161763126687552
4313.91,0.8896637749551792
4314.81,0.9608437956863196
4315.71,1.0438382258701497
4316.61,1.117679413047294
4317.51,1.177830213650391
4318.41,1.2182589245779756
4319.31,1.2378892897031575
4320.21,1.233868535753796
4321.12,1.2018238732219348
4322.02,1.1563511589638722
4322.92,1.096248810611677
4323.82,1.0304631187595115
4324.72,0.9714319479673178
4325.62,0.9258515188651957
4326.52,0.915487507559544
4327.42,0.9287067054015692
4328.32,0.9696272700202463
4329.22,1.029322617140529
4330.12,1.088384592370003
4331.02,1.1357677546706326
4331.92,1.1720521851893957
4332.82,1.1974632244209118
4333.72,1.2114426918880994
4334.62,1.2089044507461413
4335.52,1.1938406832299948
4336.42,1.161102292012508
4337.32,1.1184908932016457
4338.22,1.057657602912139
4339.12,1.0032366543306501
4340.02,0.9596839168348275
4340.92,0.9347034083987676
4341.82,0.9343959060971911
4342.72,0.949284123578135
4343.62,0.9822086220125372
4344.52,1.022381845060915
4345.42,1.0595143383558483
4346.32,1.0964359320439228
4347.22,1.1191789565125512
4348.12,1.1392067294406758
4349.02,1.1494012027405758
4349.92,1.1321812251270569
4350.82,1.1136595944652408
4351.72,1.0896176666050779
4352.62,1.059493700092273
4353.52,1.0373796139794849
4354.42,1.034753191300183
4355.32,1.0374188533465163
4356.22,1.0492056611248177
4357.12,1.0697333521081482
4358.02,1.0862650984739448
