wave,flux
3700.85,-5.4654878586113024e-05
3701.75,-5.371517658794994e-05
3702.65,-5.170191090384792e-05
3703.55,-4.8483572497577756e-05
3704.45,-4.509600467101263e-05
3705.35,-4.1772021364140924e-05
3706.25,-3.91731185293671e-05
3707.15,-3.784544258369376e-05
3708.05,-3.772640347252913e-05
3708.96,-3.8867495912398554e-05
3709.86,-4.123219434915975e-05
3710.76,-4.4569556063502284e-05
3711.66,-4.862718826687171e-05
3712.56,-5.2866831281918326e-05
3713.46,-5.639916690193035e-05
3714.36,-5.8617511795786033e-05
3715.26,-5.938114237244633e-05
3716.16,-5.809107398615892e-05
3717.06,-5.507721056731534e-05
3717.96,-5.1089042636009976e-05
3718.86,-4.5861328931615595e-05
3719.76,-4.113378952435433e-05
3720.66,-3.701510127418691e-05
3721.56,-3.503691639811008e-05
3722.46,-3.5288479873139636e-05
3723.36,-3.766480526074613e-05
3724.26,-4.1225949115205095e-05
3725.16,-4.498576674999091e-05
3726.06,-4.792630897288147e-05
3726.96,-4.960005451283793e-05
3727.86,-5.051226465698438e-05
3728.76,-5.021934106983046e-05
3729.66,-4.978224577501547e-05
3730.56,-4.870320106395492e-05
3731.46,-4.672295116327815e-05
3732.36,-4.358174355501958e-05
3733.26,-3.960721248968179e-05
3734.16,-3.559322888815477e-05
3735.06,-3.251618851823597e-05
3735.96,-3.0995150961402725e-05
3736.86,-3.128732596890081e-05
3737.76,-3.3687756944751404e-05
3738.66,-3.766822747726266e-05
3739.56,-4.2384415917784594e-05
3740.46,-4.6470074599442414e-05
3741.36,-4.9212248965416014e-05
3742.26,-4.998244710360096e-05
3743.16,-4.84876247726506e-05
3744.06,-4.584465080481421e-05
3744.96,-4.259569364564658e-05
3745.86,-3.945984354223548e-05
3746.76,-3.676697951226567e-05
3747.67,-3.507206937219672e-05
3748.57,-3.449022383812787e-05
3749.47,-3.5056327200226614e-05
3750.37,-3.758611240503561e-05
3751.27,-4.184947804566528e-05
3752.17,-4.7401905262460976e-05
3753.07,-5.313696203177906e-05
3753.97,-5.855990692598664e-05
3754.87,-6.200353632960782e-05
3755.77,-6.315567911104908e-05
3756.67,-6.206433126044587e-05
3757.57,-5.96060158858151e-05
3758.47,-5.6037453232034496e-05
3759.37,-5.3511827934537324e-05
3760.27,-5.250190136207653e-05
3761.17,-5.288263214179109e-05
3762.07,-5.3878960083517246e-05
3762.97,-5.5006968610571465e-05
3763.87,-5.582409018781061e-05
3764.77,-5.662255857365762e-05
3765.67,-5.722777907474738e-05
3766.57,-5.7754965834233794e-05
3767.47,-5.9044357285388963e-05
3768.37,-6.09147843938595e-05
3769.27,-6.326667595162363e-05
3770.17,-6.629096038876833e-05
3771.07,-6.91995045195661e-05
3771.97,-7.26463063941631e-05
3772.87,-7.52982886018909e-05
3773.77,-7.760520571169152e-05
3774.67,-7.925028868305816e-05
3775.57,-8.004078474844313e-05
3776.47,-8.059557341445959e-05
3777.37,-8.176104650968966e-05
3778.27,-8.28699273288923e-05
3779.17,-8.443771330001388e-05
3780.07,-8.647159688239033e-05
3780.97,-8.844579040685346e-05
3781.87,-9.021995417774636e-05
3782.77,-9.141580295439647e-05
3783.67,-9.099367106975619e-05
3784.57,-8.990548476629022e-05
3785.47,-8.680095454016135e-05
3786.38,-8.270360755053634e-05
3787.28,-7.815891186303853e-05
3788.18,-7.424520650812528e-05
3789.08,-7.164093190846673e-05
3789.98,-7.030077513790593e-05
3790.88,-7.063449686640139e-05
3791.78,-7.101356139468727e-05
3792.68,-7.123727267037532e-05
3793.58,-7.086219806184538e-05
3794.48,-7.009970241933261e-05
3795.38,-6.828792427942e-05
3796.28,-6.704384924423669e-05
3797.18,-6.525814103876584e-05
3798.08,-6.488132738332594e-05
3798.98,-6.540666306231224e-05
3799.88,-6.780977158505584e-05
3800.78,-7.160230838566525e-05
3801.68,-7.721464063345599e-05
3802.58,-8.275629294426332e-05
3803.48,-8.772699165174726e-05
3804.38,-9.11867287068331e-05
3805.28,-9.321495296408212e-05
3806.18,-9.284349788903494e-05
3807.08,-9.262016493981939e-05
3807.98,-9.231662964730675e-05
3808.88,-9.281880139451424e-05
3809.78,-9.358376951196884e-05
3810.68,-9.477655365845911e-05
3811.58,-9.386215692084352e-05
3812.48,-9.15398110443239e-05
3813.38,-8.770870573480806e-05
3814.28,-8.281622138038618e-05
3815.18,-7.780162876231439e-05
3816.08,-7.405907453348484e-05
3816.98,-7.199580948796482e-05
3817.88,-7.057670643856285e-05
3818.78,-6.931530448467795e-05
3819.68,-6.82080729270378e-05
3820.58,-6.670179396505612e-05
3821.48,-6.538825961063296e-05
3822.38,-6.441638746418613e-05
3823.28,-6.387307071496515e-05
3824.18,-6.239074735609023e-05
3825.09,-6.044846994987739e-05
3825.99,-5.856356715016936e-05
3826.89,-5.6960630851519816e-05
3827.79,-5.606488533206982e-05
3828.69,-5.648522665838956e-05
3829.59,-5.725937843209807e-05
3830.49,-5.7949127756714615e-05
3831.39,-5.826038371391001e-05
3832.29,-5.79598338117079e-05
3833.19,-5.716750775901179e-05
3834.09,-5.7099345983368606e-05
3834.99,-5.7522978676655026e-05
3835.89,-5.836063867073852e-05
3836.79,-5.908853462529339e-05
3837.69,-5.988206418152116e-05
3838.59,-5.999249372679284e-05
3839.49,-6.0803786872619614e-05
3840.39,-6.309106431503729e-05
3841.29,-6.732316554142087e-05
3842.19,-7.313570492683614e-05
3843.09,-8.034992947573439e-05
3843.99,-8.731382447688041e-05
3844.89,-9.307960445138367e-05
3845.79,-9.702550698394544e-05
3846.69,-0.00010009619713847411
3847.59,-0.00010112928531450266
3848.49,-0.00010138718489377894
3849.39,-0.0001009894467144068
3850.29,-9.985175151383265e-05
3851.19,-9.979254605277103e-05
3852.09,-9.976038095313123e-05
3852.99,-0.00010003278472197312
3853.89,-9.967146153063888e-05
3854.79,-9.795073809883595e-05
3855.69,-9.57395978104918e-05
3856.59,-9.21172984672699e-05
3857.49,-8.849865424939864e-05
3858.39,-8.506190123045165e-05
3859.29,-8.282603177992783e-05
3860.19,-8.246930681663262e-05
3861.09,-8.515952517008151e-05
3861.99,-9.02471028171046e-05
3862.9,-9.702858868197206e-05
3863.8,-0.00010288315267950299
3864.7,-0.00010736429516890521
3865.6,-0.00011010070231619844
3866.5,-0.0001114199218831543
3867.4,-0.00011027267936567989
3868.3,-0.00010930698102014931
3869.2,-0.00010644445498261665
3870.1,-0.00010341002554414076
3871.0,-0.00010104402955929287
3871.9,-9.946580022881986e-05
3872.8,-0.0001001239651638351
3873.7,-0.00010334442568967064
3874.6,-0.00010726449705933086
3875.5,-0.00011125087202332531
3876.4,-0.00011415513817852055
3877.3,-0.00011451740337625662
3878.2,-0.00011337989453054251
3879.1,-0.00011167861718305806
3880.0,-0.00011077018098303486
3880.9,-0.00011006457664624282
3881.8,-0.00011121104304006099
3882.7,-0.00011259813700889045
3883.6,-0.00011448962401671818
3884.5,-0.00011617591120085319
3885.4,-0.00011567136457674122
3886.3,-0.00011461976484280809
3887.2,-0.00011403430271774257
3888.1,-0.0001145842704104002
3889.0,-0.0001176553519934072
3889.9,-0.00012355225376961272
3890.8,-0.00013213951147189007
3891.7,-0.00014151448652163556
3892.6,-0.00014987710565404885
3893.5,-0.0001553035950635368
3894.4,-0.0001584899497253154
3895.3,-0.00016104399353299203
3896.2,-0.00016139775093489472
3897.1,-0.00016190775704378536
3898.0,-0.0001621467647205321
3898.9,-0.0001635380139066672
3899.8,-0.00016438993700090628
3900.7,-0.00016414657201529139
3901.6,-0.00016478364579832454
3902.51,-0.0001647267289784137
3903.41,-0.00016286387717183345
3904.31,-0.0001625753983364675
3905.21,-0.00016168666345813963
3906.11,-0.0001624242365547803
3907.01,-0.0001659179580703073
3907.91,-0.00017215969612791133
3908.81,-0.00018109148525406987
3909.71,-0.00018984107316401892
3910.61,-0.00019910065803041554
3911.51,-0.0002046347272789937
3912.41,-0.0002104801598898123
3913.31,-0.00021243197939817824
3914.21,-0.00021330864015801497
3915.11,-0.0002135233585621698
3916.01,-0.00021006680636274618
3916.91,-0.00020646459018113403
3917.81,-0.0002014976359166163
3918.71,-0.00019515640202898206
3919.61,-0.00018814382216581052
3920.51,-0.0001805693748712388
3921.41,-0.00017445315588527033
3922.31,-0.0001698698857014365
3923.21,-0.000167673545514322
3924.11,-0.0001668200820514767
3925.01,-0.00016435262455592457
3925.91,-0.00016005563368423403
3926.81,-0.00015251527648852187
3927.71,-0.0001425985120833119
3928.61,-0.00012848241522464416
3929.51,-0.00011462041563860444
3930.41,-0.00010120750617989212
3931.31,-8.895050898012433e-05
3932.21,-7.815870760601247e-05
3933.11,-7.07367710821614e-05
3934.01,-6.708597198771355e-05
3934.91,-6.741859603184536e-05
3935.81,-7.229768369781249e-05
3936.71,-8.124409795200179e-05
3937.61,-9.373640815697217e-05
3938.51,-0.00010901678626123006
3939.42,-0.0001242211564153122
3940.32,-0.00013844832910638985
3941.22,-0.00014939233162772372
3942.12,-0.00015945998125162738
3943.02,-0.0001667955467063185
3943.92,-0.00017468523797796624
3944.82,-0.00018306564178437336
3945.72,-0.0001927695718562887
3946.62,-0.00020409481297248183
3947.52,-0.00021686168044280876
3948.42,-0.00022939116772988677
3949.32,-0.0002408577512923178
3950.22,-0.0002501742381503945
3951.12,-0.00025745561364641257
3952.02,-0.00026361885330800625
3952.92,-0.0002699452851704726
3953.82,-0.00027248283190595927
3954.72,-0.0002738838058124121
3955.62,-0.0002755399299105128
3956.52,-0.0002741984374150866
3957.42,-0.0002715216758547868
3958.32,-0.000265637892358903
3959.22,-0.0002589208787429009
3960.12,-0.000247295479687705
3961.02,-0.00023341761341290826
3961.92,-0.00021758989501325274
3962.82,-0.00019948260101927586
3963.72,-0.00018140269999807274
3964.62,-0.00016570735575621102
3965.52,-0.0001502177384286634
3966.42,-0.00013459696703362569
3967.32,-0.00012056260328966023
3968.22,-0.00010959801421672891
3969.12,-0.00010381037892465672
3970.02,-0.00010413682251885672
3970.92,-0.00011195258074052135
3971.82,-0.0001267300461817859
3972.72,-0.00014595728522220813
3973.62,-0.00016933590815472997
3974.52,-0.00019486295778483264
3975.42,-0.000221354567258855
3976.32,-0.00024620250429316175
3977.22,-0.0002712273239730413
3978.13,-0.00029506512140143015
3979.03,-0.00031668721808950697
3979.93,-0.0003345013767185672
3980.83,-0.0003481432271684907
3981.73,-0.00035944110059670426
3982.63,-0.00036718936750272245
3983.53,-0.00037163684702240675
3984.43,-0.0003775310999111296
3985.33,-0.0003836302521142711
3986.23,-0.00039096044120550706
3987.13,-0.00040047622046039173
3988.03,-0.0004095892749169166
3988.93,-0.00041682381242019484
3989.83,-0.0004250720811262044
3990.73,-0.0004298280066956002
3991.63,-0.00043808765602599257
3992.53,-0.00044282790821672526
3993.43,-0.00045065806746917943
3994.33,-0.0004490971712518142
3995.23,-0.0004496316066436467
3996.13,-0.0004488062339554545
3997.03,-0.0004495684966598552
3997.93,-0.00045126022265569107
3998.83,-0.00045534745449864005
3999.73,-0.00046753293134486976
4000.63,-0.000479372952039854
4001.53,-0.0004915254559439025
4002.43,-0.0004993400160411742
4003.33,-0.0005011723214501947
4004.23,-0.000498499557918729
4005.13,-0.0004912493852361306
4006.03,-0.000482612008172929
4006.93,-0.00048168547371070416
4007.83,-0.0004861369776541443
4008.73,-0.0004981875710777187
4009.63,-0.0005129178778600576
4010.53,-0.0005284291011862376
4011.43,-0.0005424559218007817
4012.33,-0.0005513001970515757
4013.23,-0.0005611565964573665
4014.13,-0.0005697367686180076
4015.03,-0.0005737183675740853
4015.93,-0.0005820290816232806
4016.84,-0.0005877024586430537
4017.74,-0.0005891471450365056
4018.64,-0.0005922840826012031
4019.54,-0.0005980293940144868
4020.44,-0.0006039471155607837
4021.34,-0.0006088477196846615
4022.24,-0.0006121102166908159
4023.14,-0.0006137014975807965
4024.04,-0.0006171153621951437
4024.94,-0.0006233064886665615
4025.84,-0.0006283241464379671
4026.74,-0.0006343157162918636
4027.64,-0.0006408630578082752
4028.54,-0.0006442043215805323
4029.44,-0.0006361728151997097
4030.34,-0.0006199359270287796
4031.24,-0.0006017891182786061
4032.14,-0.0005807983126026353
4033.04,-0.0005671604818356235
4033.94,-0.0005675581368863847
4034.84,-0.0005789424791972341
4035.74,-0.0005988956498483741
4036.64,-0.0006303411075478325
4037.54,-0.000661986186658076
4038.44,-0.0006941021083736921
4039.34,-0.0007098364799173828
4040.24,-0.0007250707585647937
4041.14,-0.0007196941133701545
4042.04,-0.0007125471526826295
4042.94,-0.0006931911799876186
4043.84,-0.0006641412026794658
4044.74,-0.0006355626362505718
4045.64,-0.0006121199869231035
4046.54,-0.0006055897944711699
4047.44,-0.00061259855357668
4048.34,-0.0006369103121423357
4049.24,-0.0006771613291302202
4050.14,-0.0007104865934362493
4051.04,-0.000744740166247575
4051.94,-0.0007640874782701033
4052.84,-0.0007706923771554031
4053.74,-0.0007664931354543547
4054.65,-0.0007664706988889154
4055.55,-0.0007535864308713332
4056.45,-0.0007425565297437771
4057.35,-0.0007430814588684254
4058.25,-0.00074166474746661
4059.15,-0.0007445687890579145
4060.05,-0.0007475863846031648
4060.95,-0.0007464729355973873
4061.85,-0.0007398893016263378
4062.75,-0.0007268671534126993
4063.65,-0.0007178545932569238
4064.55,-0.0007095779821726741
4065.45,-0.0007146946749813908
4066.35,-0.0007312850074477266
4067.25,-0.0007525857654386626
4068.15,-0.0007807049378574145
4069.05,-0.0008022386666861374
4069.95,-0.0008195838055117784
4070.85,-0.0008270085174922411
4071.75,-0.0008290491038185889
4072.65,-0.0008284824788573629
4073.55,-0.0008304923805984231
4074.45,-0.0008341442597878489
4075.35,-0.0008360445209379446
4076.25,-0.0008368517213539901
4077.15,-0.0008312455980689575
4078.05,-0.0008387141952987271
4078.95,-0.0008516529232062269
4079.85,-0.000876052256623515
4080.75,-0.0009118454822596012
4081.65,-0.0009467891281634538
4082.55,-0.0009707007332708926
4083.45,-0.0009895564540092962
4084.35,-0.0010080608607473172
4085.25,-0.0010197055619159084
4086.15,-0.001035477848724049
4087.05,-0.0010645161836329382
4087.95,-0.001096401773335429
4088.85,-0.001116821487791048
4089.75,-0.0011376868495344495
4090.65,-0.0011613333418470106
4091.55,-0.0011581483890852403
4092.45,-0.0011556881247618445
4093.36,-0.0011480614061802864
4094.26,-0.001140805582620508
4095.16,-0.0011170246052694354
4096.06,-0.0010966546969145413
4096.96,-0.0010727471835420852
4097.86,-0.0010478231312599764
4098.76,-0.0010308712115217318
4099.66,-0.0010050436653679922
4100.56,-0.00098808695508462
4101.46,-0.0009695474774279838
4102.36,-0.0009638232872172653
4103.26,-0.0009853961021405232
4104.16,-0.0010077247618053692
4105.06,-0.0010525471238421024
4105.96,-0.0011010341422202448
4106.86,-0.0011453401786495794
4107.76,-0.0011752289692760478
4108.66,-0.0011981102273034498
4109.56,-0.0012159705944044638
4110.46,-0.0012197938740654217
4111.36,-0.0012310311415212449
4112.26,-0.0012415343876854869
4113.16,-0.001258445349260113
4114.06,-0.0012845938405251353
4114.96,-0.0013105774755088461
4115.86,-0.001332047514135116
4116.76,-0.0013421522090903562
4117.66,-0.001345672076241139
4118.56,-0.001349054537291899
4119.46,-0.0013419471608169672
4120.36,-0.0013431661340321697
4121.26,-0.001348100641554453
4122.16,-0.0013535678385828876
4123.06,-0.001372214279951493
4123.96,-0.0013877600017703252
4124.86,-0.0014073469190326148
4125.76,-0.0014217773413171921
4126.66,-0.0014347296272812443
4127.56,-0.0014249940440330547
4128.46,-0.0014227512502259024
4129.36,-0.0014087579786839165
4130.26,-0.001388813341073717
4131.17,-0.0013660242144086824
4132.06,-0.0013526361540351784
4132.97,-0.0013451810651168587
4133.87,-0.0013536894161439864
4134.77,-0.0013771896553239874
4135.67,-0.0014241051088160477
4136.57,-0.0014699119518364933
4137.47,-0.0015175761629305639
4138.37,-0.0015682851043570924
4139.27,-0.0015967892387182265
4140.17,-0.0015990823531149983
4141.07,-0.001585422238793029
4141.97,-0.0015643838685308468
4142.87,-0.0015131704781909004
4143.77,-0.0014812538448721777
4144.67,-0.0014704732804146543
4145.57,-0.00148154269367383
4146.47,-0.0015097469002027766
4147.37,-0.0015556733630143421
4148.27,-0.0015984581352210087
4149.17,-0.0016260602094270466
4150.07,-0.0016435548515119228
4150.97,-0.0016520353777865991
4151.87,-0.001653604601722158
4152.77,-0.001652934161947184
4153.67,-0.001662539868838275
4154.57,-0.0016628914568846253
4155.47,-0.0016766013263421343
4156.37,-0.001701715688152913
4157.27,-0.0017216720896759891
4158.17,-0.0017579426546985865
4159.07,-0.001804502133740179
4159.97,-0.001858691843651639
4160.87,-0.0019165346136758368
4161.77,-0.001953455002368599
4162.67,-0.0019921425805481926
4163.57,-0.0020168668018374037
4164.47,-0.00202280617726374
4165.37,-0.002022703552784922
4166.27,-0.0020177451516063065
4167.17,-0.0020112619663238216
4168.07,-0.001987786142138404
4168.98,-0.001998617598055497
4169.88,-0.001986602882194541
4170.78,-0.001976266770819945
4171.68,-0.0019544902500488112
4172.58,-0.0019334862886992753
4173.48,-0.0019143495627422023
4174.38,-0.0019036127431888833
4175.28,-0.001905899213235426
4176.18,-0.0019372885512700657
4177.08,-0.001969932435096242
4177.98,-0.0020092450764765996
4178.88,-0.002052093191415696
4179.78,-0.0020905996381342918
4180.68,-0.002122217179981223
4181.58,-0.0021468391977425344
4182.48,-0.002181665282088753
4183.38,-0.0022153001418034686
4184.28,-0.0022267161173126163
4185.18,-0.002247170967864608
4186.08,-0.002259303919907421
4186.98,-0.0022866524341684288
4187.88,-0.002288038487808453
4188.78,-0.002294835861188117
4189.68,-0.002328184037469593
4190.58,-0.002367270070311308
4191.48,-0.002414580479640815
4192.38,-0.0024656417986921642
4193.28,-0.0024973657473701875
4194.18,-0.0025136505011304354
4195.08,-0.0025148482836824596
4195.98,-0.002493165229438144
4196.88,-0.002440781222274009
4197.78,-0.0024044916285454808
4198.68,-0.0023683774603407257
4199.58,-0.0023499587101605815
4200.48,-0.0023505565404769208
4201.38,-0.0023751413061187682
4202.28,-0.0024175757587986562
4203.18,-0.002474654469354162
4204.08,-0.0025479069755855507
4204.98,-0.0026420237706918158
4205.88,-0.0027336025308085056
4206.79,-0.0028273298912884957
4207.69,-0.0029252315331754607
4208.59,-0.002981843781213836
4209.49,-0.0030470679185266958
4210.39,-0.0030838473789473204
4211.29,-0.003084909604149112
4212.19,-0.0030984363683969744
4213.09,-0.0030911649557706453
4213.99,-0.003087964364871734
4214.89,-0.0030745165173096203
4215.79,-0.0030775758617995106
4216.69,-0.003093971822390134
4217.59,-0.0031557393149617857
4218.49,-0.0032369345681306032
4219.39,-0.0033319012098030026
4220.29,-0.003394534953347706
4221.19,-0.0034399197057286422
4222.09,-0.0033923455264028377
4222.99,-0.003318979076869794
4223.89,-0.003168053255685496
4224.79,-0.0029747107969518415
4225.69,-0.0028052968689930803
4226.59,-0.0026660160360192347
4227.49,-0.0026222301195096493
4228.39,-0.002684981818418183
4229.29,-0.0028211260159646447
4230.19,-0.0030391091204260167
4231.09,-0.0032553913088284266
4231.99,-0.003427066560865211
4232.89,-0.00354920562498164
4233.79,-0.0036041981226543366
4234.69,-0.0036364916097308773
4235.59,-0.0036340291149997033
4236.49,-0.0036320142969703453
4237.39,-0.0036479463849916523
4238.29,-0.003684868403456131
4239.19,-0.003760749146429607
4240.09,-0.003863891159617333
4240.99,-0.003973120581825128
4241.89,-0.004093144504044381
4242.79,-0.0042203890851114575
4243.69,-0.004328694336351544
4244.59,-0.004428083167127725
4245.5,-0.004463965936808252
4246.4,-0.004465166310918326
4247.3,-0.004433609150189604
4248.2,-0.004357098359190688
4249.1,-0.004247509625879438
4250.0,-0.004175632973023156
4250.9,-0.004150597961399317
4251.8,-0.004138755104802231
4252.7,-0.004164736859656218
4253.6,-0.004219148784968035
4254.5,-0.004266331967513735
4255.4,-0.004337918089448486
4256.3,-0.0044371839961048
4257.2,-0.0044942097518961156
4258.1,-0.004531437667895988
4259.0,-0.004572629729492465
4259.9,-0.0045770130050817245
4260.8,-0.004594451507237409
4261.7,-0.004676625361548774
4262.6,-0.004797294609859151
4263.5,-0.004995624435058603
4264.4,-0.00518961775661848
4265.3,-0.005364735852142925
4266.2,-0.005487047517731402
4267.1,-0.005543848451123845
4268.0,-0.005481600591137002
4268.9,-0.005339782873432181
4269.8,-0.00515234587028744
4270.7,-0.004961959165530809
4271.6,-0.004731494084629938
4272.5,-0.004588678571562622
4273.4,-0.004525888777451516
4274.3,-0.0045923660002690605
4275.2,-0.0047441668919797
4276.1,-0.004956366939495843
4277.0,-0.005211287330488833
4277.9,-0.005481742413208265
4278.8,-0.005729457030985662
4279.7,-0.0058948037929086195
4280.6,-0.005991114991750479
4281.5,-0.006022645595859202
4282.4,-0.0060651681168586435
4283.31,-0.006057985897755126
