wave,flux
3700.85,0.004969025508011208
3701.75,0.004926193489749001
3702.65,0.0047400142601868945
3703.55,0.0044506639911004444
3704.45,0.004115156643233598
3705.35,0.0037994943777215472
3706.25,0.0035420110294828075
3707.15,0.003401519726553766
3708.05,0.003395105802116181
3708.96,0.0035553461293862396
3709.86,0.0038584112336230883
3710.76,0.004283952965760797
3711.66,0.004806245723686747
3712.56,0.005311267802319083
3713.46,0.0057500567991615615
3714.36,0.0060580108839674175
3715.26,0.006074868043180135
3716.16,0.005912632283424992
3717.06,0.005534872021468349
3717.96,0.0050815135874565705
3718.86,0.004505392960446649
3719.76,0.00396594361141918
3720.66,0.0035850843352162867
3721.56,0.0033781945113067298
3722.46,0.0034794988065658065
3723.36,0.0037784506308267112
3724.26,0.004193435047303299
3725.16,0.004665196074190596
3726.06,0.005035618082100235
3726.96,0.005225826238201865
3727.86,0.005337291640242098
3728.76,0.0053624583809479065
3729.66,0.005310792148569768
3730.56,0.005226666764242884
3731.46,0.004996829142782779
3732.36,0.004670653604499861
3733.26,0.004215636156416433
3734.16,0.0037769902275748947
3735.06,0.0034304516187816723
3735.96,0.0032804496496394416
3736.86,0.0033560852824039418
3737.76,0.003689865451771129
3738.66,0.004188714796290388
3739.56,0.0048084868314791935
3740.46,0.005395473643498513
3741.36,0.005776994883596412
3742.26,0.005876106732877534
3743.16,0.005727345017022638
3744.06,0.005387207891157484
3744.96,0.0049594787331563115
3745.86,0.004564184785706933
3746.76,0.004271514963417258
3747.67,0.004108001030998687
3748.57,0.004108947574156653
3749.47,0.004312542401247895
3750.37,0.004747160573347388
3751.27,0.005419696119088802
3752.17,0.00628832717999931
3753.07,0.007209152803700074
3753.97,0.008037558437875115
3754.87,0.008636869651457513
3755.77,0.008849948441556411
3756.67,0.0087405245975374
3757.57,0.008339569299718755
3758.47,0.007863558768958147
3759.37,0.007499644827614275
3760.27,0.0073562985838468
3761.17,0.007497161248285359
3762.07,0.007658804878874133
3762.97,0.007919345311480423
3763.87,0.008070285378154993
3764.77,0.008195940329086302
3765.67,0.008361020059985022
3766.57,0.008578073794532376
3767.47,0.008956857409234967
3768.37,0.009509784975801868
3769.27,0.010166147878341384
3770.17,0.010919922445533475
3771.07,0.011731578560745942
3771.97,0.01247706591931955
3772.87,0.013082063154413315
3773.77,0.01354542875106282
3774.67,0.01394196278306833
3775.57,0.014139171993907854
3776.47,0.014325413562517982
3777.37,0.014548248953442712
3778.27,0.014795775497964509
3779.17,0.015196938952774647
3780.07,0.01575066473145473
3780.97,0.016251993647725563
3781.87,0.016783011394775605
3782.77,0.01699954502128925
3783.67,0.01706203543996127
3784.57,0.01695693549842075
3785.47,0.016399568218421118
3786.38,0.0155617304417822
3787.28,0.014662889365712854
3788.18,0.013948424455016636
3789.08,0.013466529761557584
3789.98,0.013268825239307138
3790.88,0.01343541972656907
3791.78,0.013783215002852468
3792.68,0.0140991876038053
3793.58,0.0140905011724734
3794.48,0.014108583568416225
3795.38,0.013830316509894872
3796.28,0.01365559846676279
3797.18,0.013561748839609351
3798.08,0.013617944825927071
3798.98,0.013937759535822969
3799.88,0.014518412590277072
3800.78,0.015533948590893415
3801.68,0.01685262007090289
3802.58,0.018305174771138574
3803.48,0.019541132718254285
3804.38,0.020465165970837782
3805.28,0.02106723310665676
3806.18,0.021303271218984406
3807.08,0.02129614625595702
3807.98,0.021490053179996513
3808.88,0.02180165206594625
3809.78,0.0221745055656368
3810.68,0.02261395104237064
3811.58,0.02273005117842966
3812.48,0.022280251794196963
3813.38,0.021303201445884958
3814.28,0.020074889264590178
3815.18,0.018851950268145998
3816.08,0.01795114480297802
3816.98,0.017434054052406837
3817.88,0.017019030588332568
3818.78,0.016884797803200884
3819.68,0.016618590916769486
3820.58,0.01629961320032282
3821.48,0.016109334457533857
3822.38,0.016033082914468914
3823.28,0.01597852798910256
3824.18,0.015819174647891093
3825.09,0.015522418461341237
3825.99,0.015194892093066438
3826.89,0.01501409586329982
3827.79,0.015052782196465804
3828.69,0.015506666585667355
3829.59,0.016077360055306685
3830.49,0.01663723548921823
3831.39,0.01701211861268799
3832.29,0.0172773263385863
3833.19,0.017467627588582633
3834.09,0.017760484409707435
3834.99,0.018210931543830994
3835.89,0.01879545313855027
3836.79,0.01947066247177491
3837.69,0.019842542074740684
3838.59,0.020029763483545404
3839.49,0.020342412547815845
3840.39,0.021052613486415166
3841.29,0.022480537600350185
3842.19,0.024607591176294998
3843.09,0.027431226716781585
3843.99,0.030032693795395377
3844.89,0.032470835072080304
3845.79,0.03428099448706793
3846.69,0.03544715804998748
3847.59,0.03619787610438183
3848.49,0.03638956215852329
3849.39,0.03641751988454475
3850.29,0.036496878537346865
3851.19,0.036672564480162186
3852.09,0.0371200219956094
3852.99,0.0374869724956008
3853.89,0.0377028838038468
3854.79,0.037478104151298694
3855.69,0.036793749297411575
3856.59,0.03580670685442311
3857.49,0.034530782517936676
3858.39,0.033523259085845795
3859.29,0.032903589465754196
3860.19,0.03331585264375883
3861.09,0.03499741496124988
3861.99,0.0379766470484067
3862.9,0.04187283013239846
3863.8,0.04522796397853911
3864.7,0.04801443779641353
3865.6,0.04972789383899816
3866.5,0.05059376657710199
3867.4,0.05063281340933762
3868.3,0.0501142095839932
3869.2,0.04934990359041828
3870.1,0.04835379920060142
3871.0,0.047779237277956875
3871.9,0.04795176273413717
3872.8,0.04980202056928747
3873.7,0.05299196635424269
3874.6,0.056895824106545693
3875.5,0.06081992173984539
3876.4,0.06304775857927422
3877.3,0.06389965830169538
3878.2,0.06362492654377849
3879.1,0.06325154623359576
3880.0,0.0626709558275007
3880.9,0.0633013475697191
3881.8,0.06464946960220302
3882.7,0.066870601733845
3883.6,0.06963639105254092
3884.5,0.07209359223952111
3885.4,0.07369949821781942
3886.3,0.0750135796196612
3887.2,0.07604047793874272
3888.1,0.0789155312506209
3889.0,0.08341841289740495
3889.9,0.09084849388086491
3890.8,0.09934419767924571
3891.7,0.1088506625804658
3892.6,0.11724157100991246
3893.5,0.12275136075620963
3894.4,0.1272451018375324
3895.3,0.1295914001360967
3896.2,0.1302599096941736
3897.1,0.1323663466917966
3898.0,0.1336722799999884
3898.9,0.1351610731334296
3899.8,0.13631492480393853
3900.7,0.1389313116659868
3901.6,0.13975432735610915
3902.51,0.1403034634678178
3903.41,0.1408114418577786
3904.31,0.14132856066536229
3905.21,0.14277965491840536
3906.11,0.14568594301960616
3907.01,0.15230557693236896
3907.91,0.16191357202673093
3908.81,0.1729401044300022
3909.71,0.18562687530271238
3910.61,0.19705676546672402
3911.51,0.2074986340565504
3912.41,0.21488459132765417
3913.31,0.2215414085114817
3914.21,0.22581786208305252
3915.11,0.22872274305918852
3916.01,0.22766086149119874
3916.91,0.22557659635925856
3917.81,0.221585949101254
3918.71,0.21553029811442845
3919.61,0.20768284767777082
3920.51,0.20025636085951576
3921.41,0.1929758751780131
3922.31,0.1902453004527966
3923.21,0.18889684024421774
3924.11,0.19000526247386085
3925.01,0.1910183357538008
3925.91,0.1887751553095906
3926.81,0.18263932243059283
3927.71,0.17262327311739564
3928.61,0.15910809252483235
3929.51,0.14374637714298152
3930.41,0.1287946517453977
3931.31,0.11482147891307352
3932.21,0.10309671110707293
3933.11,0.095006627673628
3934.01,0.09109992594192205
3934.91,0.09345310953779068
3935.81,0.10104486041617605
3936.71,0.11587184437992544
3937.61,0.13426987002148477
3938.51,0.15614376980435318
3939.42,0.17840756777934078
3940.32,0.1995649777457453
3941.22,0.21750871169615707
3942.12,0.22995301613687213
3943.02,0.24121083204945098
3943.92,0.2514918225274242
3944.82,0.2675923553872894
3945.72,0.2841909643085884
3946.62,0.3066279344034109
3947.52,0.33222445367456693
3948.42,0.3571122091252824
3949.32,0.3808350153707944
3950.22,0.40091797949609176
3951.12,0.42020885321102164
3952.02,0.4334500394734782
3952.92,0.44703988790940824
3953.82,0.4558458396221691
3954.72,0.4620955923838292
3955.62,0.4641581287975086
3956.52,0.46529509018350423
3957.42,0.46164481423705844
3958.32,0.4551911213464774
3959.22,0.44410364600186075
3960.12,0.42481793664334755
3961.02,0.3986446839156068
3961.92,0.36972144249963423
3962.82,0.3397152969061817
3963.72,0.3128419509079222
3964.62,0.28730898912388175
3965.52,0.2645682376263058
3966.42,0.23973269212338016
3967.32,0.21884667870265687
3968.22,0.2017453296787677
3969.12,0.19403044197788843
3970.02,0.1962060964040079
3970.92,0.21312207212644016
3971.82,0.24079863493029247
3972.72,0.280050213769997
3973.62,0.3235880847814534
3974.52,0.37222999127855794
3975.42,0.42355262971121377
3976.32,0.472972713708
3977.22,0.5238800906365266
3978.13,0.5732861935574545
3979.03,0.6180845819081404
3979.93,0.6546760852376047
3980.83,0.686746835048333
3981.73,0.707858920534718
3982.63,0.7236600838557101
3983.53,0.7350284188815265
3984.43,0.742729616986752
3985.33,0.7567787186747659
3986.23,0.7711879995005205
3987.13,0.7899874098392284
3988.03,0.8061160530847848
3988.93,0.821967513305791
3989.83,0.8364905428115252
3990.73,0.8490575707726806
3991.63,0.8596777880125894
3992.53,0.8706102909102353
3993.43,0.8784656514851914
3994.33,0.8835923238360057
3995.23,0.8832382744631246
3996.13,0.8808293927235435
3997.03,0.8815516012303325
3997.93,0.883006383870462
3998.83,0.8964220216028909
3999.73,0.9173855199543528
4000.63,0.9461512287890547
4001.53,0.964618306245781
4002.43,0.9819715694307896
4003.33,0.9813536095975071
4004.23,0.9651727934752358
4005.13,0.9418028410337272
4006.03,0.9252134050575664
4006.93,0.9165598278048084
4007.83,0.9175006459684735
4008.73,0.9403213376648356
4009.63,0.9662569306291795
4010.53,0.9928585582265095
4011.43,1.0157112235541896
4012.33,1.0358642578607427
4013.23,1.0481502190604886
4014.13,1.0646897238477535
4015.03,1.0730612512620517
4015.93,1.0784501853503228
4016.84,1.0816889093192301
4017.74,1.084430584815017
4018.64,1.0887278996935372
4019.54,1.0928507473124816
4020.44,1.09798256748368
4021.34,1.0999196093693873
4022.24,1.099696518118757
4023.14,1.0872680794651484
4024.04,1.0830901693022452
4024.94,1.0849172203065507
4025.84,1.0861944278294664
4026.74,1.0932725757503408
4027.64,1.0897417796248443
4028.54,1.0865912340097292
4029.44,1.058209963152613
4030.34,1.0201070380170687
4031.24,0.9696365655319799
4032.14,0.9203694829097359
4033.04,0.8859819439119732
4033.94,0.8668726090508407
4034.84,0.8818370358031594
4035.74,0.9151539387182406
4036.64,0.9691070188955364
4037.54,1.0239193429329585
4038.44,1.071592979206605
4039.34,1.0998903373954592
4040.24,1.1128698645799835
4041.14,1.1015867079841566
4042.04,1.0760332963486052
4042.94,1.0364675616470311
4043.84,0.9824338366370515
4044.74,0.9213159035924289
4045.64,0.8748167588072817
4046.54,0.8448395561770479
4047.44,0.8449330384117647
4048.34,0.8857061052891967
4049.24,0.9345368428789552
4050.14,0.9897514157570523
4051.04,1.0411612697257697
4051.94,1.063821395860411
4052.84,1.070614528805207
4053.74,1.0615232115903446
4054.65,1.0366124298676636
4055.55,1.0126519046798976
4056.45,0.9819513299705749
4057.35,0.9645026488534123
4058.25,0.9529286705789088
4059.15,0.9400819147995505
4060.05,0.9360913904058248
4060.95,0.9311660073376019
4061.85,0.9116462547765963
4062.75,0.8877700494694213
4063.65,0.8625217817797506
4064.55,0.8448643553934998
4065.45,0.8459869433249031
4066.35,0.862843287549624
4067.25,0.8865861758018792
4068.15,0.9166393845303358
4069.05,0.9420611305269948
4069.95,0.9520314070168051
4070.85,0.954874536965563
4071.75,0.9466377488000679
4072.65,0.9412288374942442
4073.55,0.9339298307738899
4074.45,0.938660629800361
4075.35,0.9341679329652111
4076.25,0.928690203281283
4077.15,0.9222141933729169
4078.05,0.9260270869024435
4078.95,0.9369321629464096
4079.85,0.9638572873603596
4080.75,1.0020720175147217
4081.65,1.0412249269579927
4082.55,1.0648157471145976
4083.45,1.0787415669665243
4084.35,1.087722237994131
4085.25,1.0986229056636443
4086.15,1.1043883520065345
4087.05,1.1223352005493723
4087.95,1.1473140684167462
4088.85,1.170159133583836
4089.75,1.1862986993587217
4090.65,1.194085052366711
4091.55,1.1837226249808361
4092.45,1.1638852228172918
4093.36,1.136460298893845
4094.26,1.1103483641166223
4095.16,1.0834593954779437
4096.06,1.0515575491261255
4096.96,1.0162751109729833
4097.86,0.9854541954900464
4098.76,0.9548576128806548
4099.66,0.9320552568306907
4100.56,0.9088184834998344
4101.46,0.8948786692407881
4102.36,0.8848996122239645
4103.26,0.8948685357603948
4104.16,0.9174456957719184
4105.06,0.9513863267809427
4105.96,0.9836409707696463
4106.86,1.0125505287941539
4107.76,1.0376060507868723
4108.66,1.04347510188371
4109.56,1.0434775295161636
4110.46,1.043083355614811
4111.36,1.0319698514621203
4112.26,1.0330554772966487
4113.16,1.0433428016193294
4114.06,1.0517953812358654
4114.96,1.065491685477348
4115.86,1.0772168604025933
4116.76,1.0772023482422768
4117.66,1.075804687661882
4118.56,1.0665856984348498
4119.46,1.0517514402648034
4120.36,1.0373306894514422
4121.26,1.036849379063573
4122.16,1.0321875005092946
4123.06,1.0377726771760951
4123.96,1.043296173697743
4124.86,1.0497947497201232
4125.76,1.0540088978024553
4126.66,1.0554397113096132
4127.56,1.0403004156721098
4128.46,1.0269533455072353
4129.36,1.0114153647246484
4130.26,0.9843774056493204
4131.17,0.9593666205481012
4132.06,0.9339157712691403
4132.97,0.9186552317395286
4133.87,0.9168602343920261
4134.77,0.9228877577752325
4135.67,0.9475989611473945
4136.57,0.9809476354133452
4137.47,1.0096525016727278
4138.37,1.0345244631864938
4139.27,1.0481733448192527
4140.17,1.0423025491048894
4141.07,1.024950373545624
4141.97,0.9914837756005077
4142.87,0.9553615566517135
4143.77,0.9227728597420539
4144.67,0.901869402690583
4145.57,0.8988822475839762
4146.47,0.9096611963926785
4147.37,0.9343433529324557
4148.27,0.9483486013834057
4149.17,0.9587129022598205
4150.07,0.9632693068462972
4150.97,0.9571515832061798
4151.87,0.9539874397933715
4152.77,0.9410912381064352
4153.67,0.934226127253121
4154.57,0.9254332044067236
4155.47,0.9290848082737699
4156.37,0.9366047664763373
4157.27,0.9465605491414715
4158.17,0.9638689524119192
4159.07,0.9874024068073686
4159.97,1.013069596563176
4160.87,1.0406448802672046
4161.77,1.0623594285833518
4162.67,1.075013597845975
4163.57,1.0803415746566298
4164.47,1.0807455949059734
4165.37,1.0671398836123362
4166.27,1.0538517464303612
4167.17,1.0297191984491372
4168.07,1.025900842749205
4168.98,1.0075591202273046
4169.88,1.0019403774988405
4170.78,0.9889359442536191
4171.68,0.9737164632496746
4172.58,0.958635780107962
4173.48,0.9399563576129234
4174.38,0.9209834765107153
4175.28,0.9118801020312275
4176.18,0.9157870760319661
4177.08,0.9239773028529563
4177.98,0.9330161079080119
4178.88,0.9443754889940695
4179.78,0.9505823272403948
4180.68,0.964287978625813
4181.58,0.9701715164421936
4182.48,0.9755300570437089
4183.38,0.9827244509686723
4184.28,0.9968783424598217
4185.18,1.0047519731315822
4186.08,1.0059206013362285
4186.98,0.9993246357577878
4187.88,0.9999796750844695
4188.78,0.9989070866898209
4189.68,0.9998360554394804
4190.58,1.0129167429274593
4191.48,1.0268066017560766
4192.38,1.0366677577198062
4193.28,1.0396604500973097
4194.18,1.044857657380197
4195.08,1.024774321600242
4195.98,0.9962345517916775
4196.88,0.9697789808810209
4197.78,0.9418432728442253
4198.68,0.9177273363521743
4199.58,0.9041543637973536
4200.48,0.8975483365317073
4201.38,0.9002912534025355
4202.28,0.9156062034212417
4203.18,0.9358637409072194
4204.08,0.9655832546870088
4204.98,1.0004207162838394
4205.88,1.0369107481144653
4206.79,1.0685814407644791
4207.69,1.0947709606970835
4208.59,1.108960693287756
4209.49,1.1184866361852568
4210.39,1.1166524590568283
4211.29,1.104582887000656
4212.19,1.0945624080509464
4213.09,1.080431882851092
4213.99,1.0574235885839072
4214.89,1.0412380912960104
4215.79,1.034745210400352
4216.69,1.0371006112548526
4217.59,1.0593443299180967
4218.49,1.0859576049115853
4219.39,1.1145225509589856
4220.29,1.133363784985552
4221.19,1.1345274363570774
4222.09,1.1101098135198653
4222.99,1.06481765246162
4223.89,0.996288389643512
4224.79,0.9257488991260344
4225.69,0.8468179784967723
4226.59,0.7913346121330866
4227.49,0.7647846727184534
4228.39,0.772171737523815
4229.29,0.8169324869019886
4230.19,0.877791368955149
4231.09,0.9415000995491134
4231.99,0.996653301158077
4232.89,1.0290136597804878
4233.79,1.0394489460420262
4234.69,1.0408847284354743
4235.59,1.0344463546969904
4236.49,1.017260382046281
4237.39,1.0181639447075477
4238.29,1.0206473187325624
4239.19,1.0384080974559529
4240.09,1.0632199281445829
4240.99,1.089463405214335
4241.89,1.1204378760160696
4242.79,1.1506612286212834
4243.69,1.1837454596943806
4244.59,1.2006132519770825
4245.5,1.2058334219333455
4246.4,1.1988499077476382
4247.3,1.173431567813587
4248.2,1.13118333419519
4249.1,1.0912045413488598
4250.0,1.045660070969915
4250.9,1.0148014745273197
4251.8,0.9891442966019435
4252.7,0.9780426851696257
4253.6,0.976824860068528
4254.5,0.9854026876303494
4255.4,0.9973976222317199
4256.3,1.0066153446032984
4257.2,1.0153534178912458
4258.1,1.0255308515522994
4259.0,1.0247220591323463
4259.9,1.015391810131145
4260.8,1.0086410993651638
4261.7,1.0165508925765645
4262.6,1.0446408217333674
4263.5,1.0776107314310792
4264.4,1.122176082632324
4265.3,1.1562843496782977
4266.2,1.174687216833002
4267.1,1.169634651401779
4268.0,1.1453013271227601
4268.9,1.0968290818088284
4269.8,1.0335040688402959
4270.7,0.9681640455014009
4271.6,0.9043737561419458
4272.5,0.8554566185798159
4273.4,0.8270946559273763
4274.3,0.8276575117667792
4275.2,0.8500622988650602
4276.1,0.8914809478484037
4277.0,0.9404699678422962
4277.9,0.9918688331023022
4278.8,1.0311054103622777
4279.7,1.0585263860158052
4280.6,1.0680069927867597
4281.5,1.0704485536217299
4282.4,1.0696908462718837
4283.31,1.0601642586305755
4284.21,1.0511656680302082
4285.11,1.035155693014713
4286.01,1.0213225820160057
4286.91,1.00021356227431
4287.81,0.9791733498789297
4288.71,0.9511969656832806
4289.61,0.9263229152147856
4290.51,0.9059489107387942
4291.41,0.9017290937214895
4292.31,0.9053515988959185
4293.21,0.9223126942565759
4294.11,0.9326557475557276
4295.01,0.9433559408868479
4295.91,0.9376841814978599
4296.81,0.9148694452361016
4297.71,0.8871490935690313
4298.61,0.8479910214145788
4299.51,0.8041696501493405
4300.41,0.762407056433206
4301.31,0.7355262668776826
4302.21,0.7164681297940985
4303.11,0.70722662632517
4304.01,0.7029631521203513
4304.91,0.6969591919995944
4305.81,0.6878166190558916
4306.71,0.6771859236811028
4307.61,0.6602193511774955
4308.51,0.6496418931306543
4309.41,0.6506654924760658
4310.31,0.6677566986282968
4311.21,0.7022219727656399
4312.11,0.750768777621503
4313.01,0.8142846033033391
4313.91,0.8859369743418517
4314.81,0.9653435664355725
4315.71,1.0452292182831318
4316.61,1.1246180312623015
4317.51,1.1823171710245606
4318.41,1.226501438552114
4319.31,1.2379742085242926
4320.21,1.2382667809032257
4321.12,1.2104587755235874
4322.02,1.1617992590042303
4322.92,1.0996328695083053
4323.82,1.02954875826579
4324.72,0.9658053511095469
4325.62,0.9285768546129685
4326.52,0.9105273419385839
4327.42,0.9287449400418294
4328.32,0.9712381148924699
4329.22,1.032818531844816
4330.12,1.093585342844581
4331.02,1.1417310836479988
4331.92,1.1904745952507911
4332.82,1.2077500047937406
4333.72,1.2213402818691943
4334.62,1.2250304470275777
4335.52,1.2033567615438252
4336.42,1.1739014274135418
4337.32,1.1244036260896924
4338.22,1.0717455587993243
4339.12,1.0203621898767867
4340.02,0.9765157907024948
4340.92,0.9501792380905896
4341.82,0.9544703477473161
4342.72,0.9716911851080879
4343.62,1.003269268915307
4344.52,1.0404658119600667
4345.42,1.0779680072708955
4346.32,1.1145976528988106
4347.22,1.1328335757674561
4348.12,1.1530286173205484
4349.02,1.15995219545782
4349.92,1.1498513609286491
4350.82,1.1253600935862658
4351.72,1.0954455776944405
4352.62,1.0646818307417556
4353.52,1.04367524236481
4354.42,1.0317215764000982
4355.32,1.0396335758501862
4356.22,1.0519114297035599
4357.12,1.0695609615319173
4358.02,1.0868319530569261
