wave,flux
3700.85,-5.639752991311221e-07
3701.75,-5.580499014251548e-07
3702.65,-5.401297193621999e-07
3703.55,-5.177695287421249e-07
3704.45,-4.969734986729856e-07
3705.35,-4.778796517045137e-07
3706.25,-4.6234075377781657e-07
3707.15,-4.6103635779415006e-07
3708.05,-4.623053204349345e-07
3708.96,-4.700802654425401e-07
3709.86,-4.813318450465998e-07
3710.76,-4.912579245439326e-07
3711.66,-5.065871758861216e-07
3712.56,-5.249891163104681e-07
3713.46,-5.450961069242215e-07
3714.36,-5.632135374335614e-07
3715.26,-5.803089522324573e-07
3716.16,-5.867771372539794e-07
3717.06,-5.852698846938468e-07
3717.96,-5.675011317299766e-07
3718.86,-5.4126550043705e-07
3719.76,-5.071375676286148e-07
3720.66,-4.7569255682553197e-07
3721.56,-4.5354592204497963e-07
3722.46,-4.443154736444758e-07
3723.36,-4.573256643378943e-07
3724.26,-4.785389717712755e-07
3725.16,-5.058486156633544e-07
3726.06,-5.295737457506833e-07
3726.96,-5.469706680767354e-07
3727.86,-5.556689992560769e-07
3728.76,-5.605480498416797e-07
3729.66,-5.584175662647353e-07
3730.56,-5.499172501963249e-07
3731.46,-5.313774609728741e-07
3732.36,-5.048053317796593e-07
3733.26,-4.7361832782631033e-07
3734.16,-4.40199789754123e-07
3735.06,-4.1749756252535124e-07
3735.96,-4.07747368741458e-07
3736.86,-4.1404882915284717e-07
3737.76,-4.359752971868151e-07
3738.66,-4.695027225534094e-07
3739.56,-5.07464178560619e-07
3740.46,-5.387599305534795e-07
3741.36,-5.593782046003749e-07
3742.26,-5.673193009011622e-07
3743.16,-5.629936218675139e-07
3744.06,-5.500945805454698e-07
3744.96,-5.29322798396512e-07
3745.86,-5.070925734474509e-07
3746.76,-4.839855855828071e-07
3747.67,-4.5726897302198447e-07
3748.57,-4.3482909896078264e-07
3749.47,-4.240357573369861e-07
3750.37,-4.2629162787305005e-07
3751.27,-4.4342453545022164e-07
3752.17,-4.757268974571554e-07
3753.07,-5.139796997219675e-07
3753.97,-5.542950472112584e-07
3754.87,-5.880484360646651e-07
3755.77,-6.054307532661675e-07
3756.67,-6.078339852115909e-07
3757.57,-6.022643347760963e-07
3758.47,-5.856533758322091e-07
3759.37,-5.709322796475752e-07
3760.27,-5.675459682693198e-07
3761.17,-5.699805837933367e-07
3762.07,-5.78619938074316e-07
3762.97,-5.879262982789948e-07
3763.87,-5.969937775870918e-07
3764.77,-6.015631599781874e-07
3765.67,-5.9912166359037e-07
3766.57,-5.959359035239986e-07
3767.47,-5.836345149186251e-07
3768.37,-5.713105609535662e-07
3769.27,-5.566825184460581e-07
3770.17,-5.510191736261627e-07
3771.07,-5.483165403891814e-07
3771.97,-5.589343411555152e-07
3772.87,-5.745225093592526e-07
3773.77,-5.978160003249409e-07
3774.67,-6.204917092933987e-07
3775.57,-6.394196976711049e-07
3776.47,-6.546472153436985e-07
3777.37,-6.718569231546953e-07
3778.27,-6.846944193191509e-07
3779.17,-7.038337829579297e-07
3780.07,-7.160883128694092e-07
3780.97,-7.329525443920063e-07
3781.87,-7.435795702234083e-07
3782.77,-7.494845272832332e-07
3783.67,-7.490632263331917e-07
3784.57,-7.415744838919517e-07
3785.47,-7.286513130997209e-07
3786.38,-7.113595761704868e-07
3787.28,-6.922573447826974e-07
3788.18,-6.748058330192303e-07
3789.08,-6.581659109113044e-07
3789.98,-6.518031203741007e-07
3790.88,-6.498291550210259e-07
3791.78,-6.402668210746102e-07
3792.68,-6.322341771864412e-07
3793.58,-6.179619298941827e-07
3794.48,-5.991588719726069e-07
3795.38,-5.744074220125722e-07
3796.28,-5.520428338692789e-07
3797.18,-5.310744414091349e-07
3798.08,-5.161737593426115e-07
3798.98,-5.155258469296303e-07
3799.88,-5.308753271993748e-07
3800.78,-5.616770627263982e-07
3801.68,-6.014323068135915e-07
3802.58,-6.423210741257179e-07
3803.48,-6.767310510049044e-07
3804.38,-7.055307988676021e-07
3805.28,-7.224655811375721e-07
3806.18,-7.313506295914303e-07
3807.08,-7.372296978012591e-07
3807.98,-7.374852571492086e-07
3808.88,-7.437061237750969e-07
3809.78,-7.519280855677388e-07
3810.68,-7.55496570413094e-07
3811.58,-7.539822217751922e-07
3812.48,-7.456435346536243e-07
3813.38,-7.282258486863115e-07
3814.28,-7.103283336990268e-07
3815.18,-6.934431073610027e-07
3816.08,-6.831035702489238e-07
3816.98,-6.781008380594551e-07
3817.88,-6.788388736615512e-07
3818.78,-6.804771235816924e-07
3819.68,-6.753969557643509e-07
3820.58,-6.680847321921954e-07
3821.48,-6.616604975703013e-07
3822.38,-6.567585143940537e-07
3823.28,-6.497090587756712e-07
3824.18,-6.378538091957482e-07
3825.09,-6.243536912384369e-07
3825.99,-6.087082363886969e-07
3826.89,-5.933058087724063e-07
3827.79,-5.838042404883564e-07
3828.69,-5.742546380993904e-07
3829.59,-5.689302299681306e-07
3830.49,-5.572556760712088e-07
3831.39,-5.409138850804309e-07
3832.29,-5.20378323357615e-07
3833.19,-4.956983504174811e-07
3834.09,-4.742610665042697e-07
3834.99,-4.5839145500623946e-07
3835.89,-4.498739633720916e-07
3836.79,-4.507132615502082e-07
3837.69,-4.588876932174258e-07
3838.59,-4.7417272486039076e-07
3839.49,-4.943224546809199e-07
3840.39,-5.244674287390772e-07
3841.29,-5.577036633667472e-07
3842.19,-5.951754309945269e-07
3843.09,-6.356652647806937e-07
3843.99,-6.694322313582219e-07
3844.89,-6.989511482757184e-07
3845.79,-7.21406465815611e-07
3846.69,-7.40541061239977e-07
3847.59,-7.465916255220831e-07
3848.49,-7.568546396798564e-07
3849.39,-7.565290146350623e-07
3850.29,-7.625475696006869e-07
3851.19,-7.648899419061124e-07
3852.09,-7.685695213109577e-07
3852.99,-7.693377896297451e-07
3853.89,-7.738660062344784e-07
3854.79,-7.728049324979691e-07
3855.69,-7.645829622241296e-07
3856.59,-7.500526056914049e-07
3857.49,-7.381453905277929e-07
3858.39,-7.213782855135939e-07
3859.29,-7.146698063753545e-07
3860.19,-7.108563368315947e-07
3861.09,-7.154226550933918e-07
3861.99,-7.36097776346317e-07
3862.9,-7.580723939187734e-07
3863.8,-7.805188185301876e-07
3864.7,-7.936768517917392e-07
3865.6,-8.022368549410694e-07
3866.5,-8.045811439507865e-07
3867.4,-8.038738643629472e-07
3868.3,-8.01430729156778e-07
3869.2,-7.95132642978765e-07
3870.1,-7.85853345107164e-07
3871.0,-7.680203780681092e-07
3871.9,-7.513880961237626e-07
3872.8,-7.373534829445308e-07
3873.7,-7.286501803379179e-07
3874.6,-7.297354305753678e-07
3875.5,-7.373967400088728e-07
3876.4,-7.385864720179566e-07
3877.3,-7.368186706012396e-07
3878.2,-7.326902696106984e-07
3879.1,-7.280755658755713e-07
3880.0,-7.207396539238648e-07
3880.9,-7.215018345861892e-07
3881.8,-7.201231457441378e-07
3882.7,-7.176855327498994e-07
3883.6,-7.083572766392689e-07
3884.5,-6.93914385979493e-07
3885.4,-6.69401499526496e-07
3886.3,-6.417918136550622e-07
3887.2,-6.150627584849031e-07
3888.1,-5.917586443910601e-07
3889.0,-5.765587073365094e-07
3889.9,-5.7564229251314e-07
3890.8,-5.905010293049868e-07
3891.7,-6.161085923688662e-07
3892.6,-6.470967142537321e-07
3893.5,-6.740005588113876e-07
3894.4,-7.005004885002361e-07
3895.3,-7.205987096160709e-07
3896.2,-7.354777875546859e-07
3897.1,-7.495071857477733e-07
3898.0,-7.595640809880443e-07
3898.9,-7.670689059278975e-07
3899.8,-7.783972394769938e-07
3900.7,-7.854761399816193e-07
3901.6,-7.877391126314766e-07
3902.51,-7.87042214921178e-07
3903.41,-7.889502545546886e-07
3904.31,-7.87785936357988e-07
3905.21,-7.799385038348572e-07
3906.11,-7.790575699441209e-07
3907.01,-7.877544237046535e-07
3907.91,-7.994880774212416e-07
3908.81,-8.141683820056101e-07
3909.71,-8.39863970238083e-07
3910.61,-8.571766698455732e-07
3911.51,-8.709612446796314e-07
3912.41,-8.775787198500948e-07
3913.31,-8.823256512439313e-07
3914.21,-8.787844847330542e-07
3915.11,-8.727217388897649e-07
3916.01,-8.619116814140206e-07
3916.91,-8.515449183807645e-07
3917.81,-8.375088197523196e-07
3918.71,-8.278293541602827e-07
3919.61,-8.122812961154664e-07
3920.51,-8.010952360159304e-07
3921.41,-7.923186854794905e-07
3922.31,-7.841585082296955e-07
3923.21,-7.797525402294157e-07
3924.11,-7.700281922464564e-07
3925.01,-7.556390761414486e-07
3925.91,-7.391817279961636e-07
3926.81,-7.035717715112936e-07
3927.71,-6.627663999326093e-07
3928.61,-6.107121074222268e-07
3929.51,-5.509370689004576e-07
3930.41,-4.861087650403279e-07
3931.31,-4.229419961587006e-07
3932.21,-3.672001065396507e-07
3933.11,-3.2006022012958437e-07
3934.01,-2.9155688664225043e-07
3934.91,-2.873315131928596e-07
3935.81,-3.0718191383954876e-07
3936.71,-3.488581133564902e-07
3937.61,-4.047915362259343e-07
3938.51,-4.69744393732912e-07
3939.42,-5.352653020125496e-07
3940.32,-5.954700269176432e-07
3941.22,-6.465072123890088e-07
3942.12,-6.827028782755501e-07
3943.02,-7.121887287102561e-07
3943.92,-7.386614491967875e-07
3944.82,-7.590416682069986e-07
3945.72,-7.821576504505704e-07
3946.62,-8.031628672808471e-07
3947.52,-8.254387617397266e-07
3948.42,-8.392622625182785e-07
3949.32,-8.495116675066061e-07
3950.22,-8.617012659350347e-07
3951.12,-8.701008579777918e-07
3952.02,-8.779312177046253e-07
3952.92,-8.838487433467624e-07
3953.82,-8.875724894143483e-07
3954.72,-8.894410023140736e-07
3955.62,-8.845835735820929e-07
3956.52,-8.827558522828385e-07
3957.42,-8.76326029234211e-07
3958.32,-8.672881715238702e-07
3959.22,-8.555310204613374e-07
3960.12,-8.348410809046968e-07
3961.02,-8.054013653954726e-07
3961.92,-7.671872042432296e-07
3962.82,-7.233724807954432e-07
3963.72,-6.703918258410033e-07
3964.62,-6.155691949139639e-07
3965.52,-5.522052500800937e-07
3966.42,-4.904314801439933e-07
3967.32,-4.272833287372578e-07
3968.22,-3.761834189924808e-07
3969.12,-3.4330803019240266e-07
3970.02,-3.347761226142149e-07
3970.92,-3.538614708445931e-07
3971.82,-3.933983219401418e-07
3972.72,-4.51487812239369e-07
3973.62,-5.186532432465784e-07
3974.52,-5.898167613422797e-07
3975.42,-6.535047782914238e-07
3976.32,-7.153379850732019e-07
3977.22,-7.68498871436993e-07
3978.13,-8.164688942039994e-07
3979.03,-8.582263462621223e-07
3979.93,-8.928058899928947e-07
3980.83,-9.196556282323685e-07
3981.73,-9.330439395748712e-07
3982.63,-9.469183933541215e-07
3983.53,-9.533925485838401e-07
3984.43,-9.586691069135367e-07
3985.33,-9.694370559794941e-07
3986.23,-9.82148822375843e-07
3987.13,-9.926727285381732e-07
3988.03,-1.0041083530206881e-06
3988.93,-1.0146716193938458e-06
3989.83,-1.028115534238538e-06
3990.73,-1.0357129052895686e-06
3991.63,-1.043538959898473e-06
3992.53,-1.0518095440567209e-06
3993.43,-1.0515502644717593e-06
3994.33,-1.0525115948071665e-06
3995.23,-1.0468553960465094e-06
3996.13,-1.0368671403506045e-06
3997.03,-1.029742307034521e-06
3997.93,-1.0291324648365925e-06
3998.83,-1.030939934744418e-06
3999.73,-1.041279557792398e-06
4000.63,-1.0549301113583865e-06
4001.53,-1.067917862412517e-06
4002.43,-1.0793710171691038e-06
4003.33,-1.0811586161861214e-06
4004.23,-1.07692076351773e-06
4005.13,-1.061188028698562e-06
4006.03,-1.0537926623775751e-06
4006.93,-1.0495507922702964e-06
4007.83,-1.0553608788767753e-06
4008.73,-1.06315156061765e-06
4009.63,-1.0771649734621589e-06
4010.53,-1.0965049641222546e-06
4011.43,-1.1073187042094436e-06
4012.33,-1.1133176379026315e-06
4013.23,-1.1178607776634888e-06
4014.13,-1.12072377628189e-06
4015.03,-1.1242158545020503e-06
4015.93,-1.1249195966798402e-06
4016.84,-1.1277702596897398e-06
4017.74,-1.1319765638693668e-06
4018.64,-1.1338671901853378e-06
4019.54,-1.1356129874312346e-06
4020.44,-1.1427917353725794e-06
4021.34,-1.1466924209238986e-06
4022.24,-1.145862165873789e-06
4023.14,-1.1436587437693212e-06
4024.04,-1.1461227445426521e-06
4024.94,-1.1471430151105525e-06
4025.84,-1.1506537182395622e-06
4026.74,-1.1669634293969842e-06
4027.64,-1.1684879941294313e-06
4028.54,-1.1613702159588157e-06
4029.44,-1.159869692465297e-06
4030.34,-1.1410435536132263e-06
4031.24,-1.1180701578373918e-06
4032.14,-1.0960618767584078e-06
4033.04,-1.086739916573944e-06
4033.94,-1.0875549860772784e-06
4034.84,-1.1019496796354283e-06
4035.74,-1.1179856505385918e-06
4036.64,-1.148107385724011e-06
4037.54,-1.1685052046949805e-06
4038.44,-1.1925184516406901e-06
4039.34,-1.204252045468008e-06
4040.24,-1.2086505579029486e-06
4041.14,-1.1994997619048933e-06
4042.04,-1.1921827012050186e-06
4042.94,-1.1694896025104851e-06
4043.84,-1.1488350507701901e-06
4044.74,-1.1257897343108432e-06
4045.64,-1.1092637279259526e-06
4046.54,-1.0979085452682552e-06
4047.44,-1.101395473929333e-06
4048.34,-1.1196531254566619e-06
4049.24,-1.1495625557191456e-06
4050.14,-1.1711026042758947e-06
4051.04,-1.1915764632147263e-06
4051.94,-1.196923380083247e-06
4052.84,-1.1976912919774022e-06
4053.74,-1.1883555914596796e-06
4054.65,-1.181925276346711e-06
4055.55,-1.1776548308889833e-06
4056.45,-1.1678863287961595e-06
4057.35,-1.1590587092576135e-06
4058.25,-1.1668657294038842e-06
4059.15,-1.1732626021152587e-06
4060.05,-1.1708084757605348e-06
4060.95,-1.1704315232515188e-06
4061.85,-1.166810027996398e-06
4062.75,-1.1565725985396858e-06
4063.65,-1.1402803385651967e-06
4064.55,-1.1371200839511663e-06
4065.45,-1.126589321641119e-06
4066.35,-1.1329124036706866e-06
4067.25,-1.143168730833965e-06
4068.15,-1.165415325919197e-06
4069.05,-1.1791837186727782e-06
4069.95,-1.183631520238076e-06
4070.85,-1.1887886905394486e-06
4071.75,-1.1881022274702795e-06
4072.65,-1.184093823447393e-06
4073.55,-1.1769493253030174e-06
4074.45,-1.1729989216918491e-06
4075.35,-1.1551350020188783e-06
4076.25,-1.145939635632063e-06
4077.15,-1.1273853850796935e-06
4078.05,-1.1156296193078564e-06
4078.95,-1.1173766179645377e-06
4079.85,-1.1280999644514407e-06
4080.75,-1.1512926181617894e-06
4081.65,-1.1733462642953343e-06
4082.55,-1.1874681788584764e-06
4083.45,-1.1995224639570902e-06
4084.35,-1.2146840703686103e-06
4085.25,-1.2185520381255211e-06
4086.15,-1.22155482483393e-06
4087.05,-1.2357082561016691e-06
4087.95,-1.2542952326893724e-06
4088.85,-1.2716853312727307e-06
4089.75,-1.2811920040427137e-06
4090.65,-1.2896808853644939e-06
4091.55,-1.2870252933755275e-06
4092.45,-1.276982883276721e-06
4093.36,-1.264337920326377e-06
4094.26,-1.2513339057387398e-06
4095.16,-1.2339823773817767e-06
4096.06,-1.202257898218667e-06
4096.96,-1.1776470401995776e-06
4097.86,-1.138982463621462e-06
4098.76,-1.0990368739565524e-06
4099.66,-1.0554746175440565e-06
4100.56,-1.010015824518177e-06
4101.46,-9.746600523867947e-07
4102.36,-9.520982689817764e-07
4103.26,-9.537907518846458e-07
4104.16,-9.756064111074329e-07
4105.06,-1.0172399763714307e-06
4105.96,-1.061787511939149e-06
4106.86,-1.1033008699523568e-06
4107.76,-1.1445291901232581e-06
4108.66,-1.1769456040324913e-06
4109.56,-1.1931685778869239e-06
4110.46,-1.2112121346790607e-06
4111.36,-1.2216348779957468e-06
4112.26,-1.2355414615099446e-06
4113.16,-1.2516365152801627e-06
4114.06,-1.2620039152210085e-06
4114.96,-1.28469468395667e-06
4115.86,-1.2921257018648207e-06
4116.76,-1.2921570059288261e-06
4117.66,-1.295590160737395e-06
4118.56,-1.2895905140278663e-06
4119.46,-1.2822637181959372e-06
4120.36,-1.2767719275330447e-06
4121.26,-1.2784709892853633e-06
4122.16,-1.2819439034223637e-06
4123.06,-1.2840617926618294e-06
4123.96,-1.284903235178204e-06
4124.86,-1.2898358750095456e-06
4125.76,-1.2966796900862428e-06
4126.66,-1.302707927808198e-06
4127.56,-1.3021166306069776e-06
4128.46,-1.2958818922120559e-06
4129.36,-1.28647840109327e-06
4130.26,-1.2762243085925311e-06
4131.17,-1.271204847139695e-06
4132.06,-1.2593175371588192e-06
4132.97,-1.2567705993386323e-06
4133.87,-1.2551636774523225e-06
4134.77,-1.264286416813994e-06
4135.67,-1.2689109736399422e-06
4136.57,-1.291914667092685e-06
4137.47,-1.3148368120769038e-06
4138.37,-1.3402767466183783e-06
4139.27,-1.352251021270007e-06
4140.17,-1.3542489608834215e-06
4141.07,-1.3467037726751063e-06
4141.97,-1.3324497782328162e-06
4142.87,-1.3109616251152471e-06
4143.77,-1.295039810313567e-06
4144.67,-1.2882471034908203e-06
4145.57,-1.2883284031130309e-06
4146.47,-1.30105693084784e-06
4147.37,-1.3128355955268117e-06
4148.27,-1.326628470390885e-06
4149.17,-1.3391746684834367e-06
4150.07,-1.3387494191495195e-06
4150.97,-1.3418930996726018e-06
4151.87,-1.3395528412859217e-06
4152.77,-1.3307328223336106e-06
4153.67,-1.3284175693203739e-06
4154.57,-1.3217010331178225e-06
4155.47,-1.325222779082615e-06
4156.37,-1.325415100338887e-06
4157.27,-1.3291166272580289e-06
4158.17,-1.3429358648224156e-06
4159.07,-1.3492760299523423e-06
4159.97,-1.3700519664583152e-06
4160.87,-1.3747533817287405e-06
4161.77,-1.3940017860971592e-06
4162.67,-1.4037285283131065e-06
4163.57,-1.4054138717230387e-06
4164.47,-1.4095173822575776e-06
4165.37,-1.4091799559476315e-06
4166.27,-1.4068955852946463e-06
4167.17,-1.3989373561346584e-06
4168.07,-1.3912222119678043e-06
4168.98,-1.3800808725823055e-06
4169.88,-1.3691181795905439e-06
4170.78,-1.3481848363084683e-06
4171.68,-1.3322966850343557e-06
4172.58,-1.310369432192084e-06
4173.48,-1.2975474508031042e-06
4174.38,-1.2881881342844038e-06
4175.28,-1.2878460664205034e-06
4176.18,-1.298164873267715e-06
4177.08,-1.3141895730345664e-06
4177.98,-1.3273551282708342e-06
4178.88,-1.3356807246037445e-06
4179.78,-1.3481896187440137e-06
4180.68,-1.3574724891911014e-06
4181.58,-1.3653220464040866e-06
4182.48,-1.370413937353589e-06
4183.38,-1.3772766980059776e-06
4184.28,-1.380801173802408e-06
4185.18,-1.3777115586764252e-06
4186.08,-1.3804461278479406e-06
4186.98,-1.3723509315605047e-06
4187.88,-1.3755703830680128e-06
4188.78,-1.3694460372472004e-06
4189.68,-1.3796745648145623e-06
4190.58,-1.3860598200995275e-06
4191.48,-1.3922789095448629e-06
4192.38,-1.4088297078715478e-06
4193.28,-1.4193118261508013e-06
4194.18,-1.4193835694831045e-06
4195.08,-1.4134756333921228e-06
4195.98,-1.4045625299550449e-06
4196.88,-1.3916070813740132e-06
4197.78,-1.3658261872655725e-06
4198.68,-1.3473393236430848e-06
4199.58,-1.3408764342894909e-06
4200.48,-1.3333673120068758e-06
4201.38,-1.332491637675572e-06
4202.28,-1.3372798097321857e-06
4203.18,-1.3511701009045093e-06
4204.08,-1.3561645548919217e-06
4204.98,-1.3727605533456002e-06
4205.88,-1.3904270367564748e-06
4206.79,-1.4052957196849673e-06
4207.69,-1.4143864198024696e-06
4208.59,-1.4340009554639944e-06
4209.49,-1.4479868158102055e-06
4210.39,-1.4531506457300868e-06
4211.29,-1.4591866794331163e-06
4212.19,-1.46032297010673e-06
4213.09,-1.452312029432968e-06
4213.99,-1.4492955156317229e-06
4214.89,-1.4320430771554425e-06
4215.79,-1.4215570003391625e-06
4216.69,-1.4156641713498363e-06
4217.59,-1.411999801816049e-06
4218.49,-1.4265961492393969e-06
4219.39,-1.4388372136233437e-06
4220.29,-1.452065059096039e-06
4221.19,-1.4581539492537122e-06
4222.09,-1.455519456568062e-06
4222.99,-1.4342418696714946e-06
4223.89,-1.3947719787493734e-06
4224.79,-1.3550375995287015e-06
4225.69,-1.317253455600359e-06
4226.59,-1.2808710839605723e-06
4227.49,-1.2689720459954274e-06
4228.39,-1.2810281094453302e-06
4229.29,-1.3087237536179647e-06
4230.19,-1.3504824061646439e-06
4231.09,-1.390559207138186e-06
4231.99,-1.4218377248018701e-06
4232.89,-1.4342884414099562e-06
4233.79,-1.4428974906454732e-06
4234.69,-1.4358587407871733e-06
4235.59,-1.4304846935391813e-06
4236.49,-1.4207544866199903e-06
4237.39,-1.4135286225680594e-06
4238.29,-1.4172865512659e-06
4239.19,-1.4271886344891655e-06
4240.09,-1.4395951584128226e-06
4240.99,-1.4568140455125456e-06
4241.89,-1.4717166429341313e-06
4242.79,-1.4796858808351264e-06
4243.69,-1.4936502009198038e-06
4244.59,-1.493736303723053e-06
4245.5,-1.48525060893128e-06
4246.4,-1.4790915303956026e-06
4247.3,-1.4706022315215513e-06
4248.2,-1.4503104667071183e-06
4249.1,-1.4406358161595193e-06
4250.0,-1.4384331268106655e-06
4250.9,-1.4290095509631928e-06
4251.8,-1.440948443680048e-06
4252.7,-1.451293020299622e-06
4253.6,-1.4589433504573385e-06
4254.5,-1.4707543804594079e-06
4255.4,-1.4767198847556026e-06
4256.3,-1.4839856500122495e-06
4257.2,-1.4852414862707866e-06
4258.1,-1.485876574763095e-06
4259.0,-1.4715666372977065e-06
4259.9,-1.4724745291990654e-06
4260.8,-1.462679597672179e-06
4261.7,-1.4668931659582884e-06
4262.6,-1.4835705272443777e-06
4263.5,-1.4934921921858577e-06
4264.4,-1.5249743195384478e-06
4265.3,-1.5452788181524472e-06
4266.2,-1.5563033193535817e-06
4267.1,-1.5568595618243924e-06
4268.0,-1.5425126350388933e-06
4268.9,-1.5290073039916249e-06
4269.8,-1.4900191857399482e-06
4270.7,-1.4585222280241701e-06
4271.6,-1.4319643766832277e-06
4272.5,-1.4089503761058128e-06
4273.4,-1.3999573755868786e-06
4274.3,-1.4012757734306467e-06
4275.2,-1.4140100255796155e-06
4276.1,-1.441808089939255e-06
