wave,flux
3700.85,-0.018739894128973405
3701.75,-0.018803185955526536
3702.65,-0.018516686076084754
3703.55,-0.01809633793394565
3704.45,-0.01743181073452206
3705.35,-0.01694569940308504
3706.25,-0.01664987448552907
3707.15,-0.016735792788439337
3708.05,-0.01711239890901768
3708.96,-0.017647884286150977
3709.86,-0.018362540129470663
3710.76,-0.019133628471260083
3711.66,-0.020167171158764402
3712.56,-0.021201650939084927
3713.46,-0.022331495965299417
3714.36,-0.0236193435487539
3715.26,-0.02448011351380463
3716.16,-0.025089746237005772
3717.06,-0.02514587348818099
3717.96,-0.024801130596138147
3718.86,-0.023901109643787083
3719.76,-0.022658020570943398
3720.66,-0.02166983385556644
3721.56,-0.020818557025964184
3722.46,-0.020954495377395382
3723.36,-0.02189438803695051
3724.26,-0.02341240662088998
3725.16,-0.02506065173016447
3726.06,-0.026844751841831604
3726.96,-0.02794766907276821
3727.86,-0.0288589592104132
3728.76,-0.029442317911271245
3729.66,-0.02978766725085433
3730.56,-0.02988005007963724
3731.46,-0.029325576227256026
3732.36,-0.028441730955186283
3733.26,-0.02700869941701368
3734.16,-0.025752772099507857
3735.06,-0.02466842486306895
3735.96,-0.024332841878460135
3736.86,-0.025053640144823325
3737.76,-0.026739416039590593
3738.66,-0.0293295419811062
3739.56,-0.03208298393309609
3740.46,-0.03465751126284251
3741.36,-0.03660863718660823
3742.26,-0.037938614299831024
3743.16,-0.03808337183898103
3744.06,-0.037921073485902526
3744.96,-0.03697894882048887
3745.86,-0.03573817203105461
3746.76,-0.03478054567891539
3747.67,-0.03370349167262387
3748.57,-0.03287474612653538
3749.47,-0.03257098263318712
3750.37,-0.033529889861540166
3751.27,-0.03580702691225003
3752.17,-0.03940934884320946
3753.07,-0.043426105111984595
3753.97,-0.04755543941705721
3754.87,-0.051025674712511564
3755.77,-0.053618167447910495
3756.67,-0.05435237813206267
3757.57,-0.054415101036281235
3758.47,-0.05368902798862408
3759.37,-0.05338470918730732
3760.27,-0.05365944188359712
3761.17,-0.05508899383799229
3762.07,-0.056881550047044725
3762.97,-0.05935488298939998
3763.87,-0.06158882419574332
3764.77,-0.06310771758723913
3765.67,-0.06430596629032732
3766.57,-0.0652993416484393
3767.47,-0.06566128572906317
3768.37,-0.06603782805581379
3769.27,-0.06613944799564875
3770.17,-0.06720319324512876
3771.07,-0.06890057365517675
3771.97,-0.0713314769730911
3772.87,-0.0752113991255782
3773.77,-0.07919233715998825
3774.67,-0.08323604009452004
3775.57,-0.08727080781123714
3776.47,-0.09102243174076306
3777.37,-0.09441224132610089
3778.27,-0.09867432830199685
3779.17,-0.10278993855475876
3780.07,-0.10704624471765715
3780.97,-0.11131877268288548
3781.87,-0.11505917679303375
3782.77,-0.11857042015448564
3783.67,-0.12138730615044226
3784.57,-0.122449296880634
3785.47,-0.12260426995148198
3786.38,-0.12214068206495421
3787.28,-0.12164012759019466
3788.18,-0.1212738617944032
3789.08,-0.12185008535852837
3789.98,-0.12278403751833322
3790.88,-0.12560627347780298
3791.78,-0.1273887970965374
3792.68,-0.1289207338171274
3793.58,-0.12955782521094142
3794.48,-0.12924220736656797
3795.38,-0.1275747558851972
3796.28,-0.12515742801259896
3797.18,-0.12433774510561894
3798.08,-0.12467442692229215
3798.98,-0.12810391877483077
3799.88,-0.1347885718571065
3800.78,-0.14591699107934297
3801.68,-0.15871137243742245
3802.58,-0.17371688777792973
3803.48,-0.1877536266594805
3804.38,-0.19998954274598582
3805.28,-0.21005914212923096
3806.18,-0.21677480461119775
3807.08,-0.22337149748932453
3807.98,-0.2302177708681514
3808.88,-0.23741506457170924
3809.78,-0.24568322465953488
3810.68,-0.2531061463915241
3811.58,-0.2595492882698818
3812.48,-0.26234661863356373
3813.38,-0.26289995258082866
3814.28,-0.26209152526562474
3815.18,-0.2632962782669757
3816.08,-0.2661833848281368
3816.98,-0.27259226710474854
3817.88,-0.28190396784840593
3818.78,-0.28918910081522714
3819.68,-0.2956554430387603
3820.58,-0.302109916566361
3821.48,-0.3085188343659324
3822.38,-0.315925012510548
3823.28,-0.32342650987563737
3824.18,-0.32961061103271544
3825.09,-0.3346380575636106
3825.99,-0.33698189592582245
3826.89,-0.3420966625531878
3827.79,-0.34808175506764066
3828.69,-0.35803266710808124
3829.59,-0.3683781331610114
3830.49,-0.3768175806510152
3831.39,-0.3811452717907113
3832.29,-0.3843472195443395
3833.19,-0.3835582341334299
3834.09,-0.38483297382918275
3834.99,-0.3925755234420429
3835.89,-0.40420720864419735
3836.79,-0.4255502553949337
3837.69,-0.4540987404278615
3838.59,-0.48877086818776044
3839.49,-0.5341160487499308
3840.39,-0.5918672302823208
3841.29,-0.6643716221329266
3842.19,-0.7492522285515401
3843.09,-0.8470629130894498
3843.99,-0.9501133782419114
3844.89,-1.054586376632695
3845.79,-1.1623729105411857
3846.69,-1.2765695954616405
3847.59,-1.3846446311834455
3848.49,-1.5073909393283376
3849.39,-1.627548212628666
3850.29,-1.783016318509766
3851.19,-1.9489647664299414
3852.09,-2.176287922467086
3852.99,-2.4215535199001335
3853.89,-2.717691694672911
3854.79,-3.098152817243537
3855.69,-3.5412904024976086
3856.59,-4.104720516668674
3857.49,-4.8814526124023825
3858.39,-6.0536426134963515
3859.29,-8.13763883307875
3860.19,-12.689134695199247
3861.09,-28.39434976240304
3861.99,151.65922491503167
3862.9,22.11433268786748
3863.8,12.425554736833865
3864.7,8.784181009801651
3865.6,6.833562282657465
3866.5,5.6103338739512285
3867.4,4.756337718019214
3868.3,4.110081171423881
3869.2,3.6229553116647812
3870.1,3.1955830368852993
3871.0,2.861366256399005
3871.9,2.565578637525297
3872.8,2.3351873950359625
3873.7,2.1623807084478384
3874.6,2.0344307393286005
3875.5,1.941797316399419
3876.4,1.845038698592089
3877.3,1.760429712286775
3878.2,1.6695678626466748
3879.1,1.5898802686849864
3880.0,1.5276989596540822
3880.9,1.4782797707451432
3881.8,1.4249294057255077
3882.7,1.3660348666363415
3883.6,1.3178875340494864
3884.5,1.2498784449124705
3885.4,1.180603253837455
3886.3,1.1096464090926905
3887.2,1.0368031130821391
3888.1,0.9757139188627496
3889.0,0.9380127833956804
3889.9,0.9216379185831659
3890.8,0.9270137453112753
3891.7,0.9455869960558558
3892.6,0.9671131784531898
3893.5,0.9864829521301383
3894.4,1.0011643443764016
3895.3,1.0067921964574331
3896.2,1.0056701662977243
3897.1,1.0059234584613694
3898.0,1.0041616078395676
3898.9,0.9985832748433532
3899.8,0.9873380814409078
3900.7,0.9888919088928908
3901.6,0.9712965246857337
3902.51,0.9621168726044669
3903.41,0.9472793770077077
3904.31,0.9334442367116156
3905.21,0.9134445667717165
3906.11,0.9034309888977057
3907.01,0.904935638023362
3907.91,0.909395216806168
3908.81,0.9244401097370949
3909.71,0.9418174722312266
3910.61,0.9531842560637441
3911.51,0.9638767037968933
3912.41,0.9677617011411699
3913.31,0.9591550583748099
3914.21,0.9461354176834824
3915.11,0.937651383430331
3916.01,0.9199699795673738
3916.91,0.9013376998050944
3917.81,0.8776658434119564
3918.71,0.8607136296502724
3919.61,0.8393863520476184
3920.51,0.8169879939001364
3921.41,0.8020857612516156
3922.31,0.7912327443875471
3923.21,0.775485721271765
3924.11,0.7653138573613314
3925.01,0.7469604935596355
3925.91,0.7211486349532293
3926.81,0.6837492573884684
3927.71,0.6369443368597478
3928.61,0.5777009894561232
3929.51,0.5153035049260793
3930.41,0.4487035685147185
3931.31,0.3854922801737549
3932.21,0.329649257246892
3933.11,0.2850011344149225
3934.01,0.2599938481561887
3934.91,0.2558830459931623
3935.81,0.2742748965848208
3936.71,0.3113007002591908
3937.61,0.365325677252787
3938.51,0.4253453159309579
3939.42,0.4883255090908639
3940.32,0.5443070995695414
3941.22,0.5910252792832968
3942.12,0.6289155352409938
3943.02,0.6607118066792426
3943.92,0.6817299628349586
3944.82,0.7040035193977758
3945.72,0.7242248749202712
3946.62,0.7455000513013451
3947.52,0.7658692258600645
3948.42,0.7822423553386569
3949.32,0.7940107725023683
3950.22,0.8017999866478053
3951.12,0.8137499698891208
3952.02,0.8199745046200566
3952.92,0.8267562874828401
3953.82,0.8292587382899923
3954.72,0.8279470114612973
3955.62,0.8328466957662056
3956.52,0.8252933854067847
3957.42,0.8154666663194474
3958.32,0.8100970478708106
3959.22,0.7947897823811616
3960.12,0.7743731595889812
3961.02,0.7426732528634218
3961.92,0.7104277678887452
3962.82,0.6655994499748635
3963.72,0.6137821218130501
3964.62,0.5573838304353189
3965.52,0.4986025023076187
3966.42,0.4359641059432687
3967.32,0.38071397789458866
3968.22,0.3338381628116751
3969.12,0.3046199119178258
3970.02,0.2996420029537122
3970.92,0.3191730749092769
3971.82,0.35860059200276895
3972.72,0.4151537982836011
3973.62,0.4802250763379262
3974.52,0.5444068875845677
3975.42,0.6099841120256582
3976.32,0.6675662097295556
3977.22,0.7194709814932717
3978.13,0.7613989851217637
3979.03,0.7992819485986731
3979.93,0.8287656103485644
3980.83,0.8536723904835434
3981.73,0.8681859992669044
3982.63,0.874624097623374
3983.53,0.8849659283457024
3984.43,0.8902824283926375
3985.33,0.8977374629217061
3986.23,0.9055653436095125
3987.13,0.9180843394580889
3988.03,0.9291591427628509
3988.93,0.9330036398049628
3989.83,0.9465441008958145
3990.73,0.9582191896636612
3991.63,0.9615551885825253
3992.53,0.9667172175713992
3993.43,0.9705739593385617
3994.33,0.9728087297024649
3995.23,0.9599818797820382
3996.13,0.952260781434767
3997.03,0.9410182890036514
3997.93,0.9376641632539677
3998.83,0.9388040528335221
3999.73,0.9492138559678049
4000.63,0.9620373001111908
4001.53,0.9780630214155528
4002.43,0.9822836090571945
4003.33,0.983818762161927
4004.23,0.9781472260901899
4005.13,0.9635245394214882
4006.03,0.9574486493736816
4006.93,0.9551431988988769
4007.83,0.9629793224774637
4008.73,0.9727568984068331
4009.63,0.9826867500683628
4010.53,0.9980355764501396
4011.43,1.009640501533121
4012.33,1.0153350981072398
4013.23,1.0150614445665278
4014.13,1.0182538406295885
4015.03,1.0146813949940483
4015.93,1.0168437039643794
4016.84,1.0196807861557127
4017.74,1.0186480176349038
4018.64,1.0239889710861967
4019.54,1.0249860974062899
4020.44,1.0288209124225773
4021.34,1.0305805647030593
4022.24,1.0268300227695477
4023.14,1.0291409998200907
4024.04,1.0292692727030426
4024.94,1.0300700671653318
4025.84,1.0350842834770448
4026.74,1.0389738292221153
4027.64,1.0398341981388903
4028.54,1.0394106153885307
4029.44,1.0292408832419009
4030.34,1.0114414314625755
4031.24,0.989818771878668
4032.14,0.9728882838683304
4033.04,0.96287038468277
4033.94,0.9632570209825485
4034.84,0.9718248303477695
4035.74,0.9916921244440466
4036.64,1.0099560373179828
4037.54,1.0366611661280813
4038.44,1.0575854240956652
4039.34,1.0692943038104075
4040.24,1.0700474179162882
4041.14,1.0622800619973316
4042.04,1.04626047155071
4042.94,1.0290175511980664
4043.84,1.0064877823223741
4044.74,0.982263983137503
4045.64,0.9663259840664541
4046.54,0.9534437467072063
4047.44,0.9573862882397912
4048.34,0.9732897168883848
4049.24,0.9979275921218319
4050.14,1.0163730257663353
4051.04,1.0321094294112885
4051.94,1.0421878328187024
4052.84,1.043347665373182
4053.74,1.0405470615860781
4054.65,1.0283637370323422
4055.55,1.0271800471456864
4056.45,1.0192545064919891
4057.35,1.016268063097599
4058.25,1.011645018439172
4059.15,1.0118508545787712
4060.05,1.0123631095916927
4060.95,1.0134441199248454
4061.85,1.0062761025401017
4062.75,0.9934405961645816
4063.65,0.9794011247274281
4064.55,0.9679873431316685
4065.45,0.9634416045746829
4066.35,0.9643924953728051
4067.25,0.9744992364211201
4068.15,0.988882901793086
4069.05,0.9993247309560604
4069.95,1.0027981550733371
4070.85,1.0021343956831072
4071.75,1.0038695761380279
4072.65,0.9955734505916127
4073.55,0.9924474744434358
4074.45,0.9850427585964585
4075.35,0.9725322320556017
4076.25,0.9585186662022142
4077.15,0.9462345581181131
4078.05,0.9358857263445365
4078.95,0.9362653295720561
4079.85,0.9434559739991277
4080.75,0.9643115347571329
4081.65,0.9807803886897626
4082.55,0.9972826495812953
4083.45,1.0029703660804805
4084.35,1.0154485399182467
4085.25,1.0206013091693928
4086.15,1.0282884969950157
4087.05,1.039698608788486
4087.95,1.0568972566280788
4088.85,1.0683343956257374
4089.75,1.074949401194288
4090.65,1.079336066319572
4091.55,1.0813938106392371
4092.45,1.0712077069408104
4093.36,1.064227707808502
4094.26,1.0509159885942816
4095.16,1.0340076615885372
4096.06,1.0089202256679768
4096.96,0.9837043086332402
4097.86,0.9569703799685572
4098.76,0.927174911863075
4099.66,0.8883527444305277
4100.56,0.8518850843821539
4101.46,0.8239883526701653
4102.36,0.8101507239720281
4103.26,0.802955559052536
4104.16,0.8237537906373736
4105.06,0.852442219281269
4105.96,0.8836743097850736
4106.86,0.9204737457269868
4107.76,0.9471482395144607
4108.66,0.9694505280955983
4109.56,0.9770408673792256
4110.46,0.9884701662602071
4111.36,0.9937553233799471
4112.26,1.0007298280039172
4113.16,1.0129735171395706
4114.06,1.0237311954436121
4114.96,1.0341295181015795
4115.86,1.036406469748016
4116.76,1.0374120008862204
4117.66,1.0321970635762419
4118.56,1.0291872560971507
4119.46,1.0226171873516008
4120.36,1.0165179031569838
4121.26,1.0133870770614788
4122.16,1.0074120609967936
4123.06,1.0104146667616023
4123.96,1.0187704861556675
4124.86,1.0190352312237165
4125.76,1.0254154645775542
4126.66,1.020250281364227
4127.56,1.0204893419202434
4128.46,1.0143283531435672
4129.36,1.0094508577801973
4130.26,1.0011790730897752
4131.17,0.9937300582120152
4132.06,0.9774072782147979
4132.97,0.9714075741360688
4133.87,0.9702462864532627
4134.77,0.9745280445272555
4135.67,0.982878224974169
4136.57,1.0025536993986683
4137.47,1.0186799979550913
4138.37,1.0290767276308883
4139.27,1.041357409688436
4140.17,1.0428388517589573
4141.07,1.0363663313499671
4141.97,1.021791271808459
4142.87,0.9995212219782034
4143.77,0.9854285992807138
4144.67,0.9777372350045053
4145.57,0.9813115256122993
4146.47,0.9845900584508311
4147.37,0.9991323200774943
4148.27,1.0093232764205102
4149.17,1.0167353450810734
4150.07,1.0168076894043487
4150.97,1.018359681928591
4151.87,1.014447755624524
4152.77,1.0082650615086666
4153.67,1.0066033473108928
4154.57,0.9997813406277293
4155.47,1.0022448504248336
4156.37,1.0017273876408324
4157.27,1.0065926978128499
4158.17,1.0107592637865521
4159.07,1.0186875732630647
4159.97,1.0358542016839578
4160.87,1.0411182133933166
4161.77,1.044972749519886
4162.67,1.0520845837246704
4163.57,1.0597656390134627
4164.47,1.0567036819633127
4165.37,1.0569990963183278
4166.27,1.0534993323821258
4167.17,1.0452880638032407
4168.07,1.038657160719338
4168.98,1.0288878379502016
4169.88,1.0212044573947159
4170.78,1.009870243201161
4171.68,0.9911750711946108
4172.58,0.9711092030820457
4173.48,0.965222205959144
4174.38,0.9555786819905111
4175.28,0.9541243079055611
4176.18,0.9572553195525737
4177.08,0.9696532185946626
4177.98,0.9806409626526872
4178.88,0.9869599876441834
4179.78,0.9949195928905018
4180.68,1.0060484705875032
4181.58,1.0093982481685893
4182.48,1.0141842609084795
4183.38,1.0136800188417676
4184.28,1.0120613691160931
4185.18,1.0153953670816205
4186.08,1.0065971321826621
4186.98,1.0052516130197038
4187.88,1.00656656520298
4188.78,0.9997687807422823
4189.68,1.0015047376968746
4190.58,1.00922801553841
4191.48,1.019008291911174
4192.38,1.0266543696681727
4193.28,1.0356423427275325
4194.18,1.0322056948559015
4195.08,1.0327145846736467
4195.98,1.021959743625718
4196.88,1.0134059065577685
4197.78,0.996287663830158
4198.68,0.9868037188376304
4199.58,0.9719287983688845
4200.48,0.9688009813811033
4201.38,0.9652635395158814
4202.28,0.9672764529808805
4203.18,0.9715568262214361
4204.08,0.9797013168725446
4204.98,0.9871365122885449
4205.88,0.9983910611349733
4206.79,1.0134232588562349
4207.69,1.0246563247456524
4208.59,1.0341494794689887
4209.49,1.0446865038164033
4210.39,1.0493545377134317
4211.29,1.045978843074514
4212.19,1.0509153963059443
4213.09,1.045165648859128
4213.99,1.0377066054255477
4214.89,1.0269847097885336
4215.79,1.0194618959184254
4216.69,1.0116738598735449
4217.59,1.0118039680725748
4218.49,1.0194993401077033
4219.39,1.0259585707551764
4220.29,1.0351738998475748
4221.19,1.0368233575961476
4222.09,1.0328676743361387
4222.99,1.0156124747908257
4223.89,0.9870631788391253
4224.79,0.9619690758234478
4225.69,0.9306605374726896
4226.59,0.9049923412257518
4227.49,0.892471816581625
4228.39,0.9020243856165073
4229.29,0.921174661563307
4230.19,0.9502497744004365
4231.09,0.9795594638983368
4231.99,1.0009112674674807
4232.89,1.019252151755285
4233.79,1.0206293508860822
4234.69,1.0179287018099175
4235.59,1.0115093628119514
4236.49,1.0045578451574708
4237.39,1.0038781443851055
4238.29,1.001413570268167
4239.19,1.0090024575933108
4240.09,1.02042115981155
4240.99,1.0285424640628926
4241.89,1.0393424481926965
4242.79,1.0494129119146751
4243.69,1.0568096808349985
4244.59,1.0541221037361233
4245.5,1.050012333597696
4246.4,1.0480443835218474
4247.3,1.0314987469334873
4248.2,1.0267210217456244
4249.1,1.0169856241188022
4250.0,1.003337970927871
4250.9,1.0049528094610933
4251.8,1.007406026718667
4252.7,1.017447412022462
4253.6,1.022425887342011
4254.5,1.0277181201316536
4255.4,1.0279918880455605
4256.3,1.0331694269459581
4257.2,1.0350152134260793
4258.1,1.0313055150137158
4259.0,1.0303348238371455
4259.9,1.0238550296941653
4260.8,1.0234990597178935
4261.7,1.021599817995495
4262.6,1.030753364141302
4263.5,1.0442446421998066
4264.4,1.0592705810300005
4265.3,1.0740311141799503
4266.2,1.0823254784441154
4267.1,1.0786344888397161
4268.0,1.0687815831710428
4268.9,1.0572692331343476
4269.8,1.034973678940505
4270.7,1.0132415919239517
4271.6,0.9837947037779623
4272.5,0.96913406900815
4273.4,0.9601909493414992
4274.3,0.964030291856817
4275.2,0.9709414742910303
4276.1,0.9858114769812988
4277.0,1.0101310733903348
4277.9,1.0206858801913594
4278.8,1.0376087042860835
4279.7,1.0462328356281925
4280.6,1.0421453462205112
4281.5,1.0380972737668104
4282.4,1.0326010013520717
4283.31,1.028581625566754
4284.21,1.0201349953286505
4285.11,1.0151321463186462
4286.01,1.0036816245327878
4286.91,0.9869547976848203
4287.81,0.972714756926997
4288.71,0.9569727701257084
4289.61,0.9426548543395709
4290.51,0.9439040543247446
4291.41,0.9347208980741559
4292.31,0.9485987135719762
4293.21,0.956083948427438
4294.11,0.963023915403594
4295.01,0.9641560398532629
4295.91,0.9582073754007435
4296.81,0.9412472432212561
4297.71,0.920932033410764
4298.61,0.8989094635392989
4299.51,0.8632841444621697
4300.41,0.8434850849669365
4301.31,0.8249555704222845
4302.21,0.8125798253852048
4303.11,0.8090614875217617
4304.01,0.8076561533995081
4304.91,0.8095291286928625
4305.81,0.812238509442824
4306.71,0.8102162221035264
4307.61,0.8026710330365122
4308.51,0.7959671473148685
4309.41,0.797360300727795
4310.31,0.8031908415929129
4311.21,0.8171050150231474
4312.11,0.8377194205194762
4313.01,0.8679873485867211
4313.91,0.9012880097863285
4314.81,0.9501424332456403
4315.71,0.9992619369754475
4316.61,1.0404565520362807
4317.51,1.078116415182097
4318.41,1.1078660616724818
4319.31,1.1278668148707096
4320.21,1.1244258751826088
4321.12,1.1156449706556433
4322.02,1.0903792074510634
4322.92,1.06628184105013
4323.82,1.034460462000855
4324.72,1.0077604860316363
4325.62,0.9883280415920871
4326.52,0.981455798405074
4327.42,0.9922145907611705
4328.32,1.0078785920792468
4329.22,1.04348369087049
4330.12,1.0583344031449637
4331.02,1.0795919252485957
4331.92,1.0948417327553481
4332.82,1.102998098198076
4333.72,1.1036036671050955
4334.62,1.0909298912620893
4335.52,1.0737725896875732
4336.42,1.0440064836832719
4337.32,1.0089030047869416
4338.22,0.9665488679507678
4339.12,0.9194079067502625
4340.02,0.8832439036314237
4340.92,0.8587084662697876
4341.82,0.858284276383686
4342.72,0.872837712939931
4343.62,0.9017106990103092
4344.52,0.9378249413230064
4345.42,0.9777472790172063
4346.32,1.0089056078812297
4347.22,1.0323043456799796
4348.12,1.0485799101809035
4349.02,1.056411276378453
4349.92,1.0560260914012036
4350.82,1.048939871279824
4351.72,1.035377526396084
4352.62,1.0287100862036702
4353.52,1.0212228195816762
4354.42,1.0218892960536423
4355.32,1.0301237822689135
4356.22,1.0441636513026022
4357.12,1.0522862261706543
4358.02,1.059820539406287
4358.92,1.0678376794781295
4359.83,1.0722491553279518
4360.73,1.0752265326371497
4361.63,1.0822550620237938
