wave,flux
3700.85,-2.600583495454802e-07
3701.75,-2.541961095804606e-07
3702.65,-2.4398553299335624e-07
3703.55,-2.285512044036381e-07
3704.45,-2.1114381759160092e-07
3705.35,-1.9393149876812418e-07
3706.25,-1.7964808330930287e-07
3707.15,-1.725668870665791e-07
3708.05,-1.715251467463641e-07
3708.96,-1.7619699323385044e-07
3709.86,-1.8690000373600127e-07
3710.76,-2.0296798646873562e-07
3711.66,-2.2145748741076788e-07
3712.56,-2.4057900695661084e-07
3713.46,-2.5483197627344223e-07
3714.36,-2.6532295676149403e-07
3715.26,-2.662562424301407e-07
3716.16,-2.58798718000768e-07
3717.06,-2.426166016737623e-07
3717.96,-2.245674139470001e-07
3718.86,-2.008460398622976e-07
3719.76,-1.7786823511660853e-07
3720.66,-1.6005053723943056e-07
3721.56,-1.5014629292839658e-07
3722.46,-1.5116785257703303e-07
3723.36,-1.6054918508885879e-07
3724.26,-1.7456509851442986e-07
3725.16,-1.906085932292983e-07
3726.06,-2.0150472581283e-07
3726.96,-2.072664538030234e-07
3727.86,-2.0829784493539812e-07
3728.76,-2.0768381593521854e-07
3729.66,-2.047099006268875e-07
3730.56,-1.9962051524297312e-07
3731.46,-1.9065620181372753e-07
3732.36,-1.7669921828941222e-07
3733.26,-1.6030355065292766e-07
3734.16,-1.4332539114207888e-07
3735.06,-1.2943082342478396e-07
3735.96,-1.234362589503718e-07
3736.86,-1.2447115826606337e-07
3737.76,-1.3361659556396034e-07
3738.66,-1.495732488911716e-07
3739.56,-1.66887862170415e-07
3740.46,-1.8352669440967204e-07
3741.36,-1.9401562138423737e-07
3742.26,-1.9553912101373038e-07
3743.16,-1.8913417630578383e-07
3744.06,-1.7750152167206745e-07
3744.96,-1.6360097972002304e-07
3745.86,-1.5036071483947e-07
3746.76,-1.3965663871638045e-07
3747.67,-1.3229409816401913e-07
3748.57,-1.2950635796363023e-07
3749.47,-1.3170929812777789e-07
3750.37,-1.4108565558708477e-07
3751.27,-1.5645167551423036e-07
3752.17,-1.7762101252201123e-07
3753.07,-1.9825591237585745e-07
3753.97,-2.1748636911717844e-07
3754.87,-2.304412449116027e-07
3755.77,-2.3413988220898616e-07
3756.67,-2.289277693064349e-07
3757.57,-2.1784951359598304e-07
3758.47,-2.0403443853361566e-07
3759.37,-1.9397753493331434e-07
3760.27,-1.8806732718012294e-07
3761.17,-1.8915214089694283e-07
3762.07,-1.9201831402587066e-07
3762.97,-1.9467045434678383e-07
3763.87,-1.9604361854091134e-07
3764.77,-1.9776893490553982e-07
3765.67,-1.9802825450939677e-07
3766.57,-1.9986298121597456e-07
3767.47,-2.036682844080738e-07
3768.37,-2.0911088513178724e-07
3769.27,-2.1804566182537009e-07
3770.17,-2.2808791501113664e-07
3771.07,-2.382967296247609e-07
3771.97,-2.484173200731855e-07
3772.87,-2.578516957228547e-07
3773.77,-2.6410676548106677e-07
3774.67,-2.680448020124095e-07
3775.57,-2.700876993546972e-07
3776.47,-2.719469415702941e-07
3777.37,-2.726043556944992e-07
3778.27,-2.76253858227447e-07
3779.17,-2.788879808733e-07
3780.07,-2.8530688370604815e-07
3780.97,-2.9120190140565295e-07
3781.87,-2.941820231112213e-07
3782.77,-2.965269778555373e-07
3783.67,-2.960004806006555e-07
3784.57,-2.893362697396005e-07
3785.47,-2.7672163742529335e-07
3786.38,-2.621101611699301e-07
3787.28,-2.45906092124649e-07
3788.18,-2.319700740738245e-07
3789.08,-2.2163701637410107e-07
3789.98,-2.164798364144443e-07
3790.88,-2.1617019463807307e-07
3791.78,-2.1675594801682746e-07
3792.68,-2.1711386695208307e-07
3793.58,-2.1543153574380637e-07
3794.48,-2.108283203368925e-07
3795.38,-2.055027097113906e-07
3796.28,-1.993223567771109e-07
3797.18,-1.942120538666937e-07
3798.08,-1.9053996873129437e-07
3798.98,-1.9265953815123543e-07
3799.88,-1.9923046207656794e-07
3800.78,-2.0985774424534608e-07
3801.68,-2.242491332151731e-07
3802.58,-2.393768626692221e-07
3803.48,-2.5241252956277794e-07
3804.38,-2.6143683529174446e-07
3805.28,-2.6616928121205e-07
3806.18,-2.6513315471998515e-07
3807.08,-2.631463053879343e-07
3807.98,-2.615688590978346e-07
3808.88,-2.62084015933824e-07
3809.78,-2.6275109666101064e-07
3810.68,-2.6490481055638193e-07
3811.58,-2.626587406932134e-07
3812.48,-2.5442914983932497e-07
3813.38,-2.42034644324762e-07
3814.28,-2.2679731205424853e-07
3815.18,-2.1241381448417097e-07
3816.08,-2.003106336959515e-07
3816.98,-1.9288874607789252e-07
3817.88,-1.8799388046563915e-07
3818.78,-1.8400785885431246e-07
3819.68,-1.78505771431362e-07
3820.58,-1.7439179363597828e-07
3821.48,-1.702067052554099e-07
3822.38,-1.672625857516069e-07
3823.28,-1.644842872807718e-07
3824.18,-1.6066086662847296e-07
3825.09,-1.548434261850444e-07
3825.99,-1.4861691326294826e-07
3826.89,-1.4414728087448858e-07
3827.79,-1.417691615395557e-07
3828.69,-1.419502759933391e-07
3829.59,-1.44726717210127e-07
3830.49,-1.457179764531996e-07
3831.39,-1.4630375726247955e-07
3832.29,-1.4479186662751897e-07
3833.19,-1.4291049140221855e-07
3834.09,-1.4176478127439405e-07
3834.99,-1.4292531873474923e-07
3835.89,-1.4414308986418153e-07
3836.79,-1.4625104094878055e-07
3837.69,-1.469703182412132e-07
3838.59,-1.4683290789885141e-07
3839.49,-1.4796618913319875e-07
3840.39,-1.5211472295262768e-07
3841.29,-1.601660755260045e-07
3842.19,-1.733584291481015e-07
3843.09,-1.8832383390992429e-07
3843.99,-2.0332021733806828e-07
3844.89,-2.153053204198283e-07
3845.79,-2.2482228878506151e-07
3846.69,-2.2823471367328187e-07
3847.59,-2.3131391741900803e-07
3848.49,-2.2875525757209825e-07
3849.39,-2.2807018419561663e-07
3850.29,-2.242398493779457e-07
3851.19,-2.225833081431577e-07
3852.09,-2.2167243513184644e-07
3852.99,-2.211345210492131e-07
3853.89,-2.1845231124127696e-07
3854.79,-2.1491903176331946e-07
3855.69,-2.0891680508233652e-07
3856.59,-2.0035267466503807e-07
3857.49,-1.9226218727159936e-07
3858.39,-1.8323153947242345e-07
3859.29,-1.7806857639764385e-07
3860.19,-1.771376799895725e-07
3861.09,-1.821245505630905e-07
3861.99,-1.92900628947177e-07
3862.9,-2.0577164839512628e-07
3863.8,-2.1823694573396412e-07
3864.7,-2.2760932579205826e-07
3865.6,-2.3226213214382534e-07
3866.5,-2.3249969803587895e-07
3867.4,-2.2768380521188659e-07
3868.3,-2.2296627493553976e-07
3869.2,-2.1595737184205629e-07
3870.1,-2.0855189560047115e-07
3871.0,-2.0172965900584053e-07
3871.9,-2.0010163772402553e-07
3872.8,-2.0182169501849848e-07
3873.7,-2.0759099074542212e-07
3874.6,-2.1741567356222481e-07
3875.5,-2.2803242057804236e-07
3876.4,-2.334243541442094e-07
3877.3,-2.3262475810771583e-07
3878.2,-2.2903304323832236e-07
3879.1,-2.2193684241128626e-07
3880.0,-2.1743398931955493e-07
3880.9,-2.16395231975178e-07
3881.8,-2.176469288614419e-07
3882.7,-2.1933312638935204e-07
3883.6,-2.221786147072292e-07
3884.5,-2.250347693640762e-07
3885.4,-2.241101332980477e-07
3886.3,-2.2252396794048514e-07
3887.2,-2.2125954267035637e-07
3888.1,-2.221410650835821e-07
3889.0,-2.2849172389163337e-07
3889.9,-2.4027651885524774e-07
3890.8,-2.567888483485255e-07
3891.7,-2.7391572237976733e-07
3892.6,-2.905404225530626e-07
3893.5,-3.0090436127021795e-07
3894.4,-3.0665055610817195e-07
3895.3,-3.0859829959229993e-07
3896.2,-3.0819630229931794e-07
3897.1,-3.0802995338836527e-07
3898.0,-3.0745617325504444e-07
3898.9,-3.0733450707282136e-07
3899.8,-3.070126222497964e-07
3900.7,-3.06434534523554e-07
3901.6,-3.04467085861616e-07
3902.51,-3.0188918452583034e-07
3903.41,-2.985327361083467e-07
3904.31,-2.930405588750103e-07
3905.21,-2.898444943503467e-07
3906.11,-2.912822150774302e-07
3907.01,-2.9749893596441754e-07
3907.91,-3.086577028610103e-07
3908.81,-3.229154208011942e-07
3909.71,-3.365141342217614e-07
3910.61,-3.506446589670664e-07
3911.51,-3.609874088204926e-07
3912.41,-3.697741026831675e-07
3913.31,-3.722177362720607e-07
3914.21,-3.728792028681937e-07
3915.11,-3.7024404838944016e-07
3916.01,-3.6280360020369684e-07
3916.91,-3.5550999129641093e-07
3917.81,-3.452541992163506e-07
3918.71,-3.32556830824098e-07
3919.61,-3.1621465395342287e-07
3920.51,-3.042762136790254e-07
3921.41,-2.9082303221852703e-07
3922.31,-2.823993255981012e-07
3923.21,-2.7614091682319005e-07
3924.11,-2.7329676460930003e-07
3925.01,-2.6781531475714774e-07
3925.91,-2.6137522234595325e-07
3926.81,-2.478418218859443e-07
3927.71,-2.30014319988082e-07
3928.61,-2.0762140199603192e-07
3929.51,-1.8414962702377409e-07
3930.41,-1.6116522055468514e-07
3931.31,-1.409105611887722e-07
3932.21,-1.235152662664924e-07
3933.11,-1.1133329375609811e-07
3934.01,-1.0494344054570932e-07
3934.91,-1.0490055569764833e-07
3935.81,-1.1191802948983727e-07
3936.71,-1.256690046825674e-07
3937.61,-1.447801095934758e-07
3938.51,-1.6638256197690672e-07
3939.42,-1.8981641545754833e-07
3940.32,-2.091543624164136e-07
3941.22,-2.2556382302489945e-07
3942.12,-2.3840072248259804e-07
3943.02,-2.484661857892514e-07
3943.92,-2.558041849437342e-07
3944.82,-2.6631112226240133e-07
3945.72,-2.8081999744259953e-07
3946.62,-2.9627650900990885e-07
3947.52,-3.1425872429005715e-07
3948.42,-3.3323085957921756e-07
3949.32,-3.4643342000379077e-07
3950.22,-3.5954031880910016e-07
3951.12,-3.694138332704785e-07
3952.02,-3.7812717517982137e-07
3952.92,-3.8269527112124065e-07
3953.82,-3.859460326317639e-07
3954.72,-3.855491087402233e-07
3955.62,-3.841993003510143e-07
3956.52,-3.8113746247807777e-07
3957.42,-3.755457572855296e-07
3958.32,-3.669604998999728e-07
3959.22,-3.5595920187068754e-07
3960.12,-3.38796175423924e-07
3961.02,-3.183335052515795e-07
3961.92,-2.931752705006009e-07
3962.82,-2.6754923555102094e-07
3963.72,-2.4259603672308586e-07
3964.62,-2.2037860314538604e-07
3965.52,-1.9810237067788097e-07
3966.42,-1.7687648175217047e-07
3967.32,-1.5796881105656092e-07
3968.22,-1.430302404080457e-07
3969.12,-1.3450689401369066e-07
3970.02,-1.348380912218212e-07
3970.92,-1.4398607595239242e-07
3971.82,-1.6182401670695256e-07
3972.72,-1.8531287227877395e-07
3973.62,-2.1512930642378627e-07
3974.52,-2.443188554080732e-07
3975.42,-2.74288530040883e-07
3976.32,-3.050739996170171e-07
3977.22,-3.3464836519490344e-07
3978.13,-3.62068955029807e-07
3979.03,-3.890367758880212e-07
3979.93,-4.091546313950403e-07
3980.83,-4.255445021959804e-07
3981.73,-4.375719859794829e-07
3982.63,-4.4366978852475367e-07
3983.53,-4.467563143430511e-07
3984.43,-4.5044428724226205e-07
3985.33,-4.554310583356365e-07
3986.23,-4.6256992609505736e-07
3987.13,-4.7176374219001925e-07
3988.03,-4.783606461478271e-07
3988.93,-4.86934801927635e-07
3989.83,-4.925113070989847e-07
3990.73,-4.994917925326691e-07
3991.63,-5.035113745593974e-07
3992.53,-5.07251698658453e-07
3993.43,-5.084010322745125e-07
3994.33,-5.099381579410492e-07
3995.23,-5.079556581283399e-07
3996.13,-5.054845398571839e-07
3997.03,-5.039259025928968e-07
3997.93,-5.012488547038931e-07
3998.83,-5.076329922792839e-07
3999.73,-5.171395610228781e-07
4000.63,-5.288077550868207e-07
4001.53,-5.398711713126816e-07
4002.43,-5.47403641437756e-07
4003.33,-5.435367246328402e-07
4004.23,-5.367774511665497e-07
4005.13,-5.2540330943853e-07
4006.03,-5.164491868740966e-07
4006.93,-5.085021252832528e-07
4007.83,-5.110895767173697e-07
4008.73,-5.202199226903244e-07
4009.63,-5.34047194551329e-07
4010.53,-5.460354447201415e-07
4011.43,-5.574605015173732e-07
4012.33,-5.656036109036559e-07
4013.23,-5.747056853481948e-07
4014.13,-5.787789359118166e-07
4015.03,-5.830598103973165e-07
4015.93,-5.825357584337777e-07
4016.84,-5.870371990969514e-07
4017.74,-5.896501762128313e-07
4018.64,-5.897280172560698e-07
4019.54,-5.933469630481114e-07
4020.44,-5.962249542893443e-07
4021.34,-5.967090779059251e-07
4022.24,-5.966429407794201e-07
4023.14,-5.942700203779446e-07
4024.04,-5.932456589939448e-07
4024.94,-5.938261115368315e-07
4025.84,-5.94759472697215e-07
4026.74,-5.994726042002042e-07
4027.64,-5.97337074777564e-07
4028.54,-5.967610545528922e-07
4029.44,-5.841995653483861e-07
4030.34,-5.668982183454286e-07
4031.24,-5.411900057793389e-07
4032.14,-5.198328584370387e-07
4033.04,-5.028531581881973e-07
4033.94,-4.967233160810152e-07
4034.84,-5.03286843975889e-07
4035.74,-5.239882793372589e-07
4036.64,-5.498109982203124e-07
4037.54,-5.771796568905074e-07
4038.44,-6.022605837510746e-07
4039.34,-6.182796291022853e-07
4040.24,-6.21559497366402e-07
4041.14,-6.204279480596359e-07
4042.04,-6.069460767505887e-07
4042.94,-5.868369502722267e-07
4043.84,-5.591476818380957e-07
4044.74,-5.312857885383738e-07
4045.64,-5.064458093886701e-07
4046.54,-4.941740924790519e-07
4047.44,-4.951912658769583e-07
4048.34,-5.172321726695139e-07
4049.24,-5.463829730746658e-07
4050.14,-5.768696310821041e-07
4051.04,-5.985766321667772e-07
4051.94,-6.107931920910229e-07
4052.84,-6.139015926138585e-07
4053.74,-6.10377314082575e-07
4054.65,-5.975865804721172e-07
4055.55,-5.828156265737399e-07
4056.45,-5.714181851095403e-07
4057.35,-5.627763952767484e-07
4058.25,-5.565323330806737e-07
4059.15,-5.552232728464979e-07
4060.05,-5.551232463766278e-07
4060.95,-5.53754989063665e-07
4061.85,-5.440292240179849e-07
4062.75,-5.340668025988219e-07
4063.65,-5.223881349328413e-07
4064.55,-5.132269399113736e-07
4065.45,-5.159920278722118e-07
4066.35,-5.242057289551688e-07
4067.25,-5.388418854701379e-07
4068.15,-5.557805478303786e-07
4069.05,-5.700374469684904e-07
4069.95,-5.788222502666543e-07
4070.85,-5.806690286882314e-07
4071.75,-5.780173378630625e-07
4072.65,-5.733726399193293e-07
4073.55,-5.723694955588799e-07
4074.45,-5.720625376362186e-07
4075.35,-5.688990983332475e-07
4076.25,-5.667518045808442e-07
4077.15,-5.630323505453926e-07
4078.05,-5.602761477044056e-07
4078.95,-5.698557902982675e-07
4079.85,-5.844998383356717e-07
4080.75,-6.062896701786137e-07
4081.65,-6.262313860517372e-07
4082.55,-6.404548819722141e-07
4083.45,-6.534057653678479e-07
4084.35,-6.550972838289925e-07
4085.25,-6.614890569413827e-07
4086.15,-6.682788142520931e-07
4087.05,-6.827499658197345e-07
4087.95,-6.977499620847937e-07
4088.85,-7.116889626912445e-07
4089.75,-7.186274804819009e-07
4090.65,-7.23326426002998e-07
4091.55,-7.204330421975519e-07
4092.45,-7.11022005839524e-07
4093.36,-7.024799652450349e-07
4094.26,-6.867160320362616e-07
4095.16,-6.737356594843788e-07
4096.06,-6.549001997342808e-07
4096.96,-6.352393291312796e-07
4097.86,-6.163619173332737e-07
4098.76,-5.980483842686075e-07
4099.66,-5.823626878256506e-07
4100.56,-5.704306879083769e-07
4101.46,-5.551105030876733e-07
4102.36,-5.508874460868945e-07
4103.26,-5.581899448718431e-07
4104.16,-5.706746496684243e-07
4105.06,-5.914379076913807e-07
4105.96,-6.155695610267588e-07
4106.86,-6.35652351832653e-07
4107.76,-6.541506321238492e-07
4108.66,-6.631017841756857e-07
4109.56,-6.628085965540732e-07
4110.46,-6.616086731881495e-07
4111.36,-6.658992803257907e-07
4112.26,-6.681014302942497e-07
4113.16,-6.726933289829044e-07
4114.06,-6.813329179886155e-07
4114.96,-6.916444614463646e-07
4115.86,-6.99074097783738e-07
4116.76,-7.016132578796658e-07
4117.66,-6.999862597516311e-07
4118.56,-6.927468139388e-07
4119.46,-6.877797930420617e-07
4120.36,-6.819388552587393e-07
4121.26,-6.77230970018157e-07
4122.16,-6.772260235650199e-07
4123.06,-6.851664913783583e-07
4123.96,-6.851698476130438e-07
4124.86,-6.904255700928918e-07
4125.76,-6.931504903759273e-07
4126.66,-6.928719661648355e-07
4127.56,-6.912010967509987e-07
4128.46,-6.779208361066805e-07
4129.36,-6.671040607362667e-07
4130.26,-6.573641556590285e-07
4131.17,-6.407350735722485e-07
4132.06,-6.291766649006079e-07
4132.97,-6.219851885772728e-07
4133.87,-6.200276308827061e-07
4134.77,-6.280160768435453e-07
4135.67,-6.429991370255932e-07
4136.57,-6.637123095438253e-07
4137.47,-6.838897065506184e-07
4138.37,-6.99234009478e-07
4139.27,-7.077825550521252e-07
4140.17,-7.078576651844774e-07
4141.07,-6.97891296915376e-07
4141.97,-6.792644085741048e-07
4142.87,-6.563849772561912e-07
4143.77,-6.367072660102153e-07
4144.67,-6.264175477351976e-07
4145.57,-6.251357213211843e-07
4146.47,-6.332533853379475e-07
4147.37,-6.447876995413617e-07
4148.27,-6.572456439767707e-07
4149.17,-6.651939712922127e-07
4150.07,-6.643082775655928e-07
4150.97,-6.639585274253362e-07
4151.87,-6.588691084883147e-07
4152.77,-6.537658193224812e-07
4153.67,-6.548416945265415e-07
4154.57,-6.494174639270998e-07
4155.47,-6.489215234136172e-07
4156.37,-6.496909775196584e-07
4157.27,-6.593454903009719e-07
4158.17,-6.705366630635065e-07
4159.07,-6.840580244744466e-07
4159.97,-7.039831876496907e-07
4160.87,-7.177017455916329e-07
4161.77,-7.333400237432053e-07
4162.67,-7.409785360987517e-07
4163.57,-7.496722980266282e-07
4164.47,-7.477634756337134e-07
4165.37,-7.431588260006402e-07
4166.27,-7.338891530964045e-07
4167.17,-7.237366323729543e-07
4168.07,-7.145390240339751e-07
4168.98,-7.076620188857985e-07
4169.88,-7.00263974499886e-07
4170.78,-6.938933374857877e-07
4171.68,-6.818918636252834e-07
4172.58,-6.693645046856248e-07
4173.48,-6.589686578099615e-07
4174.38,-6.48297499905604e-07
4175.28,-6.46340744765198e-07
4176.18,-6.474202533694423e-07
4177.08,-6.549046420732531e-07
4177.98,-6.618472297693516e-07
4178.88,-6.689314676801392e-07
4179.78,-6.774059752916386e-07
4180.68,-6.829021226206875e-07
4181.58,-6.924157386332851e-07
4182.48,-6.953750864986522e-07
4183.38,-7.014147695484503e-07
4184.28,-7.084740242755983e-07
4185.18,-7.114627652424138e-07
4186.08,-7.111208577719837e-07
4186.98,-7.104618634434161e-07
4187.88,-7.110628728626289e-07
4188.78,-7.108427020553364e-07
4189.68,-7.142921650176722e-07
4190.58,-7.245943508455169e-07
4191.48,-7.317492288372268e-07
4192.38,-7.428611844505903e-07
4193.28,-7.489110077311388e-07
4194.18,-7.50579787337176e-07
4195.08,-7.398770070272117e-07
4195.98,-7.253771794552192e-07
4196.88,-7.052749261279043e-07
4197.78,-6.880653288518385e-07
4198.68,-6.744650066946274e-07
4199.58,-6.610211528171391e-07
4200.48,-6.610414003177657e-07
4201.38,-6.602240256945117e-07
4202.28,-6.71584983836165e-07
4203.18,-6.874919523955254e-07
4204.08,-7.037623480689424e-07
4204.98,-7.271912822793574e-07
4205.88,-7.504856780403055e-07
4206.79,-7.719694071466701e-07
4207.69,-7.915483727621809e-07
4208.59,-8.035674553870415e-07
4209.49,-8.064341499976502e-07
4210.39,-8.111330517283908e-07
4211.29,-8.082037226855612e-07
4212.19,-8.016698725679605e-07
4213.09,-7.966890664508018e-07
4213.99,-7.8572931593952e-07
4214.89,-7.760526587381502e-07
4215.79,-7.685842131248427e-07
4216.69,-7.738613633555891e-07
4217.59,-7.858061105408319e-07
4218.49,-8.009477450291706e-07
4219.39,-8.220733015993271e-07
4220.29,-8.39350067297706e-07
4221.19,-8.419005385027208e-07
4222.09,-8.272132325353024e-07
4222.99,-7.981426408840546e-07
4223.89,-7.613483990132042e-07
4224.79,-7.064805115379765e-07
4225.69,-6.552418047771283e-07
4226.59,-6.163380559578842e-07
4227.49,-6.003986845371964e-07
4228.39,-6.121920548128808e-07
4229.29,-6.407290803696245e-07
4230.19,-6.847198302630067e-07
4231.09,-7.273397169474424e-07
4231.99,-7.665042802302143e-07
4232.89,-7.89265437543814e-07
4233.79,-7.966379685865646e-07
4234.69,-7.945051728671219e-07
4235.59,-7.923657046278723e-07
4236.49,-7.810096871249595e-07
4237.39,-7.804043597922495e-07
4238.29,-7.857034081164105e-07
4239.19,-7.931228206190642e-07
4240.09,-8.094783951370852e-07
4240.99,-8.292157683506276e-07
4241.89,-8.55419569424248e-07
4242.79,-8.764968619438863e-07
4243.69,-8.91332456520485e-07
4244.59,-9.105911705765589e-07
4245.5,-9.172879213566197e-07
4246.4,-9.078424681149428e-07
4247.3,-8.934866347992999e-07
4248.2,-8.699992271170465e-07
4249.1,-8.425173843840074e-07
4250.0,-8.173794083110778e-07
4250.9,-7.957702922339126e-07
4251.8,-7.860828432461204e-07
4252.7,-7.852439878466377e-07
4253.6,-7.861375456481313e-07
4254.5,-7.925244189666418e-07
4255.4,-8.018506714724049e-07
4256.3,-8.10433635565705e-07
4257.2,-8.188984886074988e-07
4258.1,-8.199066623851196e-07
4259.0,-8.180472381105944e-07
4259.9,-8.149205038665182e-07
4260.8,-8.147312313828137e-07
4261.7,-8.197392186049943e-07
4262.6,-8.39532340191751e-07
4263.5,-8.686042448071916e-07
4264.4,-8.979632621879793e-07
4265.3,-9.289523140182542e-07
4266.2,-9.412104155684134e-07
4267.1,-9.408240161870604e-07
4268.0,-9.293738375700297e-07
4268.9,-8.942489941848122e-07
4269.8,-8.500011027586744e-07
4270.7,-8.055638426963956e-07
4271.6,-7.61293060921449e-07
4272.5,-7.256833917859733e-07
4273.4,-7.052660704070833e-07
4274.3,-7.102280153467591e-07
4275.2,-7.301431972241877e-07
4276.1,-7.611029213244701e-07
4277.0,-8.027773440800302e-07
4277.9,-8.38157956569138e-07
4278.8,-8.683001800205356e-07
