wave,flux
3700.85,-6.538861469692742e-07
3701.75,-6.458119063909201e-07
3702.65,-6.179560167303155e-07
3703.55,-5.801397459660963e-07
3704.45,-5.417269235848538e-07
3705.35,-5.024469616341158e-07
3706.25,-4.7324671056526215e-07
3707.15,-4.579946977709447e-07
3708.05,-4.5425861884054405e-07
3708.96,-4.684036972095485e-07
3709.86,-4.936401315669609e-07
3710.76,-5.304660307242587e-07
3711.66,-5.744119534760578e-07
3712.56,-6.19579699154571e-07
3713.46,-6.558481368428787e-07
3714.36,-6.84026357021508e-07
3715.26,-6.904949748919811e-07
3716.16,-6.764776707191614e-07
3717.06,-6.442455641878839e-07
3717.96,-5.984979606977693e-07
3718.86,-5.433776631356581e-07
3719.76,-4.857946048906809e-07
3720.66,-4.417310560737174e-07
3721.56,-4.1557097510812884e-07
3722.46,-4.160923330456666e-07
3723.36,-4.460133606254046e-07
3724.26,-4.83498883317791e-07
3725.16,-5.230144650566357e-07
3726.06,-5.546156242888666e-07
3726.96,-5.707357208766411e-07
3727.86,-5.802396385167859e-07
3728.76,-5.799243728476843e-07
3729.66,-5.711892995592375e-07
3730.56,-5.629682941410831e-07
3731.46,-5.361193511822821e-07
3732.36,-5.01772315076933e-07
3733.26,-4.591166130546529e-07
3734.16,-4.1165033103708897e-07
3735.06,-3.7791275505245396e-07
3735.96,-3.588873753389926e-07
3736.86,-3.617385186495695e-07
3737.76,-3.871138363756481e-07
3738.66,-4.298907700424507e-07
3739.56,-4.788672957000762e-07
3740.46,-5.230701912128503e-07
3741.36,-5.525170554842158e-07
3742.26,-5.590487616598756e-07
3743.16,-5.463042651425288e-07
3744.06,-5.160576979013831e-07
3744.96,-4.790309166590848e-07
3745.86,-4.456281350385639e-07
3746.76,-4.156755008069064e-07
3747.67,-3.948900003181941e-07
3748.57,-3.8723925182725304e-07
3749.47,-3.8977661531243466e-07
3750.37,-4.1452709617519457e-07
3751.27,-4.568283318269508e-07
3752.17,-5.117168788763766e-07
3753.07,-5.725611243173944e-07
3753.97,-6.278752123417251e-07
3754.87,-6.611715161321105e-07
3755.77,-6.759766161385982e-07
3756.67,-6.659864772190415e-07
3757.57,-6.352404352875539e-07
3758.47,-6.005432893330936e-07
3759.37,-5.742621217556782e-07
3760.27,-5.59704286290813e-07
3761.17,-5.638567796440078e-07
3762.07,-5.749052159801028e-07
3762.97,-5.86709702027989e-07
3763.87,-5.968993354059657e-07
3764.77,-5.99980753957959e-07
3765.67,-6.047208462889782e-07
3766.57,-6.09763745465752e-07
3767.47,-6.195139020864521e-07
3768.37,-6.31255914041846e-07
3769.27,-6.51641410083412e-07
3770.17,-6.770385815232223e-07
3771.07,-7.00090786677827e-07
3771.97,-7.297697181812315e-07
3772.87,-7.532610836666538e-07
3773.77,-7.773471088785096e-07
3774.67,-7.938367368742809e-07
3775.57,-8.03166769357038e-07
3776.47,-8.100394123993571e-07
3777.37,-8.210136873299269e-07
3778.27,-8.294502599161026e-07
3779.17,-8.413617740206391e-07
3780.07,-8.59213329111723e-07
3780.97,-8.787669563803902e-07
3781.87,-8.887796397031991e-07
3782.77,-9.0067725078378e-07
3783.67,-8.996947662713591e-07
3784.57,-8.825711225876058e-07
3785.47,-8.56799556910833e-07
3786.38,-8.169438894934036e-07
3787.28,-7.689440997935744e-07
3788.18,-7.369686937741352e-07
3789.08,-7.061314954151751e-07
3789.98,-6.963566630973947e-07
3790.88,-6.933424140727643e-07
3791.78,-6.998986115797105e-07
3792.68,-6.988951882879797e-07
3793.58,-6.9570099050755e-07
3794.48,-6.792405992079355e-07
3795.38,-6.664874266199368e-07
3796.28,-6.442459168797068e-07
3797.18,-6.319389926274379e-07
3798.08,-6.211615054539659e-07
3798.98,-6.240499896181264e-07
3799.88,-6.461956961025477e-07
3800.78,-6.803210337334123e-07
3801.68,-7.326130354655e-07
3802.58,-7.834675960974635e-07
3803.48,-8.271363514211e-07
3804.38,-8.592196333327464e-07
3805.28,-8.728761377937124e-07
3806.18,-8.747892773753802e-07
3807.08,-8.693853501807763e-07
3807.98,-8.651740162447794e-07
3808.88,-8.655096914216595e-07
3809.78,-8.741658026228949e-07
3810.68,-8.805518003112954e-07
3811.58,-8.721849207328383e-07
3812.48,-8.510489886209857e-07
3813.38,-8.111756838672999e-07
3814.28,-7.655054489255852e-07
3815.18,-7.23898058310296e-07
3816.08,-6.944706012146754e-07
3816.98,-6.74299209761717e-07
3817.88,-6.617682061762811e-07
3818.78,-6.479852604044123e-07
3819.68,-6.366466059781329e-07
3820.58,-6.220005283563019e-07
3821.48,-6.093270183082185e-07
3822.38,-6.003396360424925e-07
3823.28,-5.913456653082132e-07
3824.18,-5.771028229240697e-07
3825.09,-5.601813325962551e-07
3825.99,-5.387179778154468e-07
3826.89,-5.220252473332968e-07
3827.79,-5.136345160440438e-07
3828.69,-5.134413889468461e-07
3829.59,-5.206937085573748e-07
3830.49,-5.261291252052962e-07
3831.39,-5.22072517645003e-07
3832.29,-5.18333685904403e-07
3833.19,-5.092242594110205e-07
3834.09,-5.04210478470238e-07
3834.99,-5.00801273173337e-07
3835.89,-5.069110258091105e-07
3836.79,-5.134157739909668e-07
3837.69,-5.199156718095741e-07
3838.59,-5.219236823016512e-07
3839.49,-5.276415859363497e-07
3840.39,-5.498930095616573e-07
3841.29,-5.821120009449721e-07
3842.19,-6.341896865077512e-07
3843.09,-6.907884903513027e-07
3843.99,-7.470624311358373e-07
3844.89,-7.981087806592537e-07
3845.79,-8.297290929977503e-07
3846.69,-8.530527556576217e-07
3847.59,-8.60808691020931e-07
3848.49,-8.588665376472395e-07
3849.39,-8.534083905092954e-07
3850.29,-8.471669699470387e-07
3851.19,-8.448363897310962e-07
3852.09,-8.422406919742232e-07
3852.99,-8.411405216985057e-07
3853.89,-8.347097945277597e-07
3854.79,-8.251972862832047e-07
3855.69,-8.001544079538061e-07
3856.59,-7.733822553607166e-07
3857.49,-7.426196297937962e-07
3858.39,-7.130892992411475e-07
3859.29,-6.939813183345606e-07
3860.19,-6.872908872000021e-07
3861.09,-7.069907998977585e-07
3861.99,-7.446454222294163e-07
3862.9,-7.942850982972799e-07
3863.8,-8.395014589429818e-07
3864.7,-8.730096874451499e-07
3865.6,-8.958159801539898e-07
3866.5,-9.013840665997466e-07
3867.4,-8.901052517659906e-07
3868.3,-8.784946048914926e-07
3869.2,-8.582647667420902e-07
3870.1,-8.369262785979063e-07
3871.0,-8.091652066672314e-07
3871.9,-7.938221714793414e-07
3872.8,-7.929032369204885e-07
3873.7,-8.103970286778998e-07
3874.6,-8.352771970120372e-07
3875.5,-8.617694919427295e-07
3876.4,-8.812574560419766e-07
3877.3,-8.828769943730921e-07
3878.2,-8.687838531115938e-07
3879.1,-8.563419386980574e-07
3880.0,-8.458499150194771e-07
3880.9,-8.449913879617556e-07
3881.8,-8.504285362446777e-07
3882.7,-8.61615028751557e-07
3883.6,-8.674988230277647e-07
3884.5,-8.719414179675228e-07
3885.4,-8.655992759270318e-07
3886.3,-8.526894042308406e-07
3887.2,-8.394821010306865e-07
3888.1,-8.412921451485372e-07
3889.0,-8.572852522629273e-07
3889.9,-8.881743280549253e-07
3890.8,-9.446427956620504e-07
3891.7,-1.0021241281209374e-06
3892.6,-1.0586030030217341e-06
3893.5,-1.0982105067914832e-06
3894.4,-1.1170681629560575e-06
3895.3,-1.1340045459294674e-06
3896.2,-1.137788546145467e-06
3897.1,-1.14030700621772e-06
3898.0,-1.143275451573383e-06
3898.9,-1.1529430650237996e-06
3899.8,-1.153781998391285e-06
3900.7,-1.1569351387673255e-06
3901.6,-1.154133557650357e-06
3902.51,-1.1458924810864652e-06
3903.41,-1.1385868527978794e-06
3904.31,-1.1286883512736182e-06
3905.21,-1.116871619113815e-06
3906.11,-1.1183710938788594e-06
3907.01,-1.1397884825566775e-06
3907.91,-1.183121039813166e-06
3908.81,-1.2304501736004302e-06
3909.71,-1.276918316080525e-06
3910.61,-1.3323644354478128e-06
3911.51,-1.3709319073072513e-06
3912.41,-1.3994651285602081e-06
3913.31,-1.410469664215371e-06
3914.21,-1.4168137258186521e-06
3915.11,-1.4010772976579703e-06
3916.01,-1.3865303132309826e-06
3916.91,-1.3608313085126587e-06
3917.81,-1.33014225423549e-06
3918.71,-1.2825344087393275e-06
3919.61,-1.2388683980361849e-06
3920.51,-1.1864564128896409e-06
3921.41,-1.1495301950041883e-06
3922.31,-1.1157906394324732e-06
3923.21,-1.1036581603963788e-06
3924.11,-1.0832315902463592e-06
3925.01,-1.0704063194593977e-06
3925.91,-1.038258067773957e-06
3926.81,-9.83715261244632e-07
3927.71,-9.120343395553639e-07
3928.61,-8.277994752812619e-07
3929.51,-7.334331046999735e-07
3930.41,-6.417533790663719e-07
3931.31,-5.624757572254344e-07
3932.21,-4.911319132553237e-07
3933.11,-4.4098327056176953e-07
3934.01,-4.145488577279681e-07
3934.91,-4.150945486198972e-07
3935.81,-4.439466852027611e-07
3936.71,-4.985321260054265e-07
3937.61,-5.726081685815716e-07
3938.51,-6.64900050293335e-07
3939.42,-7.598701421937513e-07
3940.32,-8.479239097917503e-07
3941.22,-9.182118227323963e-07
3942.12,-9.743351557791107e-07
3943.02,-1.019055535168238e-06
3943.92,-1.0609178522777737e-06
3944.82,-1.109258212384325e-06
3945.72,-1.1661623464057133e-06
3946.62,-1.2345434103811654e-06
3947.52,-1.3005461732370053e-06
3948.42,-1.3686143236998363e-06
3949.32,-1.4235339938008133e-06
3950.22,-1.4728498456569437e-06
3951.12,-1.512227811077847e-06
3952.02,-1.541632135928986e-06
3952.92,-1.5660207516079925e-06
3953.82,-1.5755007810017853e-06
3954.72,-1.582284134945169e-06
3955.62,-1.5788628600454429e-06
3956.52,-1.5670913933817554e-06
3957.42,-1.5509184800448268e-06
3958.32,-1.5179949944111832e-06
3959.22,-1.4853038048785055e-06
3960.12,-1.4202255242940723e-06
3961.02,-1.3357855122909507e-06
3961.92,-1.239294671964753e-06
3962.82,-1.1339754130769188e-06
3963.72,-1.038911952755258e-06
3964.62,-9.407320848073894e-07
3965.52,-8.457372040877727e-07
3966.42,-7.564344429453088e-07
3967.32,-6.72118153408052e-07
3968.22,-6.040440758452906e-07
3969.12,-5.67475375636089e-07
3970.02,-5.698607789597723e-07
3970.92,-6.133069672058434e-07
3971.82,-6.85812137692755e-07
3972.72,-7.940507500275161e-07
3973.62,-9.157851075887679e-07
3974.52,-1.0500094501102586e-06
3975.42,-1.1805722153522398e-06
3976.32,-1.3162959176086454e-06
3977.22,-1.4438423903370622e-06
3978.13,-1.565056304339362e-06
3979.03,-1.671369504254669e-06
3979.93,-1.758277690535337e-06
3980.83,-1.8269393481046133e-06
3981.73,-1.875940184568339e-06
3982.63,-1.901717280640045e-06
3983.53,-1.9318108605708793e-06
3984.43,-1.944765981600715e-06
3985.33,-1.9752143962029418e-06
3986.23,-2.0049391960012133e-06
3987.13,-2.041179455070338e-06
3988.03,-2.0836299825623316e-06
3988.93,-2.112457012852676e-06
3989.83,-2.1440440339138123e-06
3990.73,-2.1713607785035864e-06
3991.63,-2.193625923866386e-06
3992.53,-2.2142647591428173e-06
3993.43,-2.231070056962137e-06
3994.33,-2.2305957404329474e-06
3995.23,-2.231863787052346e-06
3996.13,-2.2098275045373114e-06
3997.03,-2.187722676394356e-06
3997.93,-2.2058849297825655e-06
3998.83,-2.2339235740493592e-06
3999.73,-2.2584238675755205e-06
4000.63,-2.322159094176413e-06
4001.53,-2.3650872403182166e-06
4002.43,-2.3901758783782764e-06
4003.33,-2.4067826047699826e-06
4004.23,-2.3702255719956846e-06
4005.13,-2.3249712669059283e-06
4006.03,-2.2977306794150233e-06
4006.93,-2.2878946039256623e-06
4007.83,-2.298670567566038e-06
4008.73,-2.3433848244784634e-06
4009.63,-2.3909130970557087e-06
4010.53,-2.4643119374994223e-06
4011.43,-2.513650781382732e-06
4012.33,-2.551341251737743e-06
4013.23,-2.5871352419286916e-06
4014.13,-2.5974541248055492e-06
4015.03,-2.6243602464179953e-06
4015.93,-2.637663280976664e-06
4016.84,-2.648980794618243e-06
4017.74,-2.645937445782068e-06
4018.64,-2.6639162019007846e-06
4019.54,-2.670940484687036e-06
4020.44,-2.681117977450621e-06
4021.34,-2.70221166978543e-06
4022.24,-2.7023252930609573e-06
4023.14,-2.7119009294263635e-06
4024.04,-2.732492872666343e-06
4024.94,-2.7201512381776086e-06
4025.84,-2.7499383516807032e-06
4026.74,-2.782108612080878e-06
4027.64,-2.7924683826042418e-06
4028.54,-2.7835347691898357e-06
4029.44,-2.7516411851463968e-06
4030.34,-2.687586758861685e-06
4031.24,-2.6030770048257916e-06
4032.14,-2.5144881675518455e-06
4033.04,-2.4570711307543437e-06
4033.94,-2.4439133288738984e-06
4034.84,-2.481094404698158e-06
4035.74,-2.570242983503542e-06
4036.64,-2.6932852614712895e-06
4037.54,-2.803017600535324e-06
4038.44,-2.9003357172537036e-06
4039.34,-2.954464963223549e-06
4040.24,-2.982558544202461e-06
4041.14,-2.985919567795094e-06
4042.04,-2.9377814284760957e-06
4042.94,-2.839212701982537e-06
4043.84,-2.741030675578664e-06
4044.74,-2.615564665631628e-06
4045.64,-2.5309155779565567e-06
4046.54,-2.4868470471556895e-06
4047.44,-2.507934329673446e-06
4048.34,-2.602363192380906e-06
4049.24,-2.732016240694785e-06
4050.14,-2.855950914903581e-06
4051.04,-2.9637413451394988e-06
4051.94,-3.0282833669485396e-06
4052.84,-3.0496953954632424e-06
4053.74,-3.031625169659996e-06
4054.65,-2.9879436884095047e-06
4055.55,-2.9487559791353873e-06
4056.45,-2.911204529408212e-06
4057.35,-2.8865702212529604e-06
4058.25,-2.872774787357807e-06
4059.15,-2.8718599902011546e-06
4060.05,-2.8850612724147724e-06
4060.95,-2.875500922603709e-06
4061.85,-2.861943442371082e-06
4062.75,-2.8107356528329804e-06
4063.65,-2.7478997109510685e-06
4064.55,-2.7161229649612507e-06
4065.45,-2.7139000150565226e-06
4066.35,-2.761470371800771e-06
4067.25,-2.8282020552378954e-06
4068.15,-2.9203365853515782e-06
4069.05,-2.9908944534634826e-06
4069.95,-3.044635876462029e-06
4070.85,-3.0490892133980787e-06
4071.75,-3.0428367748154595e-06
4072.65,-3.04725771215799e-06
4073.55,-3.0470193477484e-06
4074.45,-3.0198667338599384e-06
4075.35,-3.0206541002764543e-06
4076.25,-3.0061236019154887e-06
4077.15,-2.982026938046299e-06
4078.05,-2.9802462068603445e-06
4078.95,-3.020309132490501e-06
4079.85,-3.081468305622375e-06
4080.75,-3.1869526060338347e-06
4081.65,-3.296700397932561e-06
4082.55,-3.3716263466598955e-06
4083.45,-3.4273875232408993e-06
4084.35,-3.462278317943561e-06
4085.25,-3.479434705084783e-06
4086.15,-3.538447767000153e-06
4087.05,-3.6247393775864867e-06
4087.95,-3.695298274290828e-06
4088.85,-3.7850735382150815e-06
4089.75,-3.858412763163831e-06
4090.65,-3.881052269688236e-06
4091.55,-3.877991304614277e-06
4092.45,-3.866136929377454e-06
4093.36,-3.801712095368639e-06
4094.26,-3.766837890883155e-06
4095.16,-3.6800129738468956e-06
4096.06,-3.6302056151656616e-06
4096.96,-3.5181728304398523e-06
4097.86,-3.438784785739229e-06
4098.76,-3.359796080201863e-06
4099.66,-3.268076610506352e-06
4100.56,-3.181375370815285e-06
4101.46,-3.1129685563982964e-06
4102.36,-3.0929411145470663e-06
4103.26,-3.1151534263508814e-06
4104.16,-3.1802223159763383e-06
4105.06,-3.3026280450660918e-06
4105.96,-3.4352613269559034e-06
4106.86,-3.5766415401212825e-06
4107.76,-3.6674339095701454e-06
4108.66,-3.7442238738762664e-06
4109.56,-3.7606788656538893e-06
4110.46,-3.7735403999197965e-06
4111.36,-3.772401986380217e-06
4112.26,-3.8128390749378144e-06
4113.16,-3.8679905723093815e-06
4114.06,-3.934961815909169e-06
4114.96,-3.975900684413983e-06
4115.86,-4.025238899881114e-06
4116.76,-4.047566606401606e-06
4117.66,-4.040899397079521e-06
4118.56,-4.020749717615049e-06
4119.46,-3.993187344844702e-06
4120.36,-3.984770482302433e-06
4121.26,-3.989098909041181e-06
4122.16,-3.988195130388374e-06
4123.06,-4.003666796342085e-06
4123.96,-4.065123579419653e-06
4124.86,-4.086156097057589e-06
4125.76,-4.096351030429904e-06
4126.66,-4.125695084057197e-06
4127.56,-4.109012153083016e-06
4128.46,-4.060095504332156e-06
4129.36,-4.007948507182498e-06
4130.26,-3.967253522883831e-06
4131.17,-3.8813812710409356e-06
4132.06,-3.8415679304551135e-06
4132.97,-3.778172851799769e-06
4133.87,-3.790917567570153e-06
4134.77,-3.848237729279104e-06
4135.67,-3.945091554466858e-06
4136.57,-4.050645801594385e-06
4137.47,-4.175677676013294e-06
4138.37,-4.302995169802224e-06
4139.27,-4.337596112233908e-06
4140.17,-4.345573735278217e-06
4141.07,-4.291529195015374e-06
4141.97,-4.1917052790633295e-06
4142.87,-4.085518904851159e-06
4143.77,-3.997446500868894e-06
4144.67,-3.932978748173613e-06
4145.57,-3.961152497886796e-06
4146.47,-4.010453945482577e-06
4147.37,-4.091812272867763e-06
4148.27,-4.183667122262947e-06
4149.17,-4.234497159675495e-06
4150.07,-4.2980022203525455e-06
4150.97,-4.2936278476959085e-06
4151.87,-4.282953485150844e-06
4152.77,-4.25576080826192e-06
4153.67,-4.2447988510819426e-06
4154.57,-4.250627839146701e-06
4155.47,-4.2509305087842495e-06
4156.37,-4.275342809584609e-06
4157.27,-4.340399344793457e-06
4158.17,-4.394696677779179e-06
4159.07,-4.513317884554167e-06
4159.97,-4.6082247405274e-06
4160.87,-4.698500691977743e-06
4161.77,-4.792985530925015e-06
4162.67,-4.850766352138929e-06
4163.57,-4.877972897291783e-06
4164.47,-4.89184440995951e-06
4165.37,-4.858240560388294e-06
4166.27,-4.844499207474902e-06
4167.17,-4.8009154404344036e-06
4168.07,-4.75822485056814e-06
4168.98,-4.710387879041837e-06
4169.88,-4.7045014905539025e-06
4170.78,-4.631195892404056e-06
4171.68,-4.56321274796429e-06
4172.58,-4.48755562565125e-06
4173.48,-4.445978953692475e-06
4174.38,-4.407461836352717e-06
4175.28,-4.403521437628359e-06
4176.18,-4.424270775627693e-06
4177.08,-4.502952963459321e-06
4177.98,-4.583423265052741e-06
4178.88,-4.638952979033321e-06
4179.78,-4.6926555197552934e-06
4180.68,-4.741469810192538e-06
4181.58,-4.794932539756922e-06
4182.48,-4.832534093071056e-06
4183.38,-4.864202487580549e-06
4184.28,-4.90572974139832e-06
4185.18,-4.906394731566673e-06
4186.08,-4.941604515088127e-06
4186.98,-4.933397017619717e-06
4187.88,-4.9076656755142995e-06
4188.78,-4.920689942143886e-06
4189.68,-4.94409631293606e-06
4190.58,-5.001908172617097e-06
4191.48,-5.10399305591576e-06
4192.38,-5.164479694872043e-06
4193.28,-5.227158613059044e-06
4194.18,-5.232569169254369e-06
4195.08,-5.216383031758767e-06
4195.98,-5.147964552924976e-06
4196.88,-5.0350897698027305e-06
4197.78,-4.940859550240965e-06
4198.68,-4.840330887130597e-06
4199.58,-4.790909289767926e-06
4200.48,-4.7659406430266855e-06
4201.38,-4.797206810367216e-06
4202.28,-4.840445547833868e-06
4203.18,-4.946004697339611e-06
4204.08,-5.050826535109772e-06
4204.98,-5.187821985332075e-06
4205.88,-5.369775407308395e-06
4206.79,-5.503676075785893e-06
4207.69,-5.606425532141603e-06
4208.59,-5.7417752891858164e-06
4209.49,-5.786241673296216e-06
4210.39,-5.846066137037873e-06
4211.29,-5.843168134985435e-06
4212.19,-5.847548592236415e-06
4213.09,-5.790340332880793e-06
4213.99,-5.781097704220926e-06
4214.89,-5.678987764174516e-06
4215.79,-5.685089293157916e-06
4216.69,-5.70365939248818e-06
4217.59,-5.759389355485775e-06
4218.49,-5.848648822665382e-06
4219.39,-5.989963061699419e-06
4220.29,-6.1028347910711905e-06
4221.19,-6.095457168734735e-06
4222.09,-6.0389887075968126e-06
4222.99,-5.868915213776936e-06
4223.89,-5.586599510020907e-06
4224.79,-5.263549882520058e-06
4225.69,-4.966501702155185e-06
4226.59,-4.71723922902266e-06
4227.49,-4.643010298985082e-06
4228.39,-4.710128994237838e-06
4229.29,-4.917691292136537e-06
4230.19,-5.228641770263779e-06
4231.09,-5.554437041314558e-06
4231.99,-5.795930516114669e-06
4232.89,-5.987449858302071e-06
4233.79,-6.043513657383597e-06
4234.69,-6.030753280535375e-06
4235.59,-6.015145802263202e-06
4236.49,-5.966424237148e-06
4237.39,-5.985023458894657e-06
4238.29,-5.994989327532968e-06
4239.19,-6.078638064929713e-06
4240.09,-6.166105741074269e-06
4240.99,-6.335483754593657e-06
4241.89,-6.450843264600091e-06
4242.79,-6.6046053283187e-06
4243.69,-6.755509433767155e-06
4244.59,-6.844415409375565e-06
4245.5,-6.914574398929968e-06
4246.4,-6.8596456529467825e-06
4247.3,-6.77775490196211e-06
4248.2,-6.628451359966831e-06
4249.1,-6.4836761559953496e-06
4250.0,-6.365133429163994e-06
4250.9,-6.271396046257583e-06
4251.8,-6.226837767597711e-06
4252.7,-6.257909675269967e-06
4253.6,-6.28509031021603e-06
4254.5,-6.365184251939587e-06
4255.4,-6.416677571105573e-06
4256.3,-6.497100908096956e-06
4257.2,-6.526431863144407e-06
4258.1,-6.556490604625105e-06
4259.0,-6.592009259956577e-06
4259.9,-6.557172273230023e-06
4260.8,-6.574956187191648e-06
4261.7,-6.5880186950838775e-06
4262.6,-6.755103638571811e-06
4263.5,-6.952794405944814e-06
4264.4,-7.182625714718465e-06
4265.3,-7.389209914194519e-06
4266.2,-7.5054093379275405e-06
4267.1,-7.550368155335711e-06
4268.0,-7.413074296735232e-06
4268.9,-7.215077819907047e-06
4269.8,-6.944000724601934e-06
4270.7,-6.661581634408476e-06
4271.6,-6.3913177971978205e-06
4272.5,-6.1674018597572e-06
4273.4,-6.0533155700450694e-06
4274.3,-6.100837256611256e-06
4275.2,-6.237470531503083e-06
4276.1,-6.4973475836299e-06
4277.0,-6.772579508160989e-06
4277.9,-7.045287253070976e-06
4278.8,-7.294322414392328e-06
4279.7,-7.42695621971822e-06
