wave,flux
3700.85,-5.985025017525352e-07
3701.75,-5.919838030776447e-07
3702.65,-5.783673456821168e-07
3703.55,-5.534708243419258e-07
3704.45,-5.313172824156938e-07
3705.35,-5.128920666403383e-07
3706.25,-5.046828476138304e-07
3707.15,-5.023658321103749e-07
3708.05,-5.041974758310584e-07
3708.96,-5.131094717552811e-07
3709.86,-5.205585126860426e-07
3710.76,-5.32734202914519e-07
3711.66,-5.440918894366412e-07
3712.56,-5.595542513044709e-07
3713.46,-5.76232668624347e-07
3714.36,-5.992962117159484e-07
3715.26,-6.142091398898407e-07
3716.16,-6.246128491949875e-07
3717.06,-6.233368081761034e-07
3717.96,-6.08019709194903e-07
3718.86,-5.829675041926953e-07
3719.76,-5.555360122494632e-07
3720.66,-5.223605209850882e-07
3721.56,-4.970466125318597e-07
3722.46,-4.876899443199486e-07
3723.36,-4.968222718455827e-07
3724.26,-5.206245374673736e-07
3725.16,-5.488398085563758e-07
3726.06,-5.765767118225497e-07
3726.96,-5.929609046837875e-07
3727.86,-6.049915354273218e-07
3728.76,-6.081232724698984e-07
3729.66,-6.069877486769479e-07
3730.56,-5.955866709989683e-07
3731.46,-5.779955084802561e-07
3732.36,-5.492341672578687e-07
3733.26,-5.158670243664117e-07
3734.16,-4.849259739070167e-07
3735.06,-4.597354898064791e-07
3735.96,-4.5181550865578544e-07
3736.86,-4.605299255094918e-07
3737.76,-4.842897706557505e-07
3738.66,-5.183488963044095e-07
3739.56,-5.567835545886399e-07
3740.46,-5.90312937567167e-07
3741.36,-6.122760531279644e-07
3742.26,-6.193894624463076e-07
3743.16,-6.169886603798064e-07
3744.06,-6.039719536970236e-07
3744.96,-5.84648806607514e-07
3745.86,-5.613978119073455e-07
3746.76,-5.366361006631172e-07
3747.67,-5.095247792510488e-07
3748.57,-4.853615973575377e-07
3749.47,-4.7140255707092044e-07
3750.37,-4.7014172817702525e-07
3751.27,-4.869723308678987e-07
3752.17,-5.175135285294983e-07
3753.07,-5.596910290317581e-07
3753.97,-6.046307788187744e-07
3754.87,-6.368096827502708e-07
3755.77,-6.586730655907977e-07
3756.67,-6.649564258912263e-07
3757.57,-6.556176535235001e-07
3758.47,-6.41470480038379e-07
3759.37,-6.309395523100537e-07
3760.27,-6.255232130601549e-07
3761.17,-6.301306440890745e-07
3762.07,-6.383371028458459e-07
3762.97,-6.490252659387737e-07
3763.87,-6.60464005813702e-07
3764.77,-6.637752931446804e-07
3765.67,-6.629688125794735e-07
3766.57,-6.554043406694799e-07
3767.47,-6.37911973530657e-07
3768.37,-6.257165229040138e-07
3769.27,-6.083488732185199e-07
3770.17,-5.957357332942417e-07
3771.07,-5.911144407551355e-07
3771.97,-5.998240937381537e-07
3772.87,-6.186705644849002e-07
3773.77,-6.431856569830582e-07
3774.67,-6.64539378832866e-07
3775.57,-6.901265809121018e-07
3776.47,-7.079480685971997e-07
3777.37,-7.254923012140121e-07
3778.27,-7.441813425342049e-07
3779.17,-7.628727640038498e-07
3780.07,-7.795833369734749e-07
3780.97,-7.934702303490695e-07
3781.87,-8.043394854372152e-07
3782.77,-8.100700074913565e-07
3783.67,-8.098081254035511e-07
3784.57,-8.031640157005654e-07
3785.47,-7.89995715153013e-07
3786.38,-7.754075486075484e-07
3787.28,-7.558840488292993e-07
3788.18,-7.434164300062446e-07
3789.08,-7.26297833542053e-07
3789.98,-7.214164990103844e-07
3790.88,-7.158366685552872e-07
3791.78,-7.114377323946059e-07
3792.68,-7.010047968145017e-07
3793.58,-6.846785058877716e-07
3794.48,-6.604306707766216e-07
3795.38,-6.339355770150703e-07
3796.28,-6.08147888233492e-07
3797.18,-5.837000985770472e-07
3798.08,-5.688000588824875e-07
3798.98,-5.648003230892362e-07
3799.88,-5.809928797322287e-07
3800.78,-6.133195156177607e-07
3801.68,-6.542552368461627e-07
3802.58,-6.996393164085629e-07
3803.48,-7.40156109411207e-07
3804.38,-7.699174410160522e-07
3805.28,-7.884488998051846e-07
3806.18,-7.975649632372513e-07
3807.08,-8.038631269470559e-07
3807.98,-8.073994225415028e-07
3808.88,-8.157267050966272e-07
3809.78,-8.225998710126535e-07
3810.68,-8.272159671647962e-07
3811.58,-8.267538960310971e-07
3812.48,-8.17421783550693e-07
3813.38,-8.015667882393775e-07
3814.28,-7.79203169196134e-07
3815.18,-7.676174583385391e-07
3816.08,-7.605409698447605e-07
3816.98,-7.558311399856013e-07
3817.88,-7.564883485641737e-07
3818.78,-7.558251736105009e-07
3819.68,-7.572243686783585e-07
3820.58,-7.51685303561065e-07
3821.48,-7.461356327435188e-07
3822.38,-7.42159975430236e-07
3823.28,-7.314438046891592e-07
3824.18,-7.226838906070991e-07
3825.09,-7.070723119047648e-07
3825.99,-6.926577975335872e-07
3826.89,-6.772418380665009e-07
3827.79,-6.686584459916265e-07
3828.69,-6.577806059499432e-07
3829.59,-6.48641594229587e-07
3830.49,-6.334531678652822e-07
3831.39,-6.170289700702653e-07
3832.29,-5.915910025608953e-07
3833.19,-5.634903541595327e-07
3834.09,-5.366796530081713e-07
3834.99,-5.165345354583746e-07
3835.89,-5.0631921270779e-07
3836.79,-5.070455004479781e-07
3837.69,-5.18185101344181e-07
3838.59,-5.350652976068653e-07
3839.49,-5.636579540604206e-07
3840.39,-5.94245950784577e-07
3841.29,-6.322742764332987e-07
3842.19,-6.702729661525991e-07
3843.09,-7.101574589339404e-07
3843.99,-7.476353551925775e-07
3844.89,-7.774058491769517e-07
3845.79,-7.996463572578322e-07
3846.69,-8.154962961179215e-07
3847.59,-8.280236987518487e-07
3848.49,-8.33665930642937e-07
3849.39,-8.396171437129088e-07
3850.29,-8.466101374005208e-07
3851.19,-8.496192567842019e-07
3852.09,-8.535333126284281e-07
3852.99,-8.604900057248034e-07
3853.89,-8.624833181389559e-07
3854.79,-8.610704738317462e-07
3855.69,-8.578813553435508e-07
3856.59,-8.401195740063275e-07
3857.49,-8.277541916715159e-07
3858.39,-8.124468825504712e-07
3859.29,-8.049009654672636e-07
3860.19,-8.057764806506336e-07
3861.09,-8.075613536324801e-07
3861.99,-8.228173655490565e-07
3862.9,-8.481528207323628e-07
3863.8,-8.663070421063127e-07
3864.7,-8.807463060518765e-07
3865.6,-8.928797182438844e-07
3866.5,-8.929249390008412e-07
3867.4,-8.958814327774861e-07
3868.3,-8.977244428841983e-07
3869.2,-8.893602021367039e-07
3870.1,-8.810817822672754e-07
3871.0,-8.652432445274072e-07
3871.9,-8.486265596944238e-07
3872.8,-8.288804402421067e-07
3873.7,-8.172076808368449e-07
3874.6,-8.18815226194886e-07
3875.5,-8.187523217763285e-07
3876.4,-8.18654581906539e-07
3877.3,-8.197190299009679e-07
3878.2,-8.149307076160678e-07
3879.1,-8.136967174835304e-07
3880.0,-8.094416423453898e-07
3880.9,-8.064483642077668e-07
3881.8,-8.03552090709482e-07
3882.7,-8.013033959208081e-07
3883.6,-7.919927746872098e-07
3884.5,-7.727062021550987e-07
3885.4,-7.44174751149051e-07
3886.3,-7.130353678481762e-07
3887.2,-6.801101393354691e-07
3888.1,-6.534525136343144e-07
3889.0,-6.304144536848619e-07
3889.9,-6.279495941862273e-07
3890.8,-6.41259794933854e-07
3891.7,-6.666398724153209e-07
3892.6,-7.018996495707654e-07
3893.5,-7.301992295816252e-07
3894.4,-7.607438939924733e-07
3895.3,-7.827037922437067e-07
3896.2,-7.990193279100826e-07
3897.1,-8.101634397672571e-07
3898.0,-8.283505877343475e-07
3898.9,-8.364989876905708e-07
3899.8,-8.432267750626837e-07
3900.7,-8.51262872698673e-07
3901.6,-8.599445897725892e-07
3902.51,-8.572073634420834e-07
3903.41,-8.58601539892094e-07
3904.31,-8.570436181393624e-07
3905.21,-8.565734379787077e-07
3906.11,-8.518033239711238e-07
3907.01,-8.618355598576042e-07
3907.91,-8.719564868422468e-07
3908.81,-8.909639700753329e-07
3909.71,-9.064697733635886e-07
3910.61,-9.316674183007013e-07
3911.51,-9.45254691820469e-07
3912.41,-9.538662674694365e-07
3913.31,-9.526961549584891e-07
3914.21,-9.475438763477543e-07
3915.11,-9.417412123815805e-07
3916.01,-9.309792322670917e-07
3916.91,-9.227974757500569e-07
3917.81,-9.123530876997472e-07
3918.71,-8.994969704355158e-07
3919.61,-8.867948864894569e-07
3920.51,-8.76536086446287e-07
3921.41,-8.670808328709856e-07
3922.31,-8.604378318184509e-07
3923.21,-8.56148766459104e-07
3924.11,-8.524254393896989e-07
3925.01,-8.357598918139563e-07
3925.91,-8.16113634177589e-07
3926.81,-7.796555580397151e-07
3927.71,-7.365351902100228e-07
3928.61,-6.775375574124462e-07
3929.51,-6.156495488958915e-07
3930.41,-5.437091094012907e-07
3931.31,-4.7553952420922116e-07
3932.21,-4.1089813103800674e-07
3933.11,-3.582336799209006e-07
3934.01,-3.2733215346882123e-07
3934.91,-3.223858410207507e-07
3935.81,-3.44743078007524e-07
3936.71,-3.90349065484516e-07
3937.61,-4.5463861571887893e-07
3938.51,-5.276475563476514e-07
3939.42,-6.024040341188546e-07
3940.32,-6.654303581633818e-07
3941.22,-7.230203381644896e-07
3942.12,-7.629426898498218e-07
3943.02,-7.932015049413316e-07
3943.92,-8.238463520182605e-07
3944.82,-8.448653084837033e-07
3945.72,-8.642711123212588e-07
3946.62,-8.827206117763858e-07
3947.52,-9.03227102338938e-07
3948.42,-9.155248500017029e-07
3949.32,-9.264816248542606e-07
3950.22,-9.370526214097044e-07
3951.12,-9.454276874215284e-07
3952.02,-9.5045503826543e-07
3952.92,-9.549363549290962e-07
3953.82,-9.60425071680476e-07
3954.72,-9.62884671577942e-07
3955.62,-9.622695032323213e-07
3956.52,-9.597218523225107e-07
3957.42,-9.537125847983328e-07
3958.32,-9.443063286607321e-07
3959.22,-9.262808932868194e-07
3960.12,-9.085935385275028e-07
3961.02,-8.832623977219645e-07
3961.92,-8.49145762743048e-07
3962.82,-8.027805046237913e-07
3963.72,-7.491448241092893e-07
3964.62,-6.855597476484534e-07
3965.52,-6.176940839940067e-07
3966.42,-5.445229672316842e-07
3967.32,-4.76958544397464e-07
3968.22,-4.165578313182667e-07
3969.12,-3.800072391081388e-07
3970.02,-3.7072205119142447e-07
3970.92,-3.8811239902190323e-07
3971.82,-4.3427980674920046e-07
3972.72,-4.988869399048306e-07
3973.62,-5.749175945782742e-07
3974.52,-6.496159916967985e-07
3975.42,-7.207059892282049e-07
3976.32,-7.844624236189522e-07
3977.22,-8.44241164627783e-07
3978.13,-8.94761307952914e-07
3979.03,-9.358640421333737e-07
3979.93,-9.716788631279234e-07
3980.83,-9.907268424037874e-07
3981.73,-1.0105726186649087e-06
3982.63,-1.0155355022419462e-06
3983.53,-1.0287951802500578e-06
3984.43,-1.0397472055132043e-06
3985.33,-1.0445200872361344e-06
3986.23,-1.0552381886583834e-06
3987.13,-1.0674327391323237e-06
3988.03,-1.0791891497838707e-06
3988.93,-1.089008096058268e-06
3989.83,-1.101728496923304e-06
3990.73,-1.1125095386203549e-06
3991.63,-1.1196507547409848e-06
3992.53,-1.1262649251545825e-06
3993.43,-1.132427723424844e-06
3994.33,-1.1285960668398099e-06
3995.23,-1.1256843533704007e-06
3996.13,-1.115606060899977e-06
3997.03,-1.1055465759061104e-06
3997.93,-1.1014001689780896e-06
3998.83,-1.1046198438301699e-06
3999.73,-1.112079646605126e-06
4000.63,-1.127486037582886e-06
4001.53,-1.1381720508665704e-06
4002.43,-1.148332108035206e-06
4003.33,-1.1504768373627406e-06
4004.23,-1.1509072323838167e-06
4005.13,-1.1366069458544427e-06
4006.03,-1.1290838769934721e-06
4006.93,-1.126400011715385e-06
4007.83,-1.1328011703339624e-06
4008.73,-1.1436066184912114e-06
4009.63,-1.1540392377829877e-06
4010.53,-1.1701103964406353e-06
4011.43,-1.1815698725059597e-06
4012.33,-1.1856484118465881e-06
4013.23,-1.1887092330024868e-06
4014.13,-1.1890926406925756e-06
4015.03,-1.1985179215122315e-06
4015.93,-1.1975659541062592e-06
4016.84,-1.2007382737822858e-06
4017.74,-1.2064373650163803e-06
4018.64,-1.2064388951025308e-06
4019.54,-1.2127873670670142e-06
4020.44,-1.21565246954246e-06
4021.34,-1.2190389171807457e-06
4022.24,-1.2181736983621162e-06
4023.14,-1.219456529269767e-06
4024.04,-1.2207010733779156e-06
4024.94,-1.225298856092198e-06
4025.84,-1.2274282851160498e-06
4026.74,-1.2260028695644773e-06
4027.64,-1.2375390751757881e-06
4028.54,-1.238522098827457e-06
4029.44,-1.2233086591502882e-06
4030.34,-1.2086270579101555e-06
4031.24,-1.1839946277087998e-06
4032.14,-1.1690444931639251e-06
4033.04,-1.1626373650893345e-06
4033.94,-1.1620181533394632e-06
4034.84,-1.1740181670154493e-06
4035.74,-1.1983911306643964e-06
4036.64,-1.2210323082693445e-06
4037.54,-1.245616661769433e-06
4038.44,-1.2659565603047284e-06
4039.34,-1.2796897583995231e-06
4040.24,-1.2768204665704268e-06
4041.14,-1.2779230327124991e-06
4042.04,-1.2620419056226993e-06
4042.94,-1.2480003268387922e-06
4043.84,-1.2257885484808108e-06
4044.74,-1.2076898114328195e-06
4045.64,-1.189351490849904e-06
4046.54,-1.1793470364896556e-06
4047.44,-1.1883671117289656e-06
4048.34,-1.1978536405763646e-06
4049.24,-1.2244323515519396e-06
4050.14,-1.2488890035277518e-06
4051.04,-1.2688789648451788e-06
4051.94,-1.2757245913903535e-06
4052.84,-1.2762523716063162e-06
4053.74,-1.2708555041454611e-06
4054.65,-1.2629074364047103e-06
4055.55,-1.2530744867225002e-06
4056.45,-1.2549817311361378e-06
4057.35,-1.2464420730349785e-06
4058.25,-1.2445825861583992e-06
4059.15,-1.2526504260212252e-06
4060.05,-1.2574605250586734e-06
4060.95,-1.2548157575042522e-06
4061.85,-1.251791454640161e-06
4062.75,-1.2434429963398473e-06
4063.65,-1.2267194870081854e-06
4064.55,-1.2165807839550237e-06
4065.45,-1.2174621992766509e-06
4066.35,-1.2211385048559346e-06
4067.25,-1.2269081574330607e-06
4068.15,-1.2417132201315163e-06
4069.05,-1.2558767809906228e-06
4069.95,-1.2590147049983076e-06
4070.85,-1.2671862831276875e-06
4071.75,-1.266815984616263e-06
4072.65,-1.2612798504326535e-06
4073.55,-1.255101701943415e-06
4074.45,-1.2479852257922615e-06
4075.35,-1.2332326871190124e-06
4076.25,-1.2191250754627783e-06
4077.15,-1.207900287414246e-06
4078.05,-1.1898539687493695e-06
4078.95,-1.1938368892196494e-06
4079.85,-1.2069658317861714e-06
4080.75,-1.2227451260497394e-06
4081.65,-1.2479229263638389e-06
4082.55,-1.2694143721331749e-06
4083.45,-1.2761226928853204e-06
4084.35,-1.2824179058507585e-06
4085.25,-1.2943845100579023e-06
4086.15,-1.3016874987608687e-06
4087.05,-1.3190240701842534e-06
4087.95,-1.3336190003461046e-06
4088.85,-1.3414056268433552e-06
4089.75,-1.3510879841863512e-06
4090.65,-1.3579201559379072e-06
4091.55,-1.360308485990155e-06
4092.45,-1.35300761285508e-06
4093.36,-1.3374633685591068e-06
4094.26,-1.3250962666408897e-06
4095.16,-1.2980793677370956e-06
4096.06,-1.2765201689909937e-06
4096.96,-1.248367283090333e-06
4097.86,-1.2088561943248123e-06
4098.76,-1.1660719731497228e-06
4099.66,-1.1218205494822969e-06
4100.56,-1.0692185379413876e-06
4101.46,-1.0272969788416614e-06
4102.36,-1.0076181405914156e-06
4103.26,-1.00924900524082e-06
4104.16,-1.0328164477923135e-06
4105.06,-1.0706457269595696e-06
4105.96,-1.1233006508995244e-06
4106.86,-1.1692182199528048e-06
4107.76,-1.2076373821101877e-06
4108.66,-1.2355682167919832e-06
4109.56,-1.2675281905936076e-06
4110.46,-1.2792583979048346e-06
4111.36,-1.2942935251696723e-06
4112.26,-1.3089626555617686e-06
4113.16,-1.3213348970912123e-06
4114.06,-1.3392618834772975e-06
4114.96,-1.3541027910621883e-06
4115.86,-1.3641770336074008e-06
4116.76,-1.369778838555624e-06
4117.66,-1.3761838683423123e-06
4118.56,-1.3689684792625788e-06
4119.46,-1.3608106252247736e-06
4120.36,-1.3514423483602397e-06
4121.26,-1.3576734143994655e-06
4122.16,-1.3597082075946674e-06
4123.06,-1.3558497992543794e-06
4123.96,-1.3688454471343986e-06
4124.86,-1.3699612683815895e-06
4125.76,-1.377080625144556e-06
4126.66,-1.3870612294458882e-06
4127.56,-1.3773696073808295e-06
4128.46,-1.3773791852929014e-06
4129.36,-1.3736382906601936e-06
4130.26,-1.3662252732235462e-06
4131.17,-1.3577828208905618e-06
4132.06,-1.348666508451369e-06
4132.97,-1.342428632914425e-06
4133.87,-1.3365665255013961e-06
4134.77,-1.3439822227679858e-06
4135.67,-1.3580631043714474e-06
4136.57,-1.3805832715765564e-06
4137.47,-1.4022909549792378e-06
4138.37,-1.4183155089809626e-06
4139.27,-1.4362203551190758e-06
4140.17,-1.4398421233078717e-06
4141.07,-1.4304497896529239e-06
4141.97,-1.4138879395001765e-06
4142.87,-1.400191533856631e-06
4143.77,-1.3825677522672432e-06
4144.67,-1.3717162728054412e-06
4145.57,-1.3739720082553235e-06
4146.47,-1.3903285980769149e-06
4147.37,-1.3984770925057767e-06
4148.27,-1.409374448810493e-06
4149.17,-1.424670710576071e-06
4150.07,-1.4262082426768727e-06
4150.97,-1.4206642694096938e-06
4151.87,-1.4260869996213016e-06
4152.77,-1.413295064826579e-06
4153.67,-1.4127605472418228e-06
4154.57,-1.4095169934448765e-06
4155.47,-1.409756265484684e-06
4156.37,-1.4110062725708433e-06
4157.27,-1.4181476296121858e-06
4158.17,-1.426131065961795e-06
4159.07,-1.4424282369441668e-06
4159.97,-1.4492953747078248e-06
4160.87,-1.462781109951844e-06
4161.77,-1.4796217813860578e-06
4162.67,-1.4832561391227045e-06
4163.57,-1.48759153525825e-06
4164.47,-1.4946243530562366e-06
4165.37,-1.4900636013251015e-06
4166.27,-1.4874444828656212e-06
4167.17,-1.4862145551358152e-06
4168.07,-1.4796263318209698e-06
4168.98,-1.469218146457038e-06
4169.88,-1.4610114642187578e-06
4170.78,-1.4448481976311983e-06
4171.68,-1.4177596875863088e-06
4172.58,-1.3967933003507936e-06
4173.48,-1.384356092365294e-06
4174.38,-1.3779415484158698e-06
4175.28,-1.3789755436640573e-06
4176.18,-1.385976863138818e-06
4177.08,-1.4024901306252781e-06
4177.98,-1.4154104535632023e-06
4178.88,-1.4176122084460408e-06
4179.78,-1.4467957822378903e-06
4180.68,-1.4459147871074844e-06
4181.58,-1.4570346501776003e-06
4182.48,-1.4583831690555183e-06
4183.38,-1.4654628738368663e-06
4184.28,-1.4698063156603626e-06
4185.18,-1.4661862477040458e-06
4186.08,-1.4617979681760939e-06
4186.98,-1.4617260286186069e-06
4187.88,-1.4579409787306225e-06
4188.78,-1.4614354070635848e-06
4189.68,-1.465174045671368e-06
4190.58,-1.4758874546252324e-06
4191.48,-1.4821777531617753e-06
4192.38,-1.4933574567418338e-06
4193.28,-1.4999146567570122e-06
4194.18,-1.5077775357592146e-06
4195.08,-1.5036152003347982e-06
4195.98,-1.502132227334379e-06
4196.88,-1.485313301345077e-06
4197.78,-1.460810286896015e-06
4198.68,-1.4445405285743323e-06
4199.58,-1.4411081831095571e-06
4200.48,-1.4357377367128572e-06
4201.38,-1.4264913497419306e-06
4202.28,-1.4273305194501412e-06
4203.18,-1.4368818442111485e-06
4204.08,-1.4477106613879537e-06
4204.98,-1.4595782938933425e-06
4205.88,-1.4793808536011684e-06
4206.79,-1.4899087587729355e-06
4207.69,-1.504769025777e-06
4208.59,-1.515032354815034e-06
4209.49,-1.5270694846560634e-06
4210.39,-1.5389830673880615e-06
4211.29,-1.5388083741752726e-06
4212.19,-1.5391698323345613e-06
4213.09,-1.5366927760417152e-06
4213.99,-1.5207399865460289e-06
4214.89,-1.5183842563930769e-06
4215.79,-1.5008574917867928e-06
4216.69,-1.4962149629346568e-06
4217.59,-1.498741698146365e-06
4218.49,-1.5116096073344659e-06
4219.39,-1.516618131941878e-06
4220.29,-1.5378136385318031e-06
4221.19,-1.5354994048442849e-06
4222.09,-1.536292936044509e-06
4222.99,-1.5114604810259827e-06
4223.89,-1.4822192796800725e-06
4224.79,-1.4445905033454711e-06
4225.69,-1.4073814677686914e-06
4226.59,-1.3762062311360037e-06
4227.49,-1.3672419001191106e-06
4228.39,-1.3740852215192991e-06
4229.29,-1.4126262372793566e-06
4230.19,-1.4435635029297019e-06
4231.09,-1.4794037831543614e-06
4231.99,-1.5070698221972858e-06
4232.89,-1.526086787989156e-06
4233.79,-1.5295190353865819e-06
4234.69,-1.5302504949876736e-06
4235.59,-1.5159814290811865e-06
4236.49,-1.5114252300741172e-06
4237.39,-1.5030883945959693e-06
4238.29,-1.5034894718081598e-06
4239.19,-1.518296392573328e-06
4240.09,-1.5295518775283478e-06
4240.99,-1.5411820610155168e-06
4241.89,-1.5574825281858732e-06
4242.79,-1.5707294916977205e-06
4243.69,-1.5729149795172492e-06
4244.59,-1.5790563130097685e-06
4245.5,-1.5801029775501509e-06
4246.4,-1.5687429349772433e-06
4247.3,-1.5568504911914078e-06
4248.2,-1.5395904286320186e-06
4249.1,-1.5265726500416478e-06
4250.0,-1.52209256028303e-06
4250.9,-1.5295952534608674e-06
4251.8,-1.5325652194845936e-06
4252.7,-1.5480173512005986e-06
4253.6,-1.5565889341599422e-06
4254.5,-1.5643567005306334e-06
4255.4,-1.565727416618612e-06
4256.3,-1.5702829214392713e-06
4257.2,-1.5773647058760749e-06
4258.1,-1.5815270350393213e-06
4259.0,-1.5698348884044935e-06
4259.9,-1.5646132672311462e-06
4260.8,-1.565520561331868e-06
4261.7,-1.5729885710132425e-06
4262.6,-1.5774713952300652e-06
4263.5,-1.5938665693024368e-06
4264.4,-1.6180652593527343e-06
4265.3,-1.6342726778208885e-06
4266.2,-1.643295210429473e-06
4267.1,-1.6428244370548579e-06
4268.0,-1.6414150084512224e-06
4268.9,-1.6202134900039626e-06
4269.8,-1.5900020972426554e-06
4270.7,-1.5679725559499476e-06
4271.6,-1.5279295224260063e-06
4272.5,-1.5176585990393974e-06
4273.4,-1.505952550972457e-06
4274.3,-1.507790651737109e-06
4275.2,-1.517183078884868e-06
