wave,flux
3700.85,-8.996650158800504e-05
3701.75,-8.89486549385243e-05
3702.65,-8.642338331765344e-05
3703.55,-8.241621592788154e-05
3704.45,-7.76346837549097e-05
3705.35,-7.407487109548137e-05
3706.25,-7.128764062032518e-05
3707.15,-7.002765180599886e-05
3708.05,-7.006734111582925e-05
3708.96,-7.175855369440208e-05
3709.86,-7.482750166730325e-05
3710.76,-7.879940611200407e-05
3711.66,-8.305117135167895e-05
3712.56,-8.762753305752343e-05
3713.46,-9.26272909592061e-05
3714.36,-9.643049236884559e-05
3715.26,-9.830527675076959e-05
3716.16,-9.883331714898383e-05
3717.06,-9.676630792801539e-05
3717.96,-9.228872096147977e-05
3718.86,-8.616158104196514e-05
3719.76,-7.943973326260685e-05
3720.66,-7.377501488367477e-05
3721.56,-7.026957567853148e-05
3722.46,-6.971201333930366e-05
3723.36,-7.289363875414667e-05
3724.26,-7.836961321334927e-05
3725.16,-8.399702806103624e-05
3726.06,-8.854653102498482e-05
3726.96,-9.136572708293777e-05
3727.86,-9.341855144089049e-05
3728.76,-9.377747832858354e-05
3729.66,-9.343436446279257e-05
3730.56,-9.22691265727593e-05
3731.46,-8.916694322846958e-05
3732.36,-8.460729070623187e-05
3733.26,-7.849217503235586e-05
3734.16,-7.240504780564053e-05
3735.06,-6.761339323233734e-05
3735.96,-6.54886524727796e-05
3736.86,-6.631053707324663e-05
3737.76,-7.002234413777542e-05
3738.66,-7.69886734094211e-05
3739.56,-8.451522879526336e-05
3740.46,-9.116521388162877e-05
3741.36,-9.572427646274294e-05
3742.26,-9.767602130820319e-05
3743.16,-9.606615954305109e-05
3744.06,-9.301670587431126e-05
3744.96,-8.831200673055598e-05
3745.86,-8.367827829266671e-05
3746.76,-7.926207071722925e-05
3747.67,-7.554282111144685e-05
3748.57,-7.309547374501902e-05
3749.47,-7.292818740023486e-05
3750.37,-7.517299865924864e-05
3751.27,-8.120098442896213e-05
3752.17,-8.918218564195942e-05
3753.07,-9.800496140438725e-05
3753.97,-0.00010663305559673745
3754.87,-0.00011327282403543241
3755.77,-0.00011536494547673299
3756.67,-0.00011572874504318412
3757.57,-0.00011273738678703372
3758.47,-0.00010780507348271454
3759.37,-0.00010490680326133528
3760.27,-0.00010357466761076477
3761.17,-0.00010431872957399827
3762.07,-0.00010720823639650852
3762.97,-0.00010988189866737728
3763.87,-0.00011161223898405408
3764.77,-0.00011307119344921608
3765.67,-0.00011400002407296292
3766.57,-0.00011400618415278474
3767.47,-0.00011442433076698784
3768.37,-0.00011485251922185573
3769.27,-0.00011553147609095556
3770.17,-0.00011737355801293386
3771.07,-0.00011996642455281423
3771.97,-0.0001237643517307101
3772.87,-0.0001279953422510302
3773.77,-0.00013266104887422895
3774.67,-0.00013664405789664993
3775.57,-0.00013963527775391412
3776.47,-0.00014274213291204916
3777.37,-0.00014513810885731916
3778.27,-0.00014827494707636096
3779.17,-0.0001516696860625965
3780.07,-0.00015510949637568945
3780.97,-0.00015903056289225332
3781.87,-0.00016161097472251895
3782.77,-0.00016345080510910855
3783.67,-0.00016380902991583278
3784.57,-0.00016205990011285146
3785.47,-0.00015894616846368612
3786.38,-0.00015428335989683414
3787.28,-0.00014915874032846337
3788.18,-0.000143708489151923
3789.08,-0.00014139547716848436
3789.98,-0.00013990560760177205
3790.88,-0.0001391163835491922
3791.78,-0.00014014533520853538
3792.68,-0.00013953432611334672
3793.58,-0.0001379236914840233
3794.48,-0.00013553197169153243
3795.38,-0.00013195891909816804
3796.28,-0.0001275938930782963
3797.18,-0.00012515014911885746
3798.08,-0.00012288402925189076
3798.98,-0.00012403109424774994
3799.88,-0.00012774378822412468
3800.78,-0.00013548243632604813
3801.68,-0.00014546072901210454
3802.58,-0.00015565087674906591
3803.48,-0.00016518594315344888
3804.38,-0.00017147872282357408
3805.28,-0.00017604467763364482
3806.18,-0.00017677237039988674
3807.08,-0.00017802709687952112
3807.98,-0.00017786218218022356
3808.88,-0.00017896121356309174
3809.78,-0.00018155761155731385
3810.68,-0.00018301595294167858
3811.58,-0.0001825644664057862
3812.48,-0.00017932207521123117
3813.38,-0.00017405120262466454
3814.28,-0.00016687521743348488
3815.18,-0.0001615641965626194
3816.08,-0.00015692378491106044
3816.98,-0.00015498020617037766
3817.88,-0.00015429811755519087
3818.78,-0.0001542306222808944
3819.68,-0.00015193289919146656
3820.58,-0.00015036228098160929
3821.48,-0.00014871999644478084
3822.38,-0.00014770879311597963
3823.28,-0.0001463692695586433
3824.18,-0.0001443710329473867
3825.09,-0.000140342721997715
3825.99,-0.0001367471998147959
3826.89,-0.00013346428100114707
3827.79,-0.00013112843621033104
3828.69,-0.00013071197798010176
3829.59,-0.00013110176380994672
3830.49,-0.00013142177905528364
3831.39,-0.0001295927769459705
3832.29,-0.00012687049581768689
3833.19,-0.00012317718531758306
3834.09,-0.00012086519581654286
3834.99,-0.00011892479821393447
3835.89,-0.00011918145600503151
3836.79,-0.00012040885671264134
3837.69,-0.0001225330882898593
3838.59,-0.00012447304928142987
3839.49,-0.00012893786205994744
3840.39,-0.0001351764068056052
3841.29,-0.0001450636052939454
3842.19,-0.00015687632519819088
3843.09,-0.00016964025069089064
3843.99,-0.0001823402695504449
3844.89,-0.00019344497614496006
3845.79,-0.00020121258163376712
3846.69,-0.000206871740457281
3847.59,-0.000210099129369848
3848.49,-0.00021112304362834707
3849.39,-0.00021325674770039118
3850.29,-0.00021194193039449132
3851.19,-0.00021305480504842255
3852.09,-0.00021393811509769068
3852.99,-0.00021516231599608585
3853.89,-0.00021567744083277816
3854.79,-0.00021459006245327003
3855.69,-0.00021122842827121625
3856.59,-0.00020648596647297152
3857.49,-0.000200095094501567
3858.39,-0.00019538408184325022
3859.29,-0.0001912014363880718
3860.19,-0.00019068114587760345
3861.09,-0.00019563208047345716
3861.99,-0.00020294749826943302
3862.9,-0.0002140506538171218
3863.8,-0.00022359764270911723
3864.7,-0.0002320322991572849
3865.6,-0.00023652646066825057
3866.5,-0.0002401167553910976
3867.4,-0.00024025042731331016
3868.3,-0.00023915774355319846
3869.2,-0.00023576498213404053
3870.1,-0.00023265759265171418
3871.0,-0.00022660203028340023
3871.9,-0.00022180250345931677
3872.8,-0.00021947934945870242
3873.7,-0.00022061214888705413
3874.6,-0.00022363558389012776
3875.5,-0.00023048366276165737
3876.4,-0.00023382959519942774
3877.3,-0.00023409031908582003
3878.2,-0.00023332558492818807
3879.1,-0.00023291909857517824
3880.0,-0.0002309461042231063
3880.9,-0.00023312579674530438
3881.8,-0.00023470146779757707
3882.7,-0.00023606880560095818
3883.6,-0.0002371399427319071
3884.5,-0.0002342851285208894
3885.4,-0.00023078482198020687
3886.3,-0.00022619020683815587
3887.2,-0.0002196608005396035
3888.1,-0.0002158650360728166
3889.0,-0.00021686234950149126
3889.9,-0.00022129482509444014
3890.8,-0.00023115385457168734
3891.7,-0.00024416589528778
3892.6,-0.00025610796041516417
3893.5,-0.000266983242719219
3894.4,-0.0002755038998187408
3895.3,-0.0002817832097737387
3896.2,-0.0002866937663910075
3897.1,-0.0002911814895555335
3898.0,-0.0002935763350313943
3898.9,-0.00029737076453803296
3899.8,-0.0003000265526711292
3900.7,-0.00030262424078927164
3901.6,-0.0003034339427495595
3902.51,-0.0003054867905768353
3903.41,-0.00030450099382938416
3904.31,-0.00030145998310569534
3905.21,-0.0003020521171029114
3906.11,-0.00030225278203886485
3907.01,-0.0003072599614356536
3907.91,-0.00031670870928229904
3908.81,-0.0003265717567276166
3909.71,-0.00033856472547289293
3910.61,-0.0003516072291503342
3911.51,-0.0003611915968530049
3912.41,-0.0003695745907821026
3913.31,-0.00037057947437036195
3914.21,-0.00037287616311653695
3915.11,-0.00037052532201987666
3916.01,-0.00036961971186838847
3916.91,-0.0003636438575698656
3917.81,-0.0003562029682875783
3918.71,-0.000352561416006
3919.61,-0.00034156687170307053
3920.51,-0.0003348349667673031
3921.41,-0.00032773476498002815
3922.31,-0.00032382080867564045
3923.21,-0.00032031687980631413
3924.11,-0.0003185155023144128
3925.01,-0.000313999876085157
3925.91,-0.00030584901395080104
3926.81,-0.0002905072226367763
3927.71,-0.0002724413658633064
3928.61,-0.0002478868104799034
3929.51,-0.0002215550410062317
3930.41,-0.00019394885752273223
3931.31,-0.00016826668097346013
3932.21,-0.00014628950327210148
3933.11,-0.00012929536575631673
3934.01,-0.00011972105620144161
3934.91,-0.00011962037470790165
3935.81,-0.00012851649501001452
3936.71,-0.0001461067089240753
3937.61,-0.00017134504743295228
3938.51,-0.00020101145308744434
3939.42,-0.0002313004959366988
3940.32,-0.0002597279028273355
3941.22,-0.00028344045855298897
3942.12,-0.00030395820469247917
3943.02,-0.00032123437907396145
3943.92,-0.00033681148176987417
3944.82,-0.00035007296874407974
3945.72,-0.0003651902263993426
3946.62,-0.0003833742515625177
3947.52,-0.00039978886974639664
3948.42,-0.0004148427005274828
3949.32,-0.0004291405435076035
3950.22,-0.0004413213779087376
3951.12,-0.0004525104955315275
3952.02,-0.00045996377322594776
3952.92,-0.0004672660710868436
3953.82,-0.000471004172785887
3954.72,-0.0004745805508577479
3955.62,-0.0004762464056478289
3956.52,-0.0004775270257276158
3957.42,-0.00047495916626262287
3958.32,-0.00047072336260509513
3959.22,-0.0004638742196966743
3960.12,-0.0004491219197424498
3961.02,-0.00043010373461819113
3961.92,-0.0004076325276674758
3962.82,-0.00037968468401024545
3963.72,-0.0003501427895537102
3964.62,-0.000318798137057235
3965.52,-0.0002851837179948742
3966.42,-0.0002532808765547064
3967.32,-0.0002231337202089692
3968.22,-0.00019889674555007727
3969.12,-0.00018447088758198396
3970.02,-0.00018341269963136395
3970.92,-0.0001966234278846306
3971.82,-0.00022344020350380985
3972.72,-0.000259983494434839
3973.62,-0.0003007653732844354
3974.52,-0.00034479224369749303
3975.42,-0.00038898371393397035
3976.32,-0.00043213354392636463
3977.22,-0.0004709945021473312
3978.13,-0.0005098121207403268
3979.03,-0.0005397601837875134
3979.93,-0.0005647881948241532
3980.83,-0.0005880819116842425
3981.73,-0.0006018349337302553
3982.63,-0.0006126992034044034
3983.53,-0.0006240583156005104
3984.43,-0.0006316047295239774
3985.33,-0.0006446196229220855
3986.23,-0.0006567703292660682
3987.13,-0.0006659601018628496
3988.03,-0.0006800130017581102
3988.93,-0.0006931946411307092
3989.83,-0.0007012484959323769
3990.73,-0.0007138951263620155
3991.63,-0.0007245832210759202
3992.53,-0.0007347809136010918
3993.43,-0.0007400784784183502
3994.33,-0.000742313902221088
3995.23,-0.0007436810831057743
3996.13,-0.0007405028068888112
3997.03,-0.0007342992083010595
3997.93,-0.0007392687886170565
3998.83,-0.0007460635967613842
3999.73,-0.0007614904110931
4000.63,-0.0007752805219021824
4001.53,-0.0007920094952650179
4002.43,-0.0008059075565077542
4003.33,-0.0008098050376908169
4004.23,-0.0008081499145207178
4005.13,-0.0008001730013128266
4006.03,-0.0007992598398650214
4006.93,-0.0007921753950788003
4007.83,-0.000802582142091619
4008.73,-0.0008191941296340446
4009.63,-0.0008362220449122535
4010.53,-0.0008595645195253796
4011.43,-0.0008720124059727073
4012.33,-0.0008895190611384472
4013.23,-0.0008979477141524325
4014.13,-0.0009083338307015076
4015.03,-0.0009140945228312137
4015.93,-0.0009225157799489411
4016.84,-0.0009267695266826658
4017.74,-0.0009347152909042094
4018.64,-0.0009424281744083624
4019.54,-0.0009528968443299633
4020.44,-0.0009563341396482385
4021.34,-0.0009650442141925815
4022.24,-0.0009702190030527497
4023.14,-0.0009774340549587334
4024.04,-0.0009814240838839673
4024.94,-0.0009909621001833245
4025.84,-0.000998413906371069
4026.74,-0.00101701078307676
4027.64,-0.001028488352661089
4028.54,-0.0010277385411449319
4029.44,-0.001025164242259095
4030.34,-0.0010096103673873226
4031.24,-0.0009903434067500493
4032.14,-0.0009721198318301357
4033.04,-0.00096691536915855
4033.94,-0.0009667697453413417
4034.84,-0.000984926699527584
4035.74,-0.001015004759174134
4036.64,-0.0010499600497365206
4037.54,-0.0010873042415308152
4038.44,-0.0011230742515417045
4039.34,-0.0011418729855335568
4040.24,-0.0011504064252437559
4041.14,-0.0011555668089849786
4042.04,-0.0011483267739278917
4042.94,-0.0011319238201779164
4043.84,-0.001095773444449381
4044.74,-0.0010674899156256842
4045.64,-0.0010499854076560314
4046.54,-0.0010437087256775588
4047.44,-0.001059427437057776
4048.34,-0.0010871389413366107
4049.24,-0.0011289952771364306
4050.14,-0.0011764517081631163
4051.04,-0.0012081198067645984
4051.94,-0.0012334016630105836
4052.84,-0.0012415775072063906
4053.74,-0.0012431060411443448
4054.65,-0.001242236181882029
4055.55,-0.0012354446349765998
4056.45,-0.0012257684564015241
4057.35,-0.0012408218611642534
4058.25,-0.0012402628012100454
4059.15,-0.0012459808477004045
4060.05,-0.0012515616925439731
4060.95,-0.001261256824054736
4061.85,-0.0012622984678360863
4062.75,-0.001245961142431144
4063.65,-0.0012326660503620556
4064.55,-0.0012240231070760176
4065.45,-0.0012319650321226557
4066.35,-0.0012489258663164647
4067.25,-0.0012723789766823546
4068.15,-0.001310308766564772
4069.05,-0.0013360160620269886
4069.95,-0.0013651597551665995
4070.85,-0.0013692568549157986
4071.75,-0.0013778893229306338
4072.65,-0.0013785473979433102
4073.55,-0.0013806282830344057
4074.45,-0.001380827415555751
4075.35,-0.0013797579825140247
4076.25,-0.0013659315088752238
4077.15,-0.0013638665387816018
4078.05,-0.0013638102275411394
4078.95,-0.0013798161046437707
4079.85,-0.0014041086705955483
4080.75,-0.0014408533159691484
4081.65,-0.0014959001819456557
4082.55,-0.0015296545809262985
4083.45,-0.0015648198333057181
4084.35,-0.0015820964776658488
4085.25,-0.0016034851168306948
4086.15,-0.001629275210023574
4087.05,-0.0016625254548122497
4087.95,-0.0017023629412310606
4088.85,-0.001744567153141841
4089.75,-0.0017759108709064252
4090.65,-0.0017972072863553686
4091.55,-0.0018104621761090545
4092.45,-0.0018111209764146952
4093.36,-0.0018048620945140357
4094.26,-0.0017931936751353042
4095.16,-0.0017746195960815269
4096.06,-0.001749541479069162
4096.96,-0.0017172672933679462
4097.86,-0.0016886843052604404
4098.76,-0.0016410755800477397
4099.66,-0.0015934909167859587
4100.56,-0.0015487867902432332
4101.46,-0.0015182829086639754
4102.36,-0.0015000993376605807
4103.26,-0.0015105841605887753
4104.16,-0.001556704429340534
4105.06,-0.0016190313604356379
4105.96,-0.0016974388826970666
4106.86,-0.0017706861044810586
4107.76,-0.00183127991722452
4108.66,-0.0018789317104153705
4109.56,-0.0019119994762812314
4110.46,-0.0019353414653497272
4111.36,-0.0019640397432672415
4112.26,-0.0019918188577635956
4113.16,-0.002017392461910682
4114.06,-0.0020592762970314663
4114.96,-0.0020991240235188617
4115.86,-0.0021252686758281942
4116.76,-0.002153133468035655
4117.66,-0.002150136062868435
4118.56,-0.0021568905073442155
4119.46,-0.0021628465661027037
4120.36,-0.0021555293514349655
4121.26,-0.0021660827880290506
4122.16,-0.0021885193546782597
4123.06,-0.0022079014310317497
4123.96,-0.002232023296230487
4124.86,-0.002254037988747028
4125.76,-0.0022757160743114863
4126.66,-0.002300716547380436
4127.56,-0.00231062793901321
4128.46,-0.0023035305572018535
4129.36,-0.0022992456977942825
4130.26,-0.002279369862091231
4131.17,-0.0022699683283456348
4132.06,-0.0022546163639577503
4132.97,-0.0022448061899252763
4133.87,-0.0022694696280352806
4134.77,-0.0022987774690101355
4135.67,-0.002350484774911121
4136.57,-0.0024137524696130424
4137.47,-0.002481576172989778
4138.37,-0.002549225346148257
4139.27,-0.0025944115595073237
4140.17,-0.002606810355611992
4141.07,-0.0026055724001214572
4141.97,-0.0025695188582724325
4142.87,-0.002534561292516292
4143.77,-0.0024937234743897625
4144.67,-0.0024846463203917492
4145.57,-0.002513696379306581
4146.47,-0.0025589110377035574
4147.37,-0.0026225091341559132
4148.27,-0.002686790734257585
4149.17,-0.002723434501554489
4150.07,-0.0027453754196101908
4150.97,-0.002764744814295468
4151.87,-0.002769429360524233
4152.77,-0.002778269399709733
4153.67,-0.0027887012999595964
4154.57,-0.002800046635555824
4155.47,-0.002826377659306448
4156.37,-0.0028451681860669907
4157.27,-0.002876914326775032
4158.17,-0.002932060365929312
4159.07,-0.0029962839395190704
4159.97,-0.0030609873230260224
4160.87,-0.0031239072568534088
4161.77,-0.003173766905791876
4162.67,-0.0032298084009338146
4163.57,-0.0032529369813275926
4164.47,-0.003281714436220919
4165.37,-0.0032986018601449704
4166.27,-0.003292034067773334
4167.17,-0.003284987688207813
4168.07,-0.0032798657734094683
4168.98,-0.003291392164374152
4169.88,-0.003277101697558071
4170.78,-0.0032549956937169048
4171.68,-0.0032340216567677015
4172.58,-0.0032202773574174872
4173.48,-0.0031673431684373634
4174.38,-0.0031788484317747823
4175.28,-0.0031916514838432786
4176.18,-0.0032338561614068018
4177.08,-0.003283312333411137
4177.98,-0.0033465523430365627
4178.88,-0.0034285467841624604
4179.78,-0.0034907182247530797
4180.68,-0.0035332490095123107
4181.58,-0.00358420462968492
4182.48,-0.0036207128193898545
4183.38,-0.0036675149198897553
4184.28,-0.003682375300970946
4185.18,-0.0037028890515110485
4186.08,-0.003732023664995476
4186.98,-0.0037519114413515284
4187.88,-0.0037668785103589313
4188.78,-0.00378622985404858
4189.68,-0.003821769330591802
4190.58,-0.0038800342353946062
4191.48,-0.00394919236950597
4192.38,-0.004013020217014057
4193.28,-0.004073642112104705
4194.18,-0.004121830662579566
4195.08,-0.004126556912185216
4195.98,-0.00411796414923158
4196.88,-0.004066583480200327
4197.78,-0.004045333921302619
4198.68,-0.004008950920325107
4199.58,-0.0039829321083713716
4200.48,-0.0039799120516962735
4201.38,-0.003997757974740016
4202.28,-0.004054214816625365
4203.18,-0.004123230473271291
4204.08,-0.004221509330243808
4204.98,-0.004305490438847445
4205.88,-0.0044276476159342045
4206.79,-0.004554295245576465
4207.69,-0.004624908211481454
4208.59,-0.0047306309551695255
4209.49,-0.004823534526976609
4210.39,-0.004880292824253672
4211.29,-0.004932072026601914
4212.19,-0.004959259096781946
4213.09,-0.004973916192867909
4213.99,-0.004971151167811037
4214.89,-0.0049677315114245064
4215.79,-0.004935748530307645
4216.69,-0.0049713732935182005
4217.59,-0.005026216201792731
4218.49,-0.005101398772857962
4219.39,-0.0052089745175902605
4220.29,-0.005295114825936196
4221.19,-0.005356317528055897
4222.09,-0.00535903916993458
4222.99,-0.005269260094701359
4223.89,-0.005132778501530067
4224.79,-0.004934575489411269
4225.69,-0.004747278700183259
4226.59,-0.0046220115442221175
4227.49,-0.004580149898968827
4228.39,-0.004673816102694904
4229.29,-0.004862858184130413
4230.19,-0.005115630314788239
4231.09,-0.0053796437907060865
4231.99,-0.005564055490732324
4232.89,-0.005740756933196353
4233.79,-0.005803592512909458
4234.69,-0.00583710630656222
4235.59,-0.005859232004445986
4236.49,-0.005837202290698365
4237.39,-0.005870767511172762
4238.29,-0.005900702428054023
4239.19,-0.00601099609314503
4240.09,-0.006116199302928132
4240.99,-0.006258354046701813
4241.89,-0.006384314599811321
4242.79,-0.006542991188255753
4243.69,-0.006651418022691542
4244.59,-0.0067302895512062165
4245.5,-0.006783587518450284
4246.4,-0.006794304982476793
4247.3,-0.006777496624802747
4248.2,-0.006715923071449042
4249.1,-0.006660485496648937
4250.0,-0.00663979560268378
4250.9,-0.006656102853558056
4251.8,-0.006689357983595613
4252.7,-0.006789129365448456
4253.6,-0.006910328548976155
4254.5,-0.006997660643988205
4255.4,-0.007089730777847843
4256.3,-0.007163263762402861
4257.2,-0.007270956262225119
4258.1,-0.007320805882617965
4259.0,-0.007330068426053213
4259.9,-0.007361338620455667
4260.8,-0.007416656325639623
4261.7,-0.007502483277665124
4262.6,-0.00763918459539689
4263.5,-0.007867080782539776
4264.4,-0.008092635522558582
4265.3,-0.008313732021141407
4266.2,-0.008433948872154587
4267.1,-0.008532267260485376
4268.0,-0.008512095793619334
4268.9,-0.00839826476376345
4269.8,-0.008194499594542206
4270.7,-0.008043652060839616
4271.6,-0.007845541124002887
4272.5,-0.007710710743464991
4273.4,-0.007689489553075231
4274.3,-0.007737201288859444
4275.2,-0.007940193454061776
4276.1,-0.008232167476898724
4277.0,-0.008548244817076644
4277.9,-0.008810806028808177
4278.8,-0.009083993224650696
4279.7,-0.009273800585548605
4280.6,-0.009302070019773224
4281.5,-0.009418508864512936
4282.4,-0.00941498609546584
4283.31,-0.009509535289804971
