wave,flux
3700.85,-4.810184389089806e-07
3701.75,-4.758604886047361e-07
3702.65,-4.628736069944365e-07
3703.55,-4.484710380093586e-07
3704.45,-4.311743445549738e-07
3705.35,-4.165547984654094e-07
3706.25,-4.080350145817265e-07
3707.15,-4.0807309317711594e-07
3708.05,-4.1196698285764824e-07
3708.96,-4.166055247194247e-07
3709.86,-4.240363686816601e-07
3710.76,-4.306225316798372e-07
3711.66,-4.3758808703706996e-07
3712.56,-4.497892526762505e-07
3713.46,-4.6441439749614084e-07
3714.36,-4.7962553912893e-07
3715.26,-4.934687240197798e-07
3716.16,-5.025321942501034e-07
3717.06,-5.064743355443653e-07
3717.96,-4.96944831905932e-07
3718.86,-4.78312880005681e-07
3719.76,-4.5297162741442557e-07
3720.66,-4.2587998940151496e-07
3721.56,-4.0487683561420436e-07
3722.46,-3.9751230472676545e-07
3723.36,-4.032578383074671e-07
3724.26,-4.2316964926933657e-07
3725.16,-4.4721836742949654e-07
3726.06,-4.685592438282377e-07
3726.96,-4.842520299219515e-07
3727.86,-4.94849242063626e-07
3728.76,-4.994085847014219e-07
3729.66,-4.971369952880664e-07
3730.56,-4.894461816974632e-07
3731.46,-4.7223596674318954e-07
3732.36,-4.4829041151597203e-07
3733.26,-4.193177120686089e-07
3734.16,-3.9147717781396757e-07
3735.06,-3.731119434131577e-07
3735.96,-3.675000149578992e-07
3736.86,-3.769670860610963e-07
3737.76,-3.9909255102734704e-07
3738.66,-4.307612220743182e-07
3739.56,-4.632850176715825e-07
3740.46,-4.927260554544187e-07
3741.36,-5.114693302855652e-07
3742.26,-5.204692534282759e-07
3743.16,-5.158471990184397e-07
3744.06,-5.038426552466534e-07
3744.96,-4.902668733016019e-07
3745.86,-4.698431554937163e-07
3746.76,-4.46334598997879e-07
3747.67,-4.2057037333394146e-07
3748.57,-3.9950467270520957e-07
3749.47,-3.837347813779277e-07
3750.37,-3.8032731020151724e-07
3751.27,-3.924339304398172e-07
3752.17,-4.160533300554934e-07
3753.07,-4.5114558146135595e-07
3753.97,-4.897259184679176e-07
3754.87,-5.154875599860959e-07
3755.77,-5.367107082992306e-07
3756.67,-5.466139669269731e-07
3757.57,-5.428987911757158e-07
3758.47,-5.376918269994482e-07
3759.37,-5.289313931617896e-07
3760.27,-5.25832773113662e-07
3761.17,-5.286689726758567e-07
3762.07,-5.367253319679083e-07
3762.97,-5.463447079425392e-07
3763.87,-5.496654199387388e-07
3764.77,-5.518999035034336e-07
3765.67,-5.46890677456934e-07
3766.57,-5.387344384156309e-07
3767.47,-5.2148750829708e-07
3768.37,-5.000132231987932e-07
3769.27,-4.85311600027341e-07
3770.17,-4.7243202454212595e-07
3771.07,-4.6769755342227504e-07
3771.97,-4.715065450222389e-07
3772.87,-4.876625122227866e-07
3773.77,-5.078486046333394e-07
3774.67,-5.321627888815228e-07
3775.57,-5.519603077940495e-07
3776.47,-5.751221744507878e-07
3777.37,-5.961140659153087e-07
3778.27,-6.141290892131807e-07
3779.17,-6.321326253424304e-07
3780.07,-6.482863675561122e-07
3780.97,-6.610958070741038e-07
3781.87,-6.721156991340077e-07
3782.77,-6.800391821905599e-07
3783.67,-6.809630012854698e-07
3784.57,-6.771103872577629e-07
3785.47,-6.684830151603505e-07
3786.38,-6.525932136310186e-07
3787.28,-6.380487889007299e-07
3788.18,-6.247572221770476e-07
3789.08,-6.103369608809272e-07
3789.98,-6.030073837899162e-07
3790.88,-5.966965303500739e-07
3791.78,-5.855760819592455e-07
3792.68,-5.718936306050928e-07
3793.58,-5.538379434750167e-07
3794.48,-5.344760607815965e-07
3795.38,-5.088855411876173e-07
3796.28,-4.802377772269733e-07
3797.18,-4.581130316265256e-07
3798.08,-4.4405936700420615e-07
3798.98,-4.445077996394905e-07
3799.88,-4.572207552565139e-07
3800.78,-4.835724386604919e-07
3801.68,-5.196487515839677e-07
3802.58,-5.599094851047784e-07
3803.48,-5.939992053537351e-07
3804.38,-6.224990321973691e-07
3805.28,-6.437774129580636e-07
3806.18,-6.542047204923408e-07
3807.08,-6.664946539807575e-07
3807.98,-6.722489851177214e-07
3808.88,-6.818283429039268e-07
3809.78,-6.915600278896561e-07
3810.68,-6.981491526009089e-07
3811.58,-7.013762512974335e-07
3812.48,-6.960465094867324e-07
3813.38,-6.8743245243478e-07
3814.28,-6.731994007168156e-07
3815.18,-6.622049190207388e-07
3816.08,-6.588908553134671e-07
3816.98,-6.613096342120744e-07
3817.88,-6.598521661833916e-07
3818.78,-6.613196098953671e-07
3819.68,-6.61088598639875e-07
3820.58,-6.543972659709149e-07
3821.48,-6.485451785978895e-07
3822.38,-6.416770129731023e-07
3823.28,-6.348568263816234e-07
3824.18,-6.248660852227975e-07
3825.09,-6.091372078868222e-07
3825.99,-5.960625004986905e-07
3826.89,-5.83881254776282e-07
3827.79,-5.707280734014459e-07
3828.69,-5.599870207224784e-07
3829.59,-5.515727171692476e-07
3830.49,-5.330099502927391e-07
3831.39,-5.124766234250858e-07
3832.29,-4.873526396732671e-07
3833.19,-4.6130477432221545e-07
3834.09,-4.3311323413244665e-07
3834.99,-4.1443197885739816e-07
3835.89,-4.046079876969481e-07
3836.79,-4.0454638996603116e-07
3837.69,-4.16284581522898e-07
3838.59,-4.3460742730633887e-07
3839.49,-4.576427766248707e-07
3840.39,-4.893891503483559e-07
3841.29,-5.215194746784569e-07
3842.19,-5.559302083102158e-07
3843.09,-5.910724846342122e-07
3843.99,-6.220763628142715e-07
3844.89,-6.489303677851484e-07
3845.79,-6.691435918140364e-07
3846.69,-6.83915102904614e-07
3847.59,-6.97932206959324e-07
3848.49,-7.090192792787952e-07
3849.39,-7.137875547469058e-07
3850.29,-7.234831221715727e-07
3851.19,-7.292133402375899e-07
3852.09,-7.336980714105312e-07
3852.99,-7.403426875361428e-07
3853.89,-7.439330034779563e-07
3854.79,-7.468212388871055e-07
3855.69,-7.43555156280859e-07
3856.59,-7.348745505361962e-07
3857.49,-7.279923085841564e-07
3858.39,-7.214759958094066e-07
3859.29,-7.147258419746864e-07
3860.19,-7.152739108648262e-07
3861.09,-7.197348923045067e-07
3861.99,-7.331453894815852e-07
3862.9,-7.462704152775335e-07
3863.8,-7.62572486330172e-07
3864.7,-7.761219471534974e-07
3865.6,-7.765040766733238e-07
3866.5,-7.824929220038901e-07
3867.4,-7.801863477399501e-07
3868.3,-7.75465474159354e-07
3869.2,-7.677007157963533e-07
3870.1,-7.651646837773021e-07
3871.0,-7.529426463526044e-07
3871.9,-7.405533604523393e-07
3872.8,-7.27595613909131e-07
3873.7,-7.200529188872555e-07
3874.6,-7.167679019907049e-07
3875.5,-7.176720159705291e-07
3876.4,-7.159063303729664e-07
3877.3,-7.148777352259816e-07
3878.2,-7.050612968866749e-07
3879.1,-6.978562146184946e-07
3880.0,-6.9120256575084e-07
3880.9,-6.851342268948801e-07
3881.8,-6.803323939040565e-07
3882.7,-6.731891390880427e-07
3883.6,-6.581217593788363e-07
3884.5,-6.36471129947129e-07
3885.4,-6.131721610559766e-07
3886.3,-5.809705739604867e-07
3887.2,-5.500755354750885e-07
3888.1,-5.225101093732337e-07
3889.0,-5.045755381875238e-07
3889.9,-5.017480378266701e-07
3890.8,-5.153598226902577e-07
3891.7,-5.374636237537319e-07
3892.6,-5.669378052182564e-07
3893.5,-5.947960065520724e-07
3894.4,-6.252298384772894e-07
3895.3,-6.472376411966487e-07
3896.2,-6.665434854322019e-07
3897.1,-6.840109559555515e-07
3898.0,-6.985983906933449e-07
3898.9,-7.141676107500884e-07
3899.8,-7.262050025810722e-07
3900.7,-7.367464637742724e-07
3901.6,-7.44367624069094e-07
3902.51,-7.480267153927456e-07
3903.41,-7.489049244499982e-07
3904.31,-7.531293678218035e-07
3905.21,-7.527200695443855e-07
3906.11,-7.562083332676059e-07
3907.01,-7.646180327718839e-07
3907.91,-7.770819656915118e-07
3908.81,-7.921473748304317e-07
3909.71,-8.091554005509141e-07
3910.61,-8.225109170195725e-07
3911.51,-8.381264148229459e-07
3912.41,-8.414296658216983e-07
3913.31,-8.419471164793679e-07
3914.21,-8.433182146618773e-07
3915.11,-8.362010116044112e-07
3916.01,-8.273937711071047e-07
3916.91,-8.217907766246851e-07
3917.81,-8.17503405519912e-07
3918.71,-8.076941932631733e-07
3919.61,-7.995485411671276e-07
3920.51,-7.934247761392616e-07
3921.41,-7.871036033336792e-07
3922.31,-7.851735751198169e-07
3923.21,-7.799632357500571e-07
3924.11,-7.75892033660058e-07
3925.01,-7.671937839820925e-07
3925.91,-7.55650606059996e-07
3926.81,-7.29219528834892e-07
3927.71,-6.928639181212197e-07
3928.61,-6.488995389126497e-07
3929.51,-5.955882629705121e-07
3930.41,-5.384165475645134e-07
3931.31,-4.788723141664073e-07
3932.21,-4.2513116919278507e-07
3933.11,-3.7401892936049954e-07
3934.01,-3.472664637306394e-07
3934.91,-3.4205347023915076e-07
3935.81,-3.6194816667078413e-07
3936.71,-4.026026362792772e-07
3937.61,-4.5877829150074436e-07
3938.51,-5.221111421572876e-07
3939.42,-5.861182138306729e-07
3940.32,-6.425553525398934e-07
3941.22,-6.832505066833346e-07
3942.12,-7.15392892896731e-07
3943.02,-7.393031168166062e-07
3943.92,-7.552685133581549e-07
3944.82,-7.707625178914725e-07
3945.72,-7.82792974015424e-07
3946.62,-7.975622485922365e-07
3947.52,-8.104015475239679e-07
3948.42,-8.193810311233491e-07
3949.32,-8.269539001175636e-07
3950.22,-8.317787346841001e-07
3951.12,-8.393416107735868e-07
3952.02,-8.433507414284168e-07
3952.92,-8.440573524867077e-07
3953.82,-8.45130836568209e-07
3954.72,-8.438323998393211e-07
3955.62,-8.422165130796492e-07
3956.52,-8.369778014052367e-07
3957.42,-8.27231004625105e-07
3958.32,-8.185863434320892e-07
3959.22,-8.049102308542034e-07
3960.12,-7.879610089945225e-07
3961.02,-7.637945366011332e-07
3961.92,-7.351861499271819e-07
3962.82,-6.933938682934031e-07
3963.72,-6.514693686609458e-07
3964.62,-6.003842945492156e-07
3965.52,-5.454782726500025e-07
3966.42,-4.846029730158163e-07
3967.32,-4.2561050791693905e-07
3968.22,-3.7815263922315806e-07
3969.12,-3.4504364374955137e-07
3970.02,-3.305092989505882e-07
3970.92,-3.4392099970502665e-07
3971.82,-3.7624373898626483e-07
3972.72,-4.2785122193227145e-07
3973.62,-4.846646995647485e-07
3974.52,-5.461286873919201e-07
3975.42,-6.078334508573333e-07
3976.32,-6.584621421645611e-07
3977.22,-7.057556299898374e-07
3978.13,-7.49211444990102e-07
3979.03,-7.874964065499666e-07
3979.93,-8.178974552793914e-07
3980.83,-8.400154624802831e-07
3981.73,-8.539165887794487e-07
3982.63,-8.706646965064449e-07
3983.53,-8.794039061133794e-07
3984.43,-8.906615837414842e-07
3985.33,-9.000478038616918e-07
3986.23,-9.088379078107259e-07
3987.13,-9.205508998369101e-07
3988.03,-9.334601579313413e-07
3988.93,-9.420699313135604e-07
3989.83,-9.524517075904148e-07
3990.73,-9.62218199415567e-07
3991.63,-9.70442451529406e-07
3992.53,-9.790448015880184e-07
3993.43,-9.832643868218449e-07
3994.33,-9.859267358754582e-07
3995.23,-9.830758682570697e-07
3996.13,-9.774665849022916e-07
3997.03,-9.73871075070851e-07
3997.93,-9.67492239658381e-07
3998.83,-9.73365905006302e-07
3999.73,-9.790487934760515e-07
4000.63,-9.91298200853957e-07
4001.53,-1.0048900822972117e-06
4002.43,-1.0130942224755009e-06
4003.33,-1.012332144707079e-06
4004.23,-1.0099685045264659e-06
4005.13,-1.0004047352443488e-06
4006.03,-9.95997715873039e-07
4006.93,-9.960247505363555e-07
4007.83,-9.986346767325688e-07
4008.73,-1.0070304530375177e-06
4009.63,-1.0156449029459197e-06
4010.53,-1.031474189047473e-06
4011.43,-1.039830554844276e-06
4012.33,-1.047441898865856e-06
4013.23,-1.0520046602558008e-06
4014.13,-1.0532685888093543e-06
4015.03,-1.0534556545652628e-06
4015.93,-1.0521905120911693e-06
4016.84,-1.0574355372247302e-06
4017.74,-1.0575502503341733e-06
4018.64,-1.068603012267775e-06
4019.54,-1.071305538237901e-06
4020.44,-1.0748914662824197e-06
4021.34,-1.0778282760790122e-06
4022.24,-1.075729408442291e-06
4023.14,-1.0804716589526577e-06
4024.04,-1.0776187984404104e-06
4024.94,-1.0834978918565514e-06
4025.84,-1.079982567103917e-06
4026.74,-1.086683220807599e-06
4027.64,-1.0938293768633113e-06
4028.54,-1.0905755886365395e-06
4029.44,-1.088372167268823e-06
4030.34,-1.0707413436147144e-06
4031.24,-1.0530570381226662e-06
4032.14,-1.0377240361771972e-06
4033.04,-1.0327099724120382e-06
4033.94,-1.030133004109036e-06
4034.84,-1.0457244753106834e-06
4035.74,-1.0646716672448185e-06
4036.64,-1.07994414878561e-06
4037.54,-1.0994922906931177e-06
4038.44,-1.1194012459652527e-06
4039.34,-1.1267916662841467e-06
4040.24,-1.1264025368846842e-06
4041.14,-1.12260872387601e-06
4042.04,-1.1153621461603305e-06
4042.94,-1.0996533074845682e-06
4043.84,-1.0810949296601013e-06
4044.74,-1.0669334896442553e-06
4045.64,-1.0530514141720566e-06
4046.54,-1.0474488558648852e-06
4047.44,-1.0478977560819192e-06
4048.34,-1.0694624269595595e-06
4049.24,-1.0827561335125458e-06
4050.14,-1.098352417799906e-06
4051.04,-1.1177649969963183e-06
4051.94,-1.1192662730636683e-06
4052.84,-1.1179819290439057e-06
4053.74,-1.1098927455153617e-06
4054.65,-1.1028851548282574e-06
4055.55,-1.1018118234858996e-06
4056.45,-1.0932730037910286e-06
4057.35,-1.0907083287082908e-06
4058.25,-1.0952254881411727e-06
4059.15,-1.0920129739127657e-06
4060.05,-1.0987235089909387e-06
4060.95,-1.0969516183946454e-06
4061.85,-1.0980683988126452e-06
4062.75,-1.0878581393664678e-06
4063.65,-1.0781757297501894e-06
4064.55,-1.0710222503686523e-06
4065.45,-1.0645801872755374e-06
4066.35,-1.0695952983477102e-06
4067.25,-1.0780401665891787e-06
4068.15,-1.0911251434894502e-06
4069.05,-1.1023435983250067e-06
4069.95,-1.1045722145368107e-06
4070.85,-1.1050675452195284e-06
4071.75,-1.1033504326837808e-06
4072.65,-1.1005613704421962e-06
4073.55,-1.0919468175742466e-06
4074.45,-1.0856130508656898e-06
4075.35,-1.0763311160250275e-06
4076.25,-1.066315778740533e-06
4077.15,-1.0535977798581713e-06
4078.05,-1.0435593311591562e-06
4078.95,-1.0409863348308921e-06
4079.85,-1.050663295424819e-06
4080.75,-1.063968696377028e-06
4081.65,-1.0775387051738874e-06
4082.55,-1.0901549176632099e-06
4083.45,-1.0987537121448585e-06
4084.35,-1.1036437712656752e-06
4085.25,-1.1056561412408459e-06
4086.15,-1.1076114062526459e-06
4087.05,-1.1146104963435312e-06
4087.95,-1.12377332221894e-06
4088.85,-1.1308201677665782e-06
4089.75,-1.1345766374432042e-06
4090.65,-1.1403556782465534e-06
4091.55,-1.1344402700549973e-06
4092.45,-1.1212403972717448e-06
4093.36,-1.1024856559307647e-06
4094.26,-1.0845315818105968e-06
4095.16,-1.0668051584977222e-06
4096.06,-1.0431016526716345e-06
4096.96,-1.0144998104646771e-06
4097.86,-9.772264392351834e-07
4098.76,-9.323138955135742e-07
4099.66,-8.90489107432358e-07
4100.56,-8.481746563018753e-07
4101.46,-8.1232488088327e-07
4102.36,-7.946989538342966e-07
4103.26,-7.916509860508155e-07
4104.16,-8.124499551647629e-07
4105.06,-8.501008423291255e-07
4105.96,-8.921289490918247e-07
4106.86,-9.37356981181994e-07
4107.76,-9.773122646399622e-07
4108.66,-1.0096562889726576e-06
4109.56,-1.0333584023201192e-06
4110.46,-1.0500822412895434e-06
4111.36,-1.0667142304983985e-06
4112.26,-1.0852971995688223e-06
4113.16,-1.0994948556015758e-06
4114.06,-1.1156217956110766e-06
4114.96,-1.1332696746059088e-06
4115.86,-1.1458337280090733e-06
4116.76,-1.1547299880355077e-06
4117.66,-1.156709280709903e-06
4118.56,-1.154390271048534e-06
4119.46,-1.1528146402829378e-06
4120.36,-1.149548648804449e-06
4121.26,-1.1472965725295217e-06
4122.16,-1.1557407201091143e-06
4123.06,-1.1593978871055894e-06
4123.96,-1.164649848404769e-06
4124.86,-1.1734051718476209e-06
4125.76,-1.1789935123259131e-06
4126.66,-1.1767727502784474e-06
4127.56,-1.1812614406063662e-06
4128.46,-1.1805490490654546e-06
4129.36,-1.1778790849219108e-06
4130.26,-1.1739823760691201e-06
4131.17,-1.1667403795281725e-06
4132.06,-1.161629771642176e-06
4132.97,-1.1569135085669121e-06
4133.87,-1.1576254720513893e-06
4134.77,-1.1621870258461024e-06
4135.67,-1.1787597538750922e-06
4136.57,-1.1921643929865628e-06
4137.47,-1.2113850689080975e-06
4138.37,-1.2268845310129591e-06
4139.27,-1.2395231367847902e-06
4140.17,-1.2424635956310524e-06
4141.07,-1.2364651970716376e-06
4141.97,-1.2232281374798106e-06
4142.87,-1.207254401360881e-06
4143.77,-1.1995349799113404e-06
4144.67,-1.1923980534294508e-06
4145.57,-1.195132679230836e-06
4146.47,-1.2029484093141473e-06
4147.37,-1.2159245571370608e-06
4148.27,-1.2252766834276868e-06
4149.17,-1.2292323969462995e-06
4150.07,-1.231259525360303e-06
4150.97,-1.2392524097092014e-06
4151.87,-1.2308842156534325e-06
4152.77,-1.227761285517979e-06
4153.67,-1.2270061240388748e-06
4154.57,-1.2243035479803156e-06
4155.47,-1.219388214878822e-06
4156.37,-1.224184706165304e-06
4157.27,-1.2284911966797448e-06
4158.17,-1.2347145151143935e-06
4159.07,-1.2490064321183437e-06
4159.97,-1.2558690811182944e-06
4160.87,-1.270621641158237e-06
4161.77,-1.2758182537831048e-06
4162.67,-1.2813730055461346e-06
4163.57,-1.2861083914462772e-06
4164.47,-1.2912016899254554e-06
4165.37,-1.2876005101166586e-06
4166.27,-1.2878657175229317e-06
4167.17,-1.2823239213762082e-06
4168.07,-1.2792924842854578e-06
4168.98,-1.2703402182486282e-06
4169.88,-1.2671790252650747e-06
4170.78,-1.2471157662487269e-06
4171.68,-1.2397615529085689e-06
4172.58,-1.2164554362081868e-06
4173.48,-1.2057448125404488e-06
4174.38,-1.1996279512604368e-06
4175.28,-1.1992902219239837e-06
4176.18,-1.2005442142349914e-06
4177.08,-1.2108375152985638e-06
4177.98,-1.2248532216977493e-06
4178.88,-1.2340349998072884e-06
4179.78,-1.2463222279611131e-06
4180.68,-1.2482471081501787e-06
4181.58,-1.2534695164818448e-06
4182.48,-1.2659657083887684e-06
4183.38,-1.2649908741466691e-06
4184.28,-1.267630201099965e-06
4185.18,-1.2720841166795257e-06
4186.08,-1.2746218956069965e-06
4186.98,-1.2690122332938066e-06
4187.88,-1.2688600488521297e-06
4188.78,-1.2645554135742581e-06
4189.68,-1.2749307245833145e-06
4190.58,-1.283706868165103e-06
4191.48,-1.2942323947786554e-06
4192.38,-1.2984699979169488e-06
4193.28,-1.305601469447721e-06
4194.18,-1.3162674724113213e-06
4195.08,-1.3075895068525791e-06
4195.98,-1.2989837172577632e-06
4196.88,-1.2798999723077056e-06
4197.78,-1.2731057921220147e-06
4198.68,-1.2566331179073562e-06
4199.58,-1.2520029034434415e-06
4200.48,-1.2480216685289757e-06
4201.38,-1.2402317355318865e-06
4202.28,-1.2479812236988396e-06
4203.18,-1.2555399955551107e-06
4204.08,-1.2617892198469371e-06
4204.98,-1.2762737724007422e-06
4205.88,-1.2840633732241583e-06
4206.79,-1.2963682334996008e-06
4207.69,-1.3093926774778915e-06
4208.59,-1.3236118048240154e-06
4209.49,-1.3277336001301728e-06
4210.39,-1.335171899079639e-06
4211.29,-1.3357687170428418e-06
4212.19,-1.3429054243907919e-06
4213.09,-1.334288937372844e-06
4213.99,-1.3320224102697521e-06
4214.89,-1.3173706472948734e-06
4215.79,-1.3087689623757764e-06
4216.69,-1.3061198208706668e-06
4217.59,-1.3141900660070175e-06
4218.49,-1.3165941472512336e-06
4219.39,-1.32661555316892e-06
4220.29,-1.3360983217610665e-06
4221.19,-1.3465758758661672e-06
4222.09,-1.338424615729438e-06
4222.99,-1.326573760488287e-06
4223.89,-1.3013309106472065e-06
4224.79,-1.269311126292333e-06
4225.69,-1.2367586576413312e-06
4226.59,-1.212095484843608e-06
4227.49,-1.2058619137164615e-06
4228.39,-1.2178555193937688e-06
4229.29,-1.2385322945196983e-06
4230.19,-1.2705495013467476e-06
4231.09,-1.295763230714362e-06
4231.99,-1.3216856479201735e-06
4232.89,-1.3296566481038935e-06
4233.79,-1.3325713883681499e-06
4234.69,-1.3244175111914704e-06
4235.59,-1.3253927056492568e-06
4236.49,-1.3171184774386767e-06
4237.39,-1.317138910387606e-06
4238.29,-1.3121327299111556e-06
4239.19,-1.319715797640514e-06
4240.09,-1.3287382600045875e-06
4240.99,-1.3416772713243573e-06
4241.89,-1.3534749840560631e-06
4242.79,-1.3581716581215571e-06
4243.69,-1.3704606889619024e-06
4244.59,-1.3736777374478461e-06
4245.5,-1.3711562987878463e-06
4246.4,-1.3634702075037176e-06
4247.3,-1.3522236138160918e-06
4248.2,-1.341384728681081e-06
4249.1,-1.3335221381238899e-06
4250.0,-1.3329440633371653e-06
4250.9,-1.3320752472667584e-06
4251.8,-1.3355596097989339e-06
4252.7,-1.3447593893587225e-06
4253.6,-1.3565810493168005e-06
4254.5,-1.3612802749121937e-06
4255.4,-1.3709897362076841e-06
4256.3,-1.3754689181967102e-06
4257.2,-1.371748063851756e-06
4258.1,-1.3718964681480404e-06
4259.0,-1.3666580774274531e-06
4259.9,-1.364540856884858e-06
4260.8,-1.3561219067084201e-06
4261.7,-1.3604119395019457e-06
4262.6,-1.3730891696739179e-06
4263.5,-1.3877904091994897e-06
4264.4,-1.4075728449137686e-06
4265.3,-1.422531927552426e-06
4266.2,-1.4322371913561157e-06
4267.1,-1.42959714265553e-06
4268.0,-1.4181768983448367e-06
4268.9,-1.40423008761429e-06
4269.8,-1.3821254807147969e-06
4270.7,-1.3579838407710204e-06
4271.6,-1.3341859038716849e-06
4272.5,-1.3194031725500199e-06
4273.4,-1.314378146015132e-06
4274.3,-1.3111929960703552e-06
4275.2,-1.325245637183851e-06
4276.1,-1.3398450650346559e-06
