wave,flux
3700.85,-0.03823195735898849
3701.75,-0.03838530586176609
3702.65,-0.03771356767160607
3703.55,-0.03661757724903037
3704.45,-0.03544713920601455
3705.35,-0.03435026658283421
3706.25,-0.033765851273056466
3707.15,-0.033918359575697714
3708.05,-0.03456057560592231
3708.96,-0.0359393060665071
3709.86,-0.03763124792196256
3710.76,-0.03965167535577159
3711.66,-0.04194673341017494
3712.56,-0.044834357792871336
3713.46,-0.04776893643549302
3714.36,-0.05033388225317157
3715.26,-0.05230314198794703
3716.16,-0.05349478679310164
3717.06,-0.05382070861401398
3717.96,-0.052544692936492395
3718.86,-0.05042534454394651
3719.76,-0.04777328124042063
3720.66,-0.045386906970436625
3721.56,-0.04397029857446025
3722.46,-0.04429337731283882
3723.36,-0.04646121966573291
3724.26,-0.05044054964348024
3725.16,-0.054521626706921095
3726.06,-0.058445746983072144
3726.96,-0.06151825104027674
3727.86,-0.06339029992023043
3728.76,-0.06504849855152421
3729.66,-0.06607862305679744
3730.56,-0.06628646095379861
3731.46,-0.06525711204520615
3732.36,-0.06306358322964267
3733.26,-0.060407012724063
3734.16,-0.05695922580197689
3735.06,-0.05465476541293356
3735.96,-0.05415658181336027
3736.86,-0.05623344823405257
3737.76,-0.060035226495600065
3738.66,-0.06657301931772329
3739.56,-0.07362601512860624
3740.46,-0.08045405650337026
3741.36,-0.08567545773871912
3742.26,-0.08860625679204369
3743.16,-0.08952704679708055
3744.06,-0.08914339719510267
3744.96,-0.08698314536937421
3745.86,-0.08470711249246217
3746.76,-0.0819189511250385
3747.67,-0.07974234825326548
3748.57,-0.07867712821608441
3749.47,-0.07894227423888245
3750.37,-0.08283352442672445
3751.27,-0.08987879762818153
3752.17,-0.0997876245582844
3753.07,-0.11124042547139763
3753.97,-0.1232212466879411
3754.87,-0.13355345009291414
3755.77,-0.14007470972555336
3756.67,-0.1432512815548448
3757.57,-0.14376165235208252
3758.47,-0.1423436415241759
3759.37,-0.14137093346269922
3760.27,-0.144184821608781
3761.17,-0.14872431361719757
3762.07,-0.15532313940528336
3762.97,-0.16252870850595927
3763.87,-0.17094956446269494
3764.77,-0.17665118638995594
3765.67,-0.18270454487753995
3766.57,-0.18760029455869726
3767.47,-0.19170260177719511
3768.37,-0.19462774369129554
3769.27,-0.19944172220736403
3770.17,-0.20649530063142763
3771.07,-0.21483174700630625
3771.97,-0.22709078508604166
3772.87,-0.240779626217152
3773.77,-0.2578811414858977
3774.67,-0.27415005822210314
3775.57,-0.29085377798710216
3776.47,-0.30697780738365216
3777.37,-0.3219782510144137
3778.27,-0.3404441649009239
3779.17,-0.3612176833268327
3780.07,-0.38127460916996414
3780.97,-0.40419080694569653
3781.87,-0.42542189646662343
3782.77,-0.445710691580814
3783.67,-0.4626967293122211
3784.57,-0.47801860289143516
3785.47,-0.4880255248501079
3786.38,-0.49615621987656605
3787.28,-0.5008560189448545
3788.18,-0.5091787340839857
3789.08,-0.523722916354488
3789.98,-0.540770800902475
3790.88,-0.5675365379133164
3791.78,-0.5946708943292852
3792.68,-0.6263975170002896
3793.58,-0.6489447215134768
3794.48,-0.6666007384576329
3795.38,-0.6879920128341707
3796.28,-0.7042693097181274
3797.18,-0.7296912251073265
3798.08,-0.7694215777802661
3798.98,-0.8283334457118819
3799.88,-0.9198927319733644
3800.78,-1.0597848043078988
3801.68,-1.2315212520398173
3802.58,-1.4396612122680275
3803.48,-1.681393581643403
3804.38,-1.9424798107612349
3805.28,-2.2506317880792737
3806.18,-2.5822996209205367
3807.08,-3.019931721115712
3807.98,-3.6251218512091907
3808.88,-4.5162154762518565
3809.78,-5.946122201223507
3810.68,-8.528175896902976
3811.58,-14.69607865052956
3812.48,-50.486881689424834
3813.38,33.658011623386884
3814.28,12.278240044004159
3815.18,7.368952643520643
3816.08,5.248795229929971
3816.98,4.096757626949159
3817.88,3.400762957065639
3818.78,2.9055544915334655
3819.68,2.518663629455621
3820.58,2.225359543588578
3821.48,1.9868168360988898
3822.38,1.8021297155046456
3823.28,1.6436598677079524
3824.18,1.5063997173239931
3825.09,1.3706533804975864
3825.99,1.2540165275283184
3826.89,1.156589744561861
3827.79,1.084033125118807
3828.69,1.0195368223739432
3829.59,0.9678610311565881
3830.49,0.920610793804284
3831.39,0.8619036274848348
3832.29,0.8075284283105991
3833.19,0.7499235789535131
3834.09,0.7005854632362687
3834.99,0.6646140945835823
3835.89,0.6422667713634451
3836.79,0.6281091231129123
3837.69,0.6231570499081048
3838.59,0.6201065264290851
3839.49,0.6290541358535662
3840.39,0.6413128124535131
3841.29,0.6687758875179084
3842.19,0.7014011399935332
3843.09,0.7344959062960094
3843.99,0.7695075295650945
3844.89,0.7917858695843598
3845.79,0.8075460962888928
3846.69,0.8115599963249179
3847.59,0.8115114895429505
3848.49,0.8001879608729292
3849.39,0.787383532745336
3850.29,0.7763944571720569
3851.19,0.7655202260928836
3852.09,0.7582202916546034
3852.99,0.7521402811025446
3853.89,0.744973656363022
3854.79,0.7298726452237032
3855.69,0.7135095492081305
3856.59,0.6869631665521121
3857.49,0.6604986715569694
3858.39,0.6383372770988904
3859.29,0.6189235266540148
3860.19,0.6101163761434094
3861.09,0.6151296727573803
3861.99,0.6276089148100691
3862.9,0.6491807239229442
3863.8,0.6685374653021515
3864.7,0.681152987691482
3865.6,0.6869388604075387
3866.5,0.6842327671015879
3867.4,0.6820859591985813
3868.3,0.6737695640847097
3869.2,0.6609015371373814
3870.1,0.6455265468036181
3871.0,0.6280187073504794
3871.9,0.6085914639829256
3872.8,0.594494473560001
3873.7,0.589499047995636
3874.6,0.59305854746937
3875.5,0.59600798718613
3876.4,0.599352716696957
3877.3,0.5975443561496026
3878.2,0.5930587865793364
3879.1,0.5858590209583432
3880.0,0.5824090986996528
3880.9,0.5808494188289073
3881.8,0.5827501124711517
3882.7,0.578706959110838
3883.6,0.5735266986273545
3884.5,0.5632173089144502
3885.4,0.5476909193128565
3886.3,0.5275940910464177
3887.2,0.5070083836522953
3888.1,0.4921151582319295
3889.0,0.4844434503744689
3889.9,0.48991798339704146
3890.8,0.5036172081059294
3891.7,0.5264219274393661
3892.6,0.5492807811869207
3893.5,0.5725432048455772
3894.4,0.5866431994274034
3895.3,0.5974695549715745
3896.2,0.6066907077584577
3897.1,0.6155337125845505
3898.0,0.61863933784577
3898.9,0.6238687613116208
3899.8,0.6280253526992204
3900.7,0.6294793595139155
3901.6,0.6325634192244973
3902.51,0.6285983281542682
3903.41,0.6259983486357245
3904.31,0.6215559108469038
3905.21,0.6172936029188155
3906.11,0.6165324498392553
3907.01,0.6221647931880699
3907.91,0.6367016647463157
3908.81,0.6534078538018968
3909.71,0.6746880403394123
3910.61,0.6906728497534261
3911.51,0.706742429520877
3912.41,0.7129237542061273
3913.31,0.7148909348958796
3914.21,0.7110109598628742
3915.11,0.7081540024279339
3916.01,0.6986009223424512
3916.91,0.689745941531664
3917.81,0.6768280613979493
3918.71,0.6652022373276424
3919.61,0.6493799634534548
3920.51,0.6360107823775174
3921.41,0.6260262305088006
3922.31,0.6160163508696319
3923.21,0.6089025792270181
3924.11,0.6025940179220148
3925.01,0.5947768672428335
3925.91,0.5750634130371702
3926.81,0.5474611870345982
3927.71,0.5102047102388744
3928.61,0.46554437528824943
3929.51,0.4139645741924554
3930.41,0.3618055798998674
3931.31,0.31247244054929807
3932.21,0.2684110025583313
3933.11,0.2348444062700535
3934.01,0.21605926977930548
3934.91,0.21376361160575272
3935.81,0.23017928058389325
3936.71,0.26351137239658134
3937.61,0.30864595210602075
3938.51,0.36288340816530656
3939.42,0.41784534851492877
3940.32,0.46573932778668276
3941.22,0.509298653606398
3942.12,0.5423948810089806
3943.02,0.5691813176775484
3943.92,0.5900336225764392
3944.82,0.6154758976866496
3945.72,0.637825817232767
3946.62,0.6594017217167926
3947.52,0.6801967279306566
3948.42,0.6985079342242335
3949.32,0.7160711707067403
3950.22,0.7304073100261422
3951.12,0.7445769228727097
3952.02,0.7527265758448473
3952.92,0.7594059254243775
3953.82,0.7619422244187563
3954.72,0.7686427373673498
3955.62,0.7683400926078169
3956.52,0.7633312428731979
3957.42,0.7602415153075365
3958.32,0.7526367412179192
3959.22,0.7377909254710928
3960.12,0.718472618545446
3961.02,0.6923416296186137
3961.92,0.6548897989233045
3962.82,0.6106943662216757
3963.72,0.5628271147976552
3964.62,0.5129529043851496
3965.52,0.45816229260232966
3966.42,0.40402072287738294
3967.32,0.35034773483837695
3968.22,0.3088453930769188
3969.12,0.28458448693977323
3970.02,0.28151537587643083
3970.92,0.30093928560521455
3971.82,0.3391152821809597
3972.72,0.3939325261358779
3973.62,0.4552913696680184
3974.52,0.5200275987926961
3975.42,0.5817372931330036
3976.32,0.6394613872318184
3977.22,0.6893043627039328
3978.13,0.7361464281434074
3979.03,0.7766629268506313
3979.93,0.808897650748659
3980.83,0.8331606607495675
3981.73,0.8485305011413599
3982.63,0.8613858122159672
3983.53,0.8669363587870349
3984.43,0.8722381527691682
3985.33,0.8772303675288534
3986.23,0.8896708452483101
3987.13,0.9014035682825983
3988.03,0.9152160879497591
3988.93,0.9260601658777703
3989.83,0.9352345462178487
3990.73,0.9491686273915231
3991.63,0.9588669603013172
3992.53,0.9620448502200403
3993.43,0.9599951874452148
3994.33,0.9580889768846398
3995.23,0.9550685483558381
3996.13,0.9468518032236265
3997.03,0.9376871534143081
3997.93,0.9340652244293784
3998.83,0.9333550869665951
3999.73,0.9467646748641912
4000.63,0.9588420173318768
4001.53,0.971512483625386
4002.43,0.9829656827053043
4003.33,0.9817191776730799
4004.23,0.9799569952684225
4005.13,0.9661223630425294
4006.03,0.9546612462512604
4006.93,0.9486085173434715
4007.83,0.9541577825392101
4008.73,0.9678126027375965
4009.63,0.9831535987069254
4010.53,0.9935037349788974
4011.43,1.0079664744967132
4012.33,1.014088157996845
4013.23,1.0186055962474647
4014.13,1.0234026285956963
4015.03,1.0227598730315723
4015.93,1.023610105174897
4016.84,1.0240108587329149
4017.74,1.0285221992571125
4018.64,1.0297190761664043
4019.54,1.0280865655478248
4020.44,1.0334975805997644
4021.34,1.0349830970720624
4022.24,1.0360772717555615
4023.14,1.0311089131625677
4024.04,1.0310546722958898
4024.94,1.0360997026441519
4025.84,1.0397185105526436
4026.74,1.0456319381402135
4027.64,1.044811318887135
4028.54,1.0454924662533998
4029.44,1.0351079775615644
4030.34,1.0109138170134095
4031.24,0.9931667881301761
4032.14,0.9707047232190155
4033.04,0.961218387561432
4033.94,0.9601317726643152
4034.84,0.9667097982061778
4035.74,0.9878396266243983
4036.64,1.010650989576245
4037.54,1.0414197437758075
4038.44,1.0573504545400272
4039.34,1.0730733676460111
4040.24,1.0723257400821928
4041.14,1.0676025703348877
4042.04,1.0495944791573806
4042.94,1.0332837886493629
4043.84,1.0025484602166854
4044.74,0.9784469092782505
4045.64,0.9550155851057505
4046.54,0.9428914626229071
4047.44,0.9461343998015546
4048.34,0.9641805914203864
4049.24,0.9919143479760385
4050.14,1.0130597741291116
4051.04,1.0349648887763947
4051.94,1.0433182114175379
4052.84,1.050258767663372
4053.74,1.0394926640494768
4054.65,1.029204336951213
4055.55,1.0266680498748115
4056.45,1.0134166492732704
4057.35,1.0086944210244084
4058.25,1.0077147394157473
4059.15,1.0076340475371421
4060.05,1.012798009403065
4060.95,1.0039491069016264
4061.85,0.9969118556107659
4062.75,0.9834849920265064
4063.65,0.9695843093931331
4064.55,0.9535855629717321
4065.45,0.9471675266964437
4066.35,0.9509170707783704
4067.25,0.965659131669758
4068.15,0.9809214224157409
4069.05,0.9948415846551056
4069.95,0.9991393175927425
4070.85,1.0042690993018069
4071.75,0.9996779417079337
4072.65,0.9934714405301827
4073.55,0.9897852566046218
4074.45,0.9796977790555385
4075.35,0.966749561504721
4076.25,0.9565047328872662
4077.15,0.942507439404578
4078.05,0.9325853060805983
4078.95,0.9323411044355969
4079.85,0.9455742234994239
4080.75,0.9634417016343959
4081.65,0.9835521853254326
4082.55,0.9960199097672806
4083.45,1.009842794078781
4084.35,1.0197270108889105
4085.25,1.0231830890948725
4086.15,1.029607073832571
4087.05,1.0414869407950829
4087.95,1.0605349717919774
4088.85,1.0735169102002886
4089.75,1.0867241298405206
4090.65,1.0907993024816411
4091.55,1.0855801228922475
4092.45,1.0754608100781704
4093.36,1.066709699954722
4094.26,1.0544932067710893
4095.16,1.0385732060004038
4096.06,1.0148823325390155
4096.96,0.9927560812601818
4097.86,0.9653500403448134
4098.76,0.9320830897825177
4099.66,0.899149871886468
4100.56,0.860543214265713
4101.46,0.8348108029961367
4102.36,0.8201686989979023
4103.26,0.8174232655564665
4104.16,0.8310826966890603
4105.06,0.863592506082101
4105.96,0.8984266883403301
4106.86,0.9299490570342444
4107.76,0.9555253410783391
4108.66,0.9772158813397985
4109.56,0.9841250199634934
4110.46,0.9906257243664104
4111.36,1.002165623133362
4112.26,1.0074407595921566
4113.16,1.0145926966007808
4114.06,1.02408731805658
4114.96,1.0341096660679192
4115.86,1.0399248768735583
4116.76,1.0428241874489377
4117.66,1.0409993511961395
4118.56,1.0304265615117225
4119.46,1.023255862390764
4120.36,1.017208091827016
4121.26,1.015490736620601
4122.16,1.0133758795340455
4123.06,1.0161688123137291
4123.96,1.0171053243575863
4124.86,1.022246472588311
4125.76,1.0280937842531748
4126.66,1.0256789687647379
4127.56,1.0210632512438016
4128.46,1.0172163098718745
4129.36,1.006048598356443
4130.26,0.9972233987979516
4131.17,0.9857924319104548
4132.06,0.9735078546768897
4132.97,0.9641995655196075
4133.87,0.9603716849992852
4134.77,0.9687048501621157
4135.67,0.9786724711669518
4136.57,0.9959703371099242
4137.47,1.013099297971826
4138.37,1.0327333564867052
4139.27,1.0398838112829314
4140.17,1.041989367622706
4141.07,1.0321404198652264
4141.97,1.0175996639867881
4142.87,0.9908759518284194
4143.77,0.9776968061280934
4144.67,0.9683035914397519
4145.57,0.970999297798407
4146.47,0.977594805804838
4147.37,0.9901813848730748
4148.27,1.0006880649232277
4149.17,1.0122494988970163
4150.07,1.0122669283468122
4150.97,1.0113658292241339
4151.87,1.0081520257727201
4152.77,1.0050646045075529
4153.67,0.997340576168027
4154.57,0.9974085283141959
4155.47,0.9953956319085756
4156.37,0.9960062382743904
4157.27,0.999589567299411
4158.17,1.0078900191173468
4159.07,1.0178284996749796
4159.97,1.030860045302774
4160.87,1.0462876453772905
4161.77,1.0474874937485077
4162.67,1.0544536937755389
4163.57,1.0578844432336292
4164.47,1.0584180385645114
4165.37,1.0601832983163229
4166.27,1.0552096978629661
4167.17,1.0431434386370717
4168.07,1.0376010603269532
4168.98,1.0309031548631624
4169.88,1.018269112947925
4170.78,1.0058126573951425
4171.68,0.9856098357846017
4172.58,0.9726894645978713
4173.48,0.956506190435128
4174.38,0.947610319219218
4175.28,0.9497983685262202
4176.18,0.9535705164118485
4177.08,0.9663389484703312
4177.98,0.9791224389732173
4178.88,0.9899357430764001
4179.78,0.9964402781191006
4180.68,1.0052936494283422
4181.58,1.0118796453892462
4182.48,1.0125720858587743
4183.38,1.0117507809541357
4184.28,1.0132756332846795
4185.18,1.0121161263312628
4186.08,1.0080342672784577
4186.98,1.0056538620421867
4187.88,0.9964808861524684
4188.78,1.0036606367854712
4189.68,1.0016455789528045
4190.58,1.0087848113412892
4191.48,1.017872657726284
4192.38,1.0287927120429712
4193.28,1.0324435419597604
4194.18,1.0395691210160387
4195.08,1.0338900986732857
4195.98,1.0250941972599035
4196.88,1.0122942565190696
4197.78,0.9935425948689136
4198.68,0.9791364023179909
4199.58,0.967784119846002
4200.48,0.9613756994592919
4201.38,0.9633378362028138
4202.28,0.9623549858641637
4203.18,0.9682787252998232
4204.08,0.9771038071821734
4204.98,0.9899566299077641
4205.88,1.0062508142838307
4206.79,1.0196111555341933
4207.69,1.0306143376216037
4208.59,1.0450034595209508
4209.49,1.0541377511744956
4210.39,1.059313433619089
4211.29,1.0593986238975563
4212.19,1.0599590010717936
4213.09,1.0544107118067503
4213.99,1.0409053349262625
4214.89,1.0384316104199467
4215.79,1.021223141337931
4216.69,1.0183808688710088
4217.59,1.021065069908115
4218.49,1.0246448227428917
4219.39,1.0369160326198636
4220.29,1.044553514189686
4221.19,1.045465743694397
4222.09,1.0439933769609921
4222.99,1.0215875494258613
4223.89,0.9905086699337411
4224.79,0.957130629117307
4225.69,0.9200763026242189
4226.59,0.8922461784683963
4227.49,0.8813024695960194
4228.39,0.887089469289831
4229.29,0.9132193408374354
4230.19,0.9417042574680419
4231.09,0.9733860134322636
4231.99,1.003834831062633
4232.89,1.019923178412175
4233.79,1.02385028779845
4234.69,1.0220182927931472
4235.59,1.0159195866199742
4236.49,1.007529497353495
4237.39,1.0039323055194098
4238.29,1.0062162193833417
4239.19,1.0101195827426885
4240.09,1.0217785142266995
4240.99,1.0347049028809971
4241.89,1.0442052477883628
4242.79,1.0527437850243102
4243.69,1.0670043794905697
4244.59,1.064156904136692
4245.5,1.0655844549243862
4246.4,1.0568713663271982
4247.3,1.0471794183259788
4248.2,1.0280602732066264
4249.1,1.0188801358590183
4250.0,1.0070895257695374
4250.9,1.0057940482715209
4251.8,1.0056981845650224
4252.7,1.0111553855545805
4253.6,1.0193888107108964
4254.5,1.0216313436587137
4255.4,1.0270730105909194
4256.3,1.0301487698496719
4257.2,1.0335203406273792
4258.1,1.0327059780337833
4259.0,1.024372611739284
4259.9,1.022386392889905
4260.8,1.018813696047113
4261.7,1.0226845205285933
4262.6,1.0325482587793038
4263.5,1.0482878500657955
4264.4,1.062688961251389
4265.3,1.0774489325380283
4266.2,1.0946302298825195
4267.1,1.0889906296370322
4268.0,1.0728995259570868
4268.9,1.0584910313219782
4269.8,1.034415577685531
4270.7,1.0047359130772862
4271.6,0.9759490678726744
4272.5,0.959654015543548
4273.4,0.9485686792259285
4274.3,0.9504672913499947
4275.2,0.9605552292175229
4276.1,0.9766470025552235
4277.0,1.0014155757383416
4277.9,1.017486698189264
4278.8,1.035307974641198
4279.7,1.042850414965458
4280.6,1.047828339047235
4281.5,1.0415545857869821
4282.4,1.0346603597677333
4283.31,1.036318058432294
4284.21,1.022655365561026
4285.11,1.0157235812791916
4286.01,1.0031923209897329
4286.91,0.9911960919821273
4287.81,0.9694135882785243
4288.71,0.9586728174984266
4289.61,0.9430654966457094
4290.51,0.9354010840115166
4291.41,0.9385896906982306
4292.31,0.9419466019647508
4293.21,0.9491112663676824
4294.11,0.9556536721751991
4295.01,0.9601187740808009
4295.91,0.9541407372809966
4296.81,0.9379088610474162
4297.71,0.9126430290824508
4298.61,0.8871962809784839
4299.51,0.8521213710590066
4300.41,0.8304961636690384
4301.31,0.8088115671587559
4302.21,0.7973549158227453
4303.11,0.7941214376213461
4304.01,0.7925710250141822
4304.91,0.7933081221027194
4305.81,0.7933678762285008
4306.71,0.7915451626846588
4307.61,0.7854254036832494
4308.51,0.7786362918001993
4309.41,0.7739526712652082
4310.31,0.7845160182490019
4311.21,0.7984340140043005
4312.11,0.8233496949778832
4313.01,0.855514682435632
4313.91,0.8963604041161592
4314.81,0.9502623522751656
4315.71,1.0007281051472323
4316.61,1.0457183037080753
4317.51,1.0900417977067858
4318.41,1.124219005297737
4319.31,1.142926460638302
4320.21,1.1382200032403256
4321.12,1.1295421023629355
4322.02,1.1053624822543393
4322.92,1.0680966692792726
4323.82,1.0354080629584124
4324.72,1.002748876392706
4325.62,0.9854040331413106
4326.52,0.9745134885219047
4327.42,0.9846105706415488
4328.32,1.0126716806569496
4329.22,1.0387135318834337
4330.12,1.0676170204991036
4331.02,1.0910534511169854
4331.92,1.107133443830496
4332.82,1.1157549844528794
4333.72,1.113080668489911
4334.62,1.1061302027577804
4335.52,1.0902371505705737
4336.42,1.0606319867348493
4337.32,1.0211928184479775
4338.22,0.9763755989651145
4339.12,0.9289104737249143
4340.02,0.8963711579407373
4340.92,0.8758350864922282
4341.82,0.8732134220316617
4342.72,0.8884576373769939
4343.62,0.9190498927105102
4344.52,0.953681424276982
4345.42,0.9884699420570154
4346.32,1.0249368841587765
4347.22,1.0464017708522275
4348.12,1.0648898475052877
4349.02,1.06843877545854
4349.92,1.0687025598124476
4350.82,1.0580568034808762
4351.72,1.0457323566775054
4352.62,1.033189527569996
4353.52,1.022695045016766
4354.42,1.02520992841699
4355.32,1.0306072888791225
4356.22,1.0407887856903384
4357.12,1.055680348504424
4358.02,1.0664847127365173
4358.92,1.0737332128951105
4359.83,1.0793280876594236
4360.73,1.0806519615799255
4361.63,1.0904173813860902
4362.53,1.0973934685498652
4363.43,1.1042858825541824
4364.33,1.1098337244878893
4365.23,1.114671998040734
