wave,flux
3700.85,-6.36542037551992e-07
3701.75,-6.306108363688867e-07
3702.65,-6.185650300214232e-07
3703.55,-6.026974182986759e-07
3704.45,-5.873956101607982e-07
3705.35,-5.825390392137295e-07
3706.25,-5.826384472318584e-07
3707.15,-5.927766792071498e-07
3708.05,-5.995870198664263e-07
3708.96,-6.068855531832143e-07
3709.86,-6.08176416731847e-07
3710.76,-6.059679572268295e-07
3711.66,-6.006689925667134e-07
3712.56,-6.107994064558083e-07
3713.46,-6.215610981957115e-07
3714.36,-6.416794906268642e-07
3715.26,-6.64425098337582e-07
3716.16,-6.838840644088134e-07
3717.06,-6.918569634893306e-07
3717.96,-6.871269861541678e-07
3718.86,-6.658778050798422e-07
3719.76,-6.400468870371662e-07
3720.66,-6.08058774022313e-07
3721.56,-5.807774891722918e-07
3722.46,-5.723380468416909e-07
3723.36,-5.815238402699653e-07
3724.26,-6.073500692284127e-07
3725.16,-6.418389691107297e-07
3726.06,-6.757390799691057e-07
3726.96,-7.049505768149599e-07
3727.86,-7.194877179090502e-07
3728.76,-7.266071711150776e-07
3729.66,-7.271920512835594e-07
3730.56,-7.102591650733858e-07
3731.46,-6.815470478876538e-07
3732.36,-6.436541692540574e-07
3733.26,-6.048581108060768e-07
3734.16,-5.731856079577289e-07
3735.06,-5.551113527832762e-07
3735.96,-5.590188701471167e-07
3736.86,-5.859963026579402e-07
3737.76,-6.267519200292524e-07
3738.66,-6.747562392258618e-07
3739.56,-7.232563562128839e-07
3740.46,-7.594588483132311e-07
3741.36,-7.856506072066926e-07
3742.26,-8.002914944950688e-07
3743.16,-7.988679077589538e-07
3744.06,-7.894556331058214e-07
3744.96,-7.650572576983826e-07
3745.86,-7.342100056499609e-07
3746.76,-6.944003986581185e-07
3747.67,-6.520621286936547e-07
3748.57,-6.124088635373557e-07
3749.47,-5.815863686228506e-07
3750.37,-5.704219109180082e-07
3751.27,-5.806533623046368e-07
3752.17,-6.092058797678314e-07
3753.07,-6.575702521366683e-07
3753.97,-7.10382904531984e-07
3754.87,-7.62427014266495e-07
3755.77,-8.075724539428699e-07
3756.67,-8.312016589329483e-07
3757.57,-8.502780116633384e-07
3758.47,-8.586374791134345e-07
3759.37,-8.713835099053891e-07
3760.27,-8.808777973305999e-07
3761.17,-8.903928948234301e-07
3762.07,-8.958443723370349e-07
3762.97,-8.984649455901513e-07
3763.87,-8.957985711689684e-07
3764.77,-8.794301427629375e-07
3765.67,-8.567183896728389e-07
3766.57,-8.2418492598388e-07
3767.47,-7.815954610978078e-07
3768.37,-7.376522800122025e-07
3769.27,-6.954172535068136e-07
3770.17,-6.600296771445994e-07
3771.07,-6.468299736415526e-07
3771.97,-6.512034954009166e-07
3772.87,-6.766447273973534e-07
3773.77,-7.113451342979474e-07
3774.67,-7.60398071368596e-07
3775.57,-8.084987232243791e-07
3776.47,-8.554914613113268e-07
3777.37,-9.074163433666299e-07
3778.27,-9.513238603132206e-07
3779.17,-9.95942200264454e-07
3780.07,-1.0267485433365604e-06
3780.97,-1.0582369512433521e-06
3781.87,-1.0877023013768676e-06
3782.77,-1.1033750015620044e-06
3783.67,-1.11119778731574e-06
3784.57,-1.111194774524833e-06
3785.47,-1.103954738520569e-06
3786.38,-1.0877711485441866e-06
3787.28,-1.0750841420443032e-06
3788.18,-1.0489262608845419e-06
3789.08,-1.0295123162667837e-06
3789.98,-1.003807125344306e-06
3790.88,-9.806253234225475e-07
3791.78,-9.495771889512409e-07
3792.68,-9.131216801724935e-07
3793.58,-8.661067043299921e-07
3794.48,-8.132199335731175e-07
3795.38,-7.603141497538297e-07
3796.28,-7.076496203889808e-07
3797.18,-6.672087683073141e-07
3798.08,-6.425805266347309e-07
3798.98,-6.395632983651785e-07
3799.88,-6.652890255178841e-07
3800.78,-7.071401370725862e-07
3801.68,-7.639673851648466e-07
3802.58,-8.25593795438204e-07
3803.48,-8.925084794439731e-07
3804.38,-9.4154327299681e-07
3805.28,-9.91953875060551e-07
3806.18,-1.0264598244653266e-06
3807.08,-1.0617304699363818e-06
3807.98,-1.1005150238508324e-06
3808.88,-1.1339414625997026e-06
3809.78,-1.160085099883271e-06
3810.68,-1.1895743714749016e-06
3811.58,-1.2073501747837543e-06
3812.48,-1.2145936101369215e-06
3813.38,-1.2178102077941032e-06
3814.28,-1.2171989379485408e-06
3815.18,-1.2227691689702624e-06
3816.08,-1.230752859814334e-06
3816.98,-1.2303108842197716e-06
3817.88,-1.2287431087552303e-06
3818.78,-1.229955506005754e-06
3819.68,-1.2204985554104929e-06
3820.58,-1.2073677620426153e-06
3821.48,-1.1952800895124044e-06
3822.38,-1.1835396943731616e-06
3823.28,-1.1628279646391479e-06
3824.18,-1.136457595213102e-06
3825.09,-1.1105789590897953e-06
3825.99,-1.0766772299467299e-06
3826.89,-1.044697995462292e-06
3827.79,-1.0192539573068604e-06
3828.69,-9.857205715115667e-07
3829.59,-9.495552822685041e-07
3830.49,-9.010156409830332e-07
3831.39,-8.4561136393792e-07
3832.29,-7.941102261289396e-07
3833.19,-7.397597929966154e-07
3834.09,-6.868114254865017e-07
3834.99,-6.493812434278914e-07
3835.89,-6.31685307261654e-07
3836.79,-6.322578025143871e-07
3837.69,-6.557731316685153e-07
3838.59,-6.965968664168582e-07
3839.49,-7.517637937694774e-07
3840.39,-8.083256086873038e-07
3841.29,-8.754958003704614e-07
3842.19,-9.328296380763791e-07
3843.09,-9.949945943657972e-07
3843.99,-1.0485054546144484e-06
3844.89,-1.0909494347374112e-06
3845.79,-1.1338798090917616e-06
3846.69,-1.1679690546176391e-06
3847.59,-1.1986343367275567e-06
3848.49,-1.226587108218e-06
3849.39,-1.249867351397269e-06
3850.29,-1.2694627964678472e-06
3851.19,-1.2910018871744619e-06
3852.09,-1.3163927229255792e-06
3852.99,-1.33361155787797e-06
3853.89,-1.345376157542934e-06
3854.79,-1.3605339884729165e-06
3855.69,-1.3666240610715598e-06
3856.59,-1.3672706760236294e-06
3857.49,-1.3710146988755784e-06
3858.39,-1.3744841031711798e-06
3859.29,-1.3798229471371283e-06
3860.19,-1.387546435938266e-06
3861.09,-1.3999261923185952e-06
3861.99,-1.4143161704030506e-06
3862.9,-1.4249004681006266e-06
3863.8,-1.436511662852092e-06
3864.7,-1.4447945525508252e-06
3865.6,-1.4364192646183382e-06
3866.5,-1.4370828092379485e-06
3867.4,-1.431470957925504e-06
3868.3,-1.4232741006640667e-06
3869.2,-1.404134377990759e-06
3870.1,-1.394394369851898e-06
3871.0,-1.3799298073465406e-06
3871.9,-1.3635359188875582e-06
3872.8,-1.3565816409377885e-06
3873.7,-1.3395433393882693e-06
3874.6,-1.3325413756812042e-06
3875.5,-1.3212548489090917e-06
3876.4,-1.3031287526683212e-06
3877.3,-1.2802194552652894e-06
3878.2,-1.254361631226518e-06
3879.1,-1.2131481240121134e-06
3880.0,-1.1832034179806579e-06
3880.9,-1.153070534241782e-06
3881.8,-1.1175168141195635e-06
3882.7,-1.084322355846124e-06
3883.6,-1.040384488261495e-06
3884.5,-9.946496957035129e-07
3885.4,-9.454762844732738e-07
3886.3,-8.926767754996382e-07
3887.2,-8.336038173616888e-07
3888.1,-7.842377853564303e-07
3889.0,-7.53122862538994e-07
3889.9,-7.420866871990273e-07
3890.8,-7.574361614122558e-07
3891.7,-7.939055930290344e-07
3892.6,-8.450248725204036e-07
3893.5,-9.067135131900554e-07
3894.4,-9.611002147490153e-07
3895.3,-1.0130111321993649e-06
3896.2,-1.0696059019979285e-06
3897.1,-1.1147673147940732e-06
3898.0,-1.1530271777753335e-06
3898.9,-1.190484731932279e-06
3899.8,-1.2335063197431652e-06
3900.7,-1.2643517029392228e-06
3901.6,-1.296044623628357e-06
3902.51,-1.3235276657668177e-06
3903.41,-1.3495023414986122e-06
3904.31,-1.373501280453628e-06
3905.21,-1.3912607159749748e-06
3906.11,-1.418724673817127e-06
3907.01,-1.440483228475533e-06
3907.91,-1.461148771102367e-06
3908.81,-1.4965599984041719e-06
3909.71,-1.517096975174829e-06
3910.61,-1.5440816112079585e-06
3911.51,-1.5592194205886891e-06
3912.41,-1.5676731972578719e-06
3913.31,-1.5811143602618833e-06
3914.21,-1.5829978353971452e-06
3915.11,-1.5823935861405983e-06
3916.01,-1.585799868071739e-06
3916.91,-1.5797749927811651e-06
3917.81,-1.5880594708662456e-06
3918.71,-1.5911131420866984e-06
3919.61,-1.59050599276808e-06
3920.51,-1.5849401693349342e-06
3921.41,-1.5879344097030764e-06
3922.31,-1.5942455102149253e-06
3923.21,-1.589641138066318e-06
3924.11,-1.5928922169924998e-06
3925.01,-1.5979955860066006e-06
3925.91,-1.5862260758308063e-06
3926.81,-1.5667768776584415e-06
3927.71,-1.5339998565099303e-06
3928.61,-1.5054713899447222e-06
3929.51,-1.4615185002938297e-06
3930.41,-1.4031397017085654e-06
3931.31,-1.3359309277522335e-06
3932.21,-1.2652043274691534e-06
3933.11,-1.2052557866974046e-06
3934.01,-1.1768650010796136e-06
3934.91,-1.1800208719052545e-06
3935.81,-1.2107162675259782e-06
3936.71,-1.2787390363714336e-06
3937.61,-1.3641965794670626e-06
3938.51,-1.435007515622696e-06
3939.42,-1.4957810734461079e-06
3940.32,-1.547572222161726e-06
3941.22,-1.5824440569150635e-06
3942.12,-1.5861063545243946e-06
3943.02,-1.5991680403586208e-06
3943.92,-1.6045596123884759e-06
3944.82,-1.6124898131875943e-06
3945.72,-1.6118333588969656e-06
3946.62,-1.6164940132000712e-06
3947.52,-1.6233201591699838e-06
3948.42,-1.6219703731830649e-06
3949.32,-1.6139407787396843e-06
3950.22,-1.607608412124841e-06
3951.12,-1.597244488974019e-06
3952.02,-1.5882573270081646e-06
3952.92,-1.5844844383990153e-06
3953.82,-1.5712996922703312e-06
3954.72,-1.5495014722850903e-06
3955.62,-1.53623913605325e-06
3956.52,-1.5181934765977166e-06
3957.42,-1.483523270266345e-06
3958.32,-1.4615710129895164e-06
3959.22,-1.4249417091987922e-06
3960.12,-1.388286841664261e-06
3961.02,-1.3392087568294075e-06
3961.92,-1.2775333083173442e-06
3962.82,-1.214089229597959e-06
3963.72,-1.1424545945687025e-06
3964.62,-1.0508560053956088e-06
3965.52,-9.568910433472101e-07
3966.42,-8.596408835099945e-07
3967.32,-7.615684711895517e-07
3968.22,-6.811221623042176e-07
3969.12,-6.248025219027893e-07
3970.02,-5.997231055797935e-07
3970.92,-6.107153335836044e-07
3971.82,-6.53022903393735e-07
3972.72,-7.280188743525191e-07
3973.62,-8.142746396808685e-07
3974.52,-9.072479186735548e-07
3975.42,-9.994579969953175e-07
3976.32,-1.085431118031423e-06
3977.22,-1.168311871775329e-06
3978.13,-1.2421590077101514e-06
3979.03,-1.298439242550329e-06
3979.93,-1.361080395654952e-06
3980.83,-1.404442300595425e-06
3981.73,-1.445384884677769e-06
3982.63,-1.4785147934863681e-06
3983.53,-1.5061994007631301e-06
3984.43,-1.5391470727767988e-06
3985.33,-1.5749083812890978e-06
3986.23,-1.600801941805021e-06
3987.13,-1.6297661177721038e-06
3988.03,-1.658330098124751e-06
3988.93,-1.686693446305339e-06
3989.83,-1.7037800555969036e-06
3990.73,-1.737102532827269e-06
3991.63,-1.7438587133469095e-06
3992.53,-1.7606671449688513e-06
3993.43,-1.7807520456141715e-06
3994.33,-1.7831227803608265e-06
3995.23,-1.7882017662375749e-06
3996.13,-1.7893645967049968e-06
3997.03,-1.7901214686477362e-06
3997.93,-1.7942033049009155e-06
3998.83,-1.7999236460406901e-06
3999.73,-1.8191932976415057e-06
4000.63,-1.8342849659591826e-06
4001.53,-1.8626408628935304e-06
4002.43,-1.870102793795349e-06
4003.33,-1.879016291885265e-06
4004.23,-1.8694011060521146e-06
4005.13,-1.8729174292501126e-06
4006.03,-1.8716373544916965e-06
4006.93,-1.8849152097473287e-06
4007.83,-1.8936838952634434e-06
4008.73,-1.9026094979941374e-06
4009.63,-1.917415162026192e-06
4010.53,-1.9271464557453392e-06
4011.43,-1.9271539516589267e-06
4012.33,-1.9419680296742905e-06
4013.23,-1.9462154633287644e-06
4014.13,-1.9584485039022134e-06
4015.03,-1.9540400351422015e-06
4015.93,-1.9622746721471523e-06
4016.84,-1.968952560037023e-06
4017.74,-1.986283533510646e-06
4018.64,-1.982227038227196e-06
4019.54,-1.9870332671722635e-06
4020.44,-1.9980060902408572e-06
4021.34,-1.9899488088123967e-06
4022.24,-1.9860777434562854e-06
4023.14,-1.994835438982881e-06
4024.04,-1.9938388729153083e-06
4024.94,-1.9895287367713423e-06
4025.84,-1.9919016750078776e-06
4026.74,-1.997947762782717e-06
4027.64,-2.0041476261286713e-06
4028.54,-2.0007390035484685e-06
4029.44,-2.003623628199304e-06
4030.34,-1.9921872837912223e-06
4031.24,-1.974329822558151e-06
4032.14,-1.980171293822403e-06
4033.04,-1.976628847252605e-06
4033.94,-1.9812711923640443e-06
4034.84,-1.988277342481941e-06
4035.74,-2.0121592225550256e-06
4036.64,-2.026726790128076e-06
4037.54,-2.0436196745666504e-06
4038.44,-2.0502973857693882e-06
4039.34,-2.0695535882730286e-06
4040.24,-2.059309766096367e-06
4041.14,-2.0619935490012385e-06
4042.04,-2.0602135369972582e-06
4042.94,-2.047170902381349e-06
4043.84,-2.0300480635284795e-06
4044.74,-2.013965410576427e-06
4045.64,-1.9991441202403337e-06
4046.54,-2.0051663814473365e-06
4047.44,-2.000238688140168e-06
4048.34,-2.0206646202997586e-06
4049.24,-2.0273107442018027e-06
4050.14,-2.049491769719182e-06
4051.04,-2.0589574734200537e-06
4051.94,-2.0614314271153206e-06
4052.84,-2.0664688511900134e-06
4053.74,-2.065584633894481e-06
4054.65,-2.0461738300911087e-06
4055.55,-2.0575169872637628e-06
4056.45,-2.048819449418553e-06
4057.35,-2.0535655323325545e-06
4058.25,-2.0530892207583763e-06
4059.15,-2.053420750708846e-06
4060.05,-2.0649785112665767e-06
4060.95,-2.065764321642166e-06
4061.85,-2.0500361053438008e-06
4062.75,-2.035823326972196e-06
4063.65,-2.033004969159577e-06
4064.55,-2.025420158938905e-06
4065.45,-2.010892983861466e-06
4066.35,-2.018680848021263e-06
4067.25,-2.0252919095258174e-06
4068.15,-2.0326638851379188e-06
4069.05,-2.042594553718865e-06
4069.95,-2.0482041822249748e-06
4070.85,-2.0410792721006898e-06
4071.75,-2.0383632092108922e-06
4072.65,-2.0274451041319173e-06
4073.55,-2.015819994712187e-06
4074.45,-2.0022796806038636e-06
4075.35,-1.9890803721519654e-06
4076.25,-1.966932229833399e-06
4077.15,-1.95977721537315e-06
4078.05,-1.9402585482951968e-06
4078.95,-1.9400988825981055e-06
4079.85,-1.9432766776688592e-06
4080.75,-1.9407592500170896e-06
4081.65,-1.9527691147078033e-06
4082.55,-1.952766997177496e-06
4083.45,-1.9472692275727347e-06
4084.35,-1.926400928955602e-06
4085.25,-1.9234521392403215e-06
4086.15,-1.9126823410949076e-06
4087.05,-1.9050269738082322e-06
4087.95,-1.8955075555336978e-06
4088.85,-1.8785057470305445e-06
4089.75,-1.8597658484712162e-06
4090.65,-1.8341183478792159e-06
4091.55,-1.802771909630516e-06
4092.45,-1.7662460170370607e-06
4093.36,-1.729650491418778e-06
4094.26,-1.6821712652881066e-06
4095.16,-1.6302284655176814e-06
4096.06,-1.5715538818379945e-06
4096.96,-1.5079881587948939e-06
4097.86,-1.436477500049868e-06
4098.76,-1.3583171587977131e-06
4099.66,-1.281363631423841e-06
4100.56,-1.215153595502049e-06
4101.46,-1.1552687788172193e-06
4102.36,-1.1234295340939788e-06
4103.26,-1.1283683347377174e-06
4104.16,-1.1629996987428008e-06
4105.06,-1.2209884966734855e-06
4105.96,-1.3013992333782847e-06
4106.86,-1.378700042787106e-06
4107.76,-1.4505902799337366e-06
4108.66,-1.5128613482832206e-06
4109.56,-1.576473884726477e-06
4110.46,-1.6245597273569473e-06
4111.36,-1.680458135140061e-06
4112.26,-1.7278388578890297e-06
4113.16,-1.765556317939912e-06
4114.06,-1.8083026831474642e-06
4114.96,-1.8494804145457126e-06
4115.86,-1.8877265544183753e-06
4116.76,-1.916636552935729e-06
4117.66,-1.9384954759263766e-06
4118.56,-1.959125170642796e-06
4119.46,-1.9627177681748225e-06
4120.36,-1.981899038299345e-06
4121.26,-1.9977484936317057e-06
4122.16,-2.0120249568336675e-06
4123.06,-2.0370579593172918e-06
4123.96,-2.060052705647868e-06
4124.86,-2.0643507849007444e-06
4125.76,-2.0823342970994325e-06
4126.66,-2.0893401935500954e-06
4127.56,-2.104068940462961e-06
4128.46,-2.108921289053762e-06
4129.36,-2.1094721942201375e-06
4130.26,-2.1153970248643958e-06
4131.17,-2.1145139875693542e-06
4132.06,-2.1227112278355686e-06
4132.97,-2.1182326782118807e-06
4133.87,-2.1347474118554044e-06
4134.77,-2.1502357558826494e-06
4135.67,-2.1728181215317124e-06
4136.57,-2.1984129917121724e-06
4137.47,-2.2135390568037947e-06
4138.37,-2.225323190581606e-06
4139.27,-2.2465371960379757e-06
4140.17,-2.24434780621889e-06
4141.07,-2.2598457159290294e-06
4141.97,-2.238867333404764e-06
4142.87,-2.2493349323442764e-06
4143.77,-2.2326833993464096e-06
4144.67,-2.2277884395907273e-06
4145.57,-2.236775316963146e-06
4146.47,-2.2465320465756626e-06
4147.37,-2.2546421174568e-06
4148.27,-2.2777224889810997e-06
4149.17,-2.2746792330080133e-06
4150.07,-2.2837685420781884e-06
4150.97,-2.279042270486022e-06
4151.87,-2.2859714185463804e-06
4152.77,-2.272823340111404e-06
4153.67,-2.2758001512885254e-06
4154.57,-2.2824899440889665e-06
4155.47,-2.282105226348341e-06
4156.37,-2.2747879332976313e-06
4157.27,-2.2918147379486886e-06
4158.17,-2.3155741467052586e-06
4159.07,-2.3141999195004894e-06
4159.97,-2.326407507512593e-06
4160.87,-2.325972946136042e-06
4161.77,-2.335751508541881e-06
4162.67,-2.34947360786412e-06
4163.57,-2.3561426989650215e-06
4164.47,-2.3678684980186624e-06
4165.37,-2.3581407340281034e-06
4166.27,-2.358496296498588e-06
4167.17,-2.368973872198169e-06
4168.07,-2.3634103776081175e-06
4168.98,-2.361303785430995e-06
4169.88,-2.3517480059465443e-06
4170.78,-2.3393188060050306e-06
4171.68,-2.32754551999463e-06
4172.58,-2.3120212675362542e-06
4173.48,-2.305370980403658e-06
4174.38,-2.288472241680927e-06
4175.28,-2.2907950810526766e-06
4176.18,-2.29225182954969e-06
4177.08,-2.299452273890021e-06
4177.98,-2.306493905058284e-06
4178.88,-2.312416468677356e-06
4179.78,-2.3392277857577395e-06
4180.68,-2.354734787560514e-06
4181.58,-2.357054812870645e-06
4182.48,-2.354730307738954e-06
4183.38,-2.3809313778525642e-06
4184.28,-2.4024493825390482e-06
4185.18,-2.384936613150545e-06
4186.08,-2.394874609247084e-06
4186.98,-2.38047775951738e-06
4187.88,-2.388396890381769e-06
4188.78,-2.3904936926278825e-06
4189.68,-2.390289342351072e-06
4190.58,-2.406136996173986e-06
4191.48,-2.405768262570946e-06
4192.38,-2.415978523024997e-06
4193.28,-2.435650999617e-06
4194.18,-2.435130916654622e-06
4195.08,-2.419518305696639e-06
4195.98,-2.4081530934042347e-06
4196.88,-2.408659940033014e-06
4197.78,-2.3935704276529385e-06
4198.68,-2.3800541060101716e-06
4199.58,-2.3785402528431443e-06
4200.48,-2.3744101791852604e-06
4201.38,-2.3809865727289453e-06
4202.28,-2.392357515496838e-06
4203.18,-2.3913809041056884e-06
4204.08,-2.4073100663660166e-06
4204.98,-2.4018162143698487e-06
4205.88,-2.4165242553629833e-06
4206.79,-2.4367492509585152e-06
4207.69,-2.4515342144816106e-06
4208.59,-2.470723233009828e-06
4209.49,-2.483487612741064e-06
4210.39,-2.47355836011012e-06
4211.29,-2.4797737146797267e-06
4212.19,-2.4864593074733086e-06
4213.09,-2.4795085246321137e-06
4213.99,-2.465014402997119e-06
4214.89,-2.4644406839441008e-06
4215.79,-2.4554929406488093e-06
4216.69,-2.453056987028453e-06
4217.59,-2.4507958287601774e-06
4218.49,-2.4692991921763144e-06
4219.39,-2.4856285028903034e-06
4220.29,-2.490055681244871e-06
4221.19,-2.492915309328463e-06
4222.09,-2.495686189215669e-06
4222.99,-2.4898185947899863e-06
4223.89,-2.4583440258025804e-06
4224.79,-2.4485859892801126e-06
4225.69,-2.4233130584078242e-06
4226.59,-2.3956358456097526e-06
4227.49,-2.4009005855488414e-06
4228.39,-2.401867651846813e-06
4229.29,-2.4274034071636785e-06
4230.19,-2.4518755486382906e-06
4231.09,-2.4797928113911596e-06
4231.99,-2.493187247949813e-06
4232.89,-2.506047591416277e-06
4233.79,-2.499777227147573e-06
4234.69,-2.4926365212051237e-06
4235.59,-2.4920982058754666e-06
4236.49,-2.495724425190453e-06
4237.39,-2.501918489328028e-06
4238.29,-2.5069852437813098e-06
4239.19,-2.502073292940652e-06
4240.09,-2.533245884658248e-06
4240.99,-2.531877470379178e-06
4241.89,-2.5546638910332523e-06
4242.79,-2.5584767415602144e-06
4243.69,-2.5610512918361502e-06
4244.59,-2.5576847518696813e-06
4245.5,-2.5635592221210723e-06
4246.4,-2.550663365103518e-06
4247.3,-2.5514945704931824e-06
4248.2,-2.5338195686092636e-06
4249.1,-2.5212096363942527e-06
4250.0,-2.530691933756457e-06
4250.9,-2.5306165091365396e-06
4251.8,-2.5355754248910995e-06
4252.7,-2.5398647612052335e-06
4253.6,-2.567183732878236e-06
4254.5,-2.5670444888162227e-06
4255.4,-2.5804390310301257e-06
4256.3,-2.5750435756055533e-06
4257.2,-2.582813017206037e-06
4258.1,-2.5777905034598937e-06
4259.0,-2.5734365869290454e-06
4259.9,-2.5817140176245095e-06
4260.8,-2.5816658268679336e-06
4261.7,-2.5788617910526134e-06
4262.6,-2.5931719130672892e-06
4263.5,-2.6151043439186135e-06
4264.4,-2.6258414214202183e-06
4265.3,-2.638184022357845e-06
4266.2,-2.6585694200859377e-06
4267.1,-2.658992955871452e-06
4268.0,-2.64096298529716e-06
4268.9,-2.6296362702292226e-06
4269.8,-2.615988512324653e-06
4270.7,-2.591744583239472e-06
4271.6,-2.5595551871686152e-06
4272.5,-2.562325802776348e-06
4273.4,-2.5408039387539546e-06
4274.3,-2.5390447979536176e-06
