wave,flux
3700.85,-1.693896454047931e-06
3701.75,-1.6808475009678751e-06
3702.65,-1.6541106956354485e-06
3703.55,-1.5971658990966657e-06
3704.45,-1.5349878288615136e-06
3705.35,-1.4978867099996897e-06
3706.25,-1.481090107067659e-06
3707.15,-1.4834838133218057e-06
3708.05,-1.500448110148256e-06
3708.96,-1.5280495209154043e-06
3709.86,-1.5467368395126329e-06
3710.76,-1.5616716308865117e-06
3711.66,-1.586575887131881e-06
3712.56,-1.6338792767797448e-06
3713.46,-1.6805465144857474e-06
3714.36,-1.7544948976592071e-06
3715.26,-1.8056803036193746e-06
3716.16,-1.8501183682344246e-06
3717.06,-1.8639891305820177e-06
3717.96,-1.8410209088499218e-06
3718.86,-1.7737334850825934e-06
3719.76,-1.6905783504834735e-06
3720.66,-1.5995931268451078e-06
3721.56,-1.5212640580536104e-06
3722.46,-1.494366639380535e-06
3723.36,-1.5206321176523478e-06
3724.26,-1.5891053948809666e-06
3725.16,-1.6787777065337336e-06
3726.06,-1.7665588790939999e-06
3726.96,-1.8382088509282407e-06
3727.86,-1.8766425399567898e-06
3728.76,-1.8920132692478321e-06
3729.66,-1.899353187357915e-06
3730.56,-1.8673192955278897e-06
3731.46,-1.8059536962195974e-06
3732.36,-1.7161009440433694e-06
3733.26,-1.6164464819424392e-06
3734.16,-1.5132850310583104e-06
3735.06,-1.4419499553517738e-06
3735.96,-1.4352151045008745e-06
3736.86,-1.4686124644680906e-06
3737.76,-1.5559770516556648e-06
3738.66,-1.6831653685311197e-06
3739.56,-1.816373932017196e-06
3740.46,-1.928783163452878e-06
3741.36,-2.0086029586578554e-06
3742.26,-2.0412558787375625e-06
3743.16,-2.0320284659672684e-06
3744.06,-2.0047074697338638e-06
3744.96,-1.947036700442392e-06
3745.86,-1.8717252917219621e-06
3746.76,-1.782717572108209e-06
3747.67,-1.6854579719064492e-06
3748.57,-1.6076897234350903e-06
3749.47,-1.5426880731119177e-06
3750.37,-1.5204208491018792e-06
3751.27,-1.5621577119214953e-06
3752.17,-1.66654375333056e-06
3753.07,-1.802305978644197e-06
3753.97,-1.9377101165963255e-06
3754.87,-2.0732285216042834e-06
3755.77,-2.157555024938461e-06
3756.67,-2.213920977532827e-06
3757.57,-2.2083878438100417e-06
3758.47,-2.191149289880165e-06
3759.37,-2.1708886612010023e-06
3760.27,-2.168059064275493e-06
3761.17,-2.1816710078720625e-06
3762.07,-2.221808212628283e-06
3762.97,-2.257743881803112e-06
3763.87,-2.280916559882998e-06
3764.77,-2.2875452891135346e-06
3765.67,-2.2733671002937898e-06
3766.57,-2.2238202735376588e-06
3767.47,-2.151316066936819e-06
3768.37,-2.081987635071468e-06
3769.27,-2.015363308288112e-06
3770.17,-1.947788633876187e-06
3771.07,-1.9203436503892453e-06
3771.97,-1.9564124694564862e-06
3772.87,-2.0068965650250158e-06
3773.77,-2.1090718681599222e-06
3774.67,-2.2079703994178263e-06
3775.57,-2.3207422475994072e-06
3776.47,-2.413443736357207e-06
3777.37,-2.511219535275122e-06
3778.27,-2.587405042390066e-06
3779.17,-2.6875785183173186e-06
3780.07,-2.7425826740401183e-06
3780.97,-2.8282783118019033e-06
3781.87,-2.879739005403758e-06
3782.77,-2.9097212223561396e-06
3783.67,-2.917981539284105e-06
3784.57,-2.907891722231432e-06
3785.47,-2.877304895954274e-06
3786.38,-2.835875308372092e-06
3787.28,-2.767969600793528e-06
3788.18,-2.7279220288174203e-06
3789.08,-2.6830092965200463e-06
3789.98,-2.6517674705159715e-06
3790.88,-2.619256166502139e-06
3791.78,-2.578421427583877e-06
3792.68,-2.5169800460089362e-06
3793.58,-2.4461021572282706e-06
3794.48,-2.3531844151208217e-06
3795.38,-2.2365891467613104e-06
3796.28,-2.1196700199774985e-06
3797.18,-2.0136009350292487e-06
3798.08,-1.9552641419217654e-06
3798.98,-1.9572290260973945e-06
3799.88,-2.025469668642938e-06
3800.78,-2.151774246486077e-06
3801.68,-2.3154500161619904e-06
3802.58,-2.490372967366348e-06
3803.48,-2.65928681285839e-06
3804.38,-2.7895724710028097e-06
3805.28,-2.8886821345804083e-06
3806.18,-2.927778861466006e-06
3807.08,-2.9843190423553322e-06
3807.98,-3.0519152085623855e-06
3808.88,-3.1089739599764705e-06
3809.78,-3.1581212775380496e-06
3810.68,-3.2034090822913774e-06
3811.58,-3.2225441765432863e-06
3812.48,-3.2017768585272836e-06
3813.38,-3.1874544387502036e-06
3814.28,-3.1245921095511743e-06
3815.18,-3.0978854756337475e-06
3816.08,-3.093326503055958e-06
3816.98,-3.1011432461444193e-06
3817.88,-3.1254674277192547e-06
3818.78,-3.1269997967926483e-06
3819.68,-3.128192121497207e-06
3820.58,-3.1357190408496015e-06
3821.48,-3.0951404920363235e-06
3822.38,-3.080642282504519e-06
3823.28,-3.0486686947845154e-06
3824.18,-3.002246508075376e-06
3825.09,-2.9442016476946897e-06
3825.99,-2.887697483940063e-06
3826.89,-2.8314436006333395e-06
3827.79,-2.779263068742019e-06
3828.69,-2.722590443829552e-06
3829.59,-2.6539058714403923e-06
3830.49,-2.5982523309112434e-06
3831.39,-2.4834739843673545e-06
3832.29,-2.366645405600396e-06
3833.19,-2.2412045079156513e-06
3834.09,-2.0983238556586627e-06
3834.99,-2.0117975224949286e-06
3835.89,-1.9664386704380683e-06
3836.79,-1.963922123581398e-06
3837.69,-2.022755884477358e-06
3838.59,-2.121895883893861e-06
3839.49,-2.251254838656656e-06
3840.39,-2.4122136899711347e-06
3841.29,-2.581663022211673e-06
3842.19,-2.752792517305656e-06
3843.09,-2.9313178720495826e-06
3843.99,-3.0849501005878823e-06
3844.89,-3.2126863173011744e-06
3845.79,-3.329001963954134e-06
3846.69,-3.4334370671831153e-06
3847.59,-3.493722752050283e-06
3848.49,-3.5486038526534247e-06
3849.39,-3.581496206155371e-06
3850.29,-3.6217665727994022e-06
3851.19,-3.6761326961092053e-06
3852.09,-3.7215089984545104e-06
3852.99,-3.75694174228889e-06
3853.89,-3.7833632589670033e-06
3854.79,-3.802156399430005e-06
3855.69,-3.797327095320026e-06
3856.59,-3.7832397528804978e-06
3857.49,-3.756859297548955e-06
3858.39,-3.7181509540910107e-06
3859.29,-3.7178023722074214e-06
3860.19,-3.7346296269233094e-06
3861.09,-3.758177458807038e-06
3861.99,-3.833086575368345e-06
3862.9,-3.913350335726927e-06
3863.8,-3.991748988894408e-06
3864.7,-4.046694776917022e-06
3865.6,-4.073503399485126e-06
3866.5,-4.085079103144774e-06
3867.4,-4.081819371367289e-06
3868.3,-4.079580356340863e-06
3869.2,-4.092029055370713e-06
3870.1,-4.061347888681372e-06
3871.0,-4.018025853884728e-06
3871.9,-3.9466996271296726e-06
3872.8,-3.897124736002107e-06
3873.7,-3.859996261065952e-06
3874.6,-3.841753840941909e-06
3875.5,-3.8508720524175945e-06
3876.4,-3.845006926165616e-06
3877.3,-3.821738425498593e-06
3878.2,-3.8017796045677788e-06
3879.1,-3.7579658842196515e-06
3880.0,-3.725153117379221e-06
3880.9,-3.695544856823378e-06
3881.8,-3.6799706175459656e-06
3882.7,-3.63097553116818e-06
3883.6,-3.5782783845723444e-06
3884.5,-3.452104326104236e-06
3885.4,-3.3206928687974347e-06
3886.3,-3.169707608057626e-06
3887.2,-2.9931109773711577e-06
3888.1,-2.839202148319731e-06
3889.0,-2.7444071303365835e-06
3889.9,-2.7182209083677386e-06
3890.8,-2.7709093980239406e-06
3891.7,-2.9176543780035765e-06
3892.6,-3.081681435555586e-06
3893.5,-3.257653458955321e-06
3894.4,-3.4113013169807167e-06
3895.3,-3.5649295253562847e-06
3896.2,-3.7034262313746558e-06
3897.1,-3.7764753234855457e-06
3898.0,-3.894774855184191e-06
3898.9,-3.979372566970859e-06
3899.8,-4.054001828746356e-06
3900.7,-4.102465881748412e-06
3901.6,-4.192215176896084e-06
3902.51,-4.216094203133721e-06
3903.41,-4.2401154000448955e-06
3904.31,-4.268475118159713e-06
3905.21,-4.282180366847558e-06
3906.11,-4.3191029594126636e-06
3907.01,-4.377016817730648e-06
3907.91,-4.439089048612887e-06
3908.81,-4.524707528559972e-06
3909.71,-4.640145410216048e-06
3910.61,-4.7773033483574494e-06
3911.51,-4.809134481333011e-06
3912.41,-4.854504657533152e-06
3913.31,-4.8849995991211915e-06
3914.21,-4.869272715464952e-06
3915.11,-4.855021394777939e-06
3916.01,-4.84450243776383e-06
3916.91,-4.816693197813597e-06
3917.81,-4.771797002998087e-06
3918.71,-4.7475029147537704e-06
3919.61,-4.729652065907774e-06
3920.51,-4.705278158607549e-06
3921.41,-4.681631448898783e-06
3922.31,-4.668158959991367e-06
3923.21,-4.69584224138431e-06
3924.11,-4.670545352077118e-06
3925.01,-4.632569990750042e-06
3925.91,-4.559627643450314e-06
3926.81,-4.442743917369205e-06
3927.71,-4.230365447616871e-06
3928.61,-3.997362778379708e-06
3929.51,-3.7004444399051705e-06
3930.41,-3.3758616433093216e-06
3931.31,-3.0246899481607978e-06
3932.21,-2.6634688976485106e-06
3933.11,-2.389184001289903e-06
3934.01,-2.209034554448169e-06
3934.91,-2.183011670110885e-06
3935.81,-2.3150359214997596e-06
3936.71,-2.570473498074898e-06
3937.61,-2.9255522257224863e-06
3938.51,-3.321144973829947e-06
3939.42,-3.7226775756135166e-06
3940.32,-4.06174479204326e-06
3941.22,-4.3390466712620185e-06
3942.12,-4.509001827977474e-06
3943.02,-4.683019021695835e-06
3943.92,-4.789808486353878e-06
3944.82,-4.900286816701325e-06
3945.72,-4.972697460400766e-06
3946.62,-5.0602514410141565e-06
3947.52,-5.148705677980655e-06
3948.42,-5.184869309115313e-06
3949.32,-5.216993885312989e-06
3950.22,-5.264496292976755e-06
3951.12,-5.3188227233763725e-06
3952.02,-5.3231334636792305e-06
3952.92,-5.342587084105625e-06
3953.82,-5.383856301965426e-06
3954.72,-5.372101877408002e-06
3955.62,-5.383438989970356e-06
3956.52,-5.354627039672951e-06
3957.42,-5.296554920343664e-06
3958.32,-5.24336387192372e-06
3959.22,-5.182311817047916e-06
3960.12,-5.095074229524259e-06
3961.02,-4.950543803265436e-06
3961.92,-4.775264872503653e-06
3962.82,-4.5213681429973714e-06
3963.72,-4.278416063940042e-06
3964.62,-3.970879627783887e-06
3965.52,-3.618032230328242e-06
3966.42,-3.2386449185326214e-06
3967.32,-2.8531155346977947e-06
3968.22,-2.536052105062134e-06
3969.12,-2.3055374438381562e-06
3970.02,-2.220784839354369e-06
3970.92,-2.29616089443602e-06
3971.82,-2.521875495434795e-06
3972.72,-2.849874424630464e-06
3973.62,-3.2590358620987754e-06
3974.52,-3.652428566131187e-06
3975.42,-4.055299371721523e-06
3976.32,-4.426024684630101e-06
3977.22,-4.74260017448323e-06
3978.13,-5.043982901965018e-06
3979.03,-5.271765597125226e-06
3979.93,-5.499149690173143e-06
3980.83,-5.641286774069015e-06
3981.73,-5.780448962117939e-06
3982.63,-5.874763705030273e-06
3983.53,-5.965889830734577e-06
3984.43,-6.045964095002864e-06
3985.33,-6.11123668616865e-06
3986.23,-6.2175269778193825e-06
3987.13,-6.299116409563436e-06
3988.03,-6.401050348468634e-06
3988.93,-6.488932140899952e-06
3989.83,-6.5722255499950195e-06
3990.73,-6.6523932236161476e-06
3991.63,-6.756870936848735e-06
3992.53,-6.772517829678898e-06
3993.43,-6.843488790503682e-06
3994.33,-6.851873331628528e-06
3995.23,-6.835382169643968e-06
3996.13,-6.8196735902587815e-06
3997.03,-6.786132900088713e-06
3997.93,-6.805986205419929e-06
3998.83,-6.826861987045585e-06
3999.73,-6.920139638788879e-06
4000.63,-7.006863180256034e-06
4001.53,-7.105405934234553e-06
4002.43,-7.162685435534269e-06
4003.33,-7.208746343837561e-06
4004.23,-7.206372873850164e-06
4005.13,-7.160349697557598e-06
4006.03,-7.150947589110716e-06
4006.93,-7.151618231580569e-06
4007.83,-7.193756413515851e-06
4008.73,-7.2946939986319715e-06
4009.63,-7.409109747846387e-06
4010.53,-7.5030435590201316e-06
4011.43,-7.582162040166784e-06
4012.33,-7.609261791092139e-06
4013.23,-7.63219808407207e-06
4014.13,-7.648284393682161e-06
4015.03,-7.72305843816151e-06
4015.93,-7.752339186568675e-06
4016.84,-7.79613749519196e-06
4017.74,-7.822386361086425e-06
4018.64,-7.8666599776529e-06
4019.54,-7.925663122819438e-06
4020.44,-7.95830180007453e-06
4021.34,-7.997414428563337e-06
4022.24,-8.029704890694522e-06
4023.14,-8.013863717243383e-06
4024.04,-8.061152796224584e-06
4024.94,-8.081701124925092e-06
4025.84,-8.171932403415169e-06
4026.74,-8.141298545310092e-06
4027.64,-8.23070562546585e-06
4028.54,-8.245942638023163e-06
4029.44,-8.216761713462884e-06
4030.34,-8.150208546930689e-06
4031.24,-8.035342589649566e-06
4032.14,-7.977703809663525e-06
4033.04,-7.925956220399436e-06
4033.94,-7.982522923856778e-06
4034.84,-8.052679107294811e-06
4035.74,-8.210048791538808e-06
4036.64,-8.368773990415157e-06
4037.54,-8.542150978682617e-06
4038.44,-8.661330745090521e-06
4039.34,-8.780240748847148e-06
4040.24,-8.78753046431105e-06
4041.14,-8.775638873817371e-06
4042.04,-8.711802984116406e-06
4042.94,-8.642445686157867e-06
4043.84,-8.531924560294638e-06
4044.74,-8.485693844232382e-06
4045.64,-8.346145316568094e-06
4046.54,-8.350923613689243e-06
4047.44,-8.40150755531971e-06
4048.34,-8.501335024403131e-06
4049.24,-8.66645931106779e-06
4050.14,-8.829715214847724e-06
4051.04,-8.909109037347907e-06
4051.94,-8.977686523226894e-06
4052.84,-8.987717626631016e-06
4053.74,-8.988438224152125e-06
4054.65,-8.935060993177595e-06
4055.55,-8.935010518087157e-06
4056.45,-8.91859946097987e-06
4057.35,-8.907443258187187e-06
4058.25,-8.940859558801722e-06
4059.15,-9.004328595078893e-06
4060.05,-9.055204506326599e-06
4060.95,-9.073088594616616e-06
4061.85,-9.039409276444449e-06
4062.75,-9.004375278731829e-06
4063.65,-8.9553290285937e-06
4064.55,-8.938048109867478e-06
4065.45,-8.924813903813825e-06
4066.35,-8.95108942416039e-06
4067.25,-9.000486747928022e-06
4068.15,-9.131231336893582e-06
4069.05,-9.225904956962191e-06
4069.95,-9.307715776277897e-06
4070.85,-9.339598126576428e-06
4071.75,-9.32911931670856e-06
4072.65,-9.315217721323734e-06
4073.55,-9.337347634699563e-06
4074.45,-9.284372331503961e-06
4075.35,-9.21933418033679e-06
4076.25,-9.102865978391821e-06
4077.15,-9.016697454813656e-06
4078.05,-8.947010738000249e-06
4078.95,-8.933770987567494e-06
4079.85,-9.089985431834017e-06
4080.75,-9.203241229890558e-06
4081.65,-9.290954246407204e-06
4082.55,-9.459012732890255e-06
4083.45,-9.524352384595672e-06
4084.35,-9.554311361610504e-06
4085.25,-9.600997688840114e-06
4086.15,-9.627307133591412e-06
4087.05,-9.70979153595357e-06
4087.95,-9.82745377241036e-06
4088.85,-9.95521705623784e-06
4089.75,-1.0016814695757319e-05
4090.65,-9.951750701323192e-06
4091.55,-9.933516556538535e-06
4092.45,-9.879931555321863e-06
4093.36,-9.797048452678345e-06
4094.26,-9.629777286727467e-06
4095.16,-9.490702046032898e-06
4096.06,-9.258197878512484e-06
4096.96,-8.986623582893947e-06
4097.86,-8.669620353561856e-06
4098.76,-8.326949764119534e-06
4099.66,-7.952521313425512e-06
4100.56,-7.584818569003233e-06
4101.46,-7.2714913219180456e-06
4102.36,-7.115673801779359e-06
4103.26,-7.1267945360343495e-06
4104.16,-7.330299804015817e-06
4105.06,-7.699021909915638e-06
4105.96,-8.086506079635804e-06
4106.86,-8.499284515348567e-06
4107.76,-8.910860749858616e-06
4108.66,-9.216911406484411e-06
4109.56,-9.468596676059537e-06
4110.46,-9.652301337734474e-06
4111.36,-9.8814818755758e-06
4112.26,-1.0089780926539905e-05
4113.16,-1.0262345132023503e-05
4114.06,-1.0406422083878733e-05
4114.96,-1.0604670248003432e-05
4115.86,-1.07510395371359e-05
4116.76,-1.0884740699209113e-05
4117.66,-1.0905677002651472e-05
4118.56,-1.0948405074006663e-05
4119.46,-1.0934519749643083e-05
4120.36,-1.0973522715465035e-05
4121.26,-1.0981577834313135e-05
4122.16,-1.1076107570816563e-05
4123.06,-1.1132353383327877e-05
4123.96,-1.1236850275789071e-05
4124.86,-1.1327597795104344e-05
4125.76,-1.142794262597177e-05
4126.66,-1.1527906156163377e-05
4127.56,-1.1587621819797014e-05
4128.46,-1.1527834577288767e-05
4129.36,-1.1484423999691941e-05
4130.26,-1.1532892143001614e-05
4131.17,-1.149520787537999e-05
4132.06,-1.1502256072703524e-05
4132.97,-1.1447627424467943e-05
4133.87,-1.1537191223114911e-05
4134.77,-1.159275967582437e-05
4135.67,-1.1697753074341478e-05
4136.57,-1.1909304871818782e-05
4137.47,-1.2165740751369303e-05
4138.37,-1.2304610336701634e-05
4139.27,-1.2447695653215569e-05
4140.17,-1.255963200426575e-05
4141.07,-1.2475115199663622e-05
4141.97,-1.2478305975491043e-05
4142.87,-1.2332256948173094e-05
4143.77,-1.2267206112117341e-05
4144.67,-1.2192429690546868e-05
4145.57,-1.2276674828329726e-05
4146.47,-1.241054254158956e-05
4147.37,-1.2540476783035189e-05
4148.27,-1.2686648116103675e-05
4149.17,-1.278774657262788e-05
4150.07,-1.2808826556461984e-05
4150.97,-1.2829505228138526e-05
4151.87,-1.2894321345203279e-05
4152.77,-1.2897549799839858e-05
4153.67,-1.2866558134149702e-05
4154.57,-1.2814938190171411e-05
4155.47,-1.2899583174704472e-05
4156.37,-1.2965959370016179e-05
4157.27,-1.3010246308697697e-05
4158.17,-1.3089195837188674e-05
4159.07,-1.325583065846682e-05
4159.97,-1.3395441638642248e-05
4160.87,-1.3578088802840098e-05
4161.77,-1.3646097125288799e-05
4162.67,-1.3744949097376588e-05
4163.57,-1.384959401005437e-05
4164.47,-1.3896227388001646e-05
4165.37,-1.3877857217076708e-05
4166.27,-1.3933908036589957e-05
4167.17,-1.3944303088292945e-05
4168.07,-1.3891432135169612e-05
4168.98,-1.3933484180013667e-05
4169.88,-1.3811125673046699e-05
4170.78,-1.3753654050970154e-05
4171.68,-1.356296826786058e-05
4172.58,-1.3473606863898644e-05
4173.48,-1.3433013508451417e-05
4174.38,-1.3407729317047444e-05
4175.28,-1.3399288600090726e-05
4176.18,-1.347628543641082e-05
4177.08,-1.3544694501358647e-05
4177.98,-1.3770418878736705e-05
4178.88,-1.3871370675413933e-05
4179.78,-1.3993370663543551e-05
4180.68,-1.4135468513064181e-05
4181.58,-1.429693373368922e-05
4182.48,-1.440409462380474e-05
4183.38,-1.440160588839024e-05
4184.28,-1.451337441771312e-05
4185.18,-1.4555642230619855e-05
4186.08,-1.4583739409616869e-05
4186.98,-1.4583151639136278e-05
4187.88,-1.4624448942503342e-05
4188.78,-1.469505388599391e-05
4189.68,-1.4809064504040947e-05
4190.58,-1.486933696900943e-05
4191.48,-1.4964716536633947e-05
4192.38,-1.5119287958122437e-05
4193.28,-1.5321896264248532e-05
4194.18,-1.5359819331937996e-05
4195.08,-1.536671395614044e-05
4195.98,-1.5267120841440327e-05
4196.88,-1.5134562974458988e-05
4197.78,-1.5061336533787838e-05
4198.68,-1.502426833765662e-05
4199.58,-1.4946038963180847e-05
4200.48,-1.4937505095940202e-05
4201.38,-1.4949011200801065e-05
4202.28,-1.5011776605432449e-05
4203.18,-1.5103646103947295e-05
4204.08,-1.5254617286859938e-05
4204.98,-1.5394936812651588e-05
4205.88,-1.5560832050840055e-05
4206.79,-1.5740255809107046e-05
4207.69,-1.5896284600250076e-05
4208.59,-1.610900391349037e-05
4209.49,-1.6190504927988522e-05
4210.39,-1.6362670159443168e-05
4211.29,-1.641238929373281e-05
4212.19,-1.6387501785942595e-05
4213.09,-1.6458788621590415e-05
4213.99,-1.6456685758037784e-05
4214.89,-1.6360376206330142e-05
4215.79,-1.6328601615239045e-05
4216.69,-1.6318210475730034e-05
4217.59,-1.639638019044833e-05
4218.49,-1.6421018331003515e-05
4219.39,-1.6674303047378136e-05
4220.29,-1.685090971365787e-05
4221.19,-1.6951377581345643e-05
4222.09,-1.68704593484013e-05
4222.99,-1.6828213779990227e-05
4223.89,-1.6560463795842867e-05
4224.79,-1.6262834953548576e-05
4225.69,-1.5990488599546182e-05
4226.59,-1.5760772186223094e-05
4227.49,-1.5655574824741322e-05
4228.39,-1.577768192583858e-05
4229.29,-1.6066485251347678e-05
4230.19,-1.6569184842974955e-05
4231.09,-1.6895600354036463e-05
4231.99,-1.7177587467906778e-05
4232.89,-1.7420393710679878e-05
4233.79,-1.7341155998315423e-05
4234.69,-1.7450408383416775e-05
4235.59,-1.746688184629261e-05
4236.49,-1.741605313388825e-05
4237.39,-1.7360281960740465e-05
4238.29,-1.7442563341893082e-05
4239.19,-1.758878905087425e-05
4240.09,-1.775565770370171e-05
4240.99,-1.7951685533645666e-05
4241.89,-1.8127520114091062e-05
4242.79,-1.829159162777501e-05
4243.69,-1.8394641874661848e-05
4244.59,-1.8568279160609497e-05
4245.5,-1.857716658978934e-05
4246.4,-1.8432837892555393e-05
4247.3,-1.8391497786015323e-05
4248.2,-1.8329212950454322e-05
4249.1,-1.8239940688651217e-05
4250.0,-1.822508724225238e-05
4250.9,-1.826326565500602e-05
4251.8,-1.8443567293602623e-05
4252.7,-1.8626837324664954e-05
4253.6,-1.884334118685276e-05
4254.5,-1.8907589255718988e-05
4255.4,-1.897083502251872e-05
4256.3,-1.921837921848573e-05
4257.2,-1.9340673334171037e-05
4258.1,-1.9310623628827218e-05
4259.0,-1.9306260411384796e-05
4259.9,-1.9249519245702616e-05
4260.8,-1.9376049316321313e-05
4261.7,-1.9323536340377324e-05
4262.6,-1.9581438428610407e-05
4263.5,-1.9792008714763096e-05
4264.4,-2.011560451587858e-05
4265.3,-2.0280522663156155e-05
4266.2,-2.0452979826505966e-05
4267.1,-2.0501343727280656e-05
4268.0,-2.049760996957335e-05
4268.9,-2.0316816865116446e-05
4269.8,-2.0151769553928544e-05
4270.7,-1.982087620963485e-05
4271.6,-1.958893185847322e-05
4272.5,-1.9487672033411157e-05
4273.4,-1.947158882152908e-05
4274.3,-1.9456516713575933e-05
