wave,flux
3700.85,-7.568067942420527e-05
3701.75,-7.439716415545353e-05
3702.65,-7.202789962937583e-05
3703.55,-6.834531449832992e-05
3704.45,-6.401081484100192e-05
3705.35,-6.02911632746175e-05
3706.25,-5.701411641643973e-05
3707.15,-5.5718984714888885e-05
3708.05,-5.569524622340593e-05
3708.96,-5.7282502132486386e-05
3709.86,-6.0236986156522826e-05
3710.76,-6.398681767880523e-05
3711.66,-6.88475046557938e-05
3712.56,-7.37508233264279e-05
3713.46,-7.793052779454324e-05
3714.36,-8.14462368730532e-05
3715.26,-8.282528307516884e-05
3716.16,-8.236086633867863e-05
3717.06,-7.965728469726076e-05
3717.96,-7.474071406144431e-05
3718.86,-6.872706633097781e-05
3719.76,-6.262155019419334e-05
3720.66,-5.7143902193919925e-05
3721.56,-5.3905937411987965e-05
3722.46,-5.415523178692966e-05
3723.36,-5.71308138219718e-05
3724.26,-6.201454380824243e-05
3725.16,-6.711555533226507e-05
3726.06,-7.116000486569991e-05
3726.96,-7.354285683486374e-05
3727.86,-7.469164485941063e-05
3728.76,-7.518614825362258e-05
3729.66,-7.463583016963897e-05
3730.56,-7.321853362452948e-05
3731.46,-7.064536112167191e-05
3732.36,-6.64722731488376e-05
3733.26,-6.119071046832579e-05
3734.16,-5.5880985227926484e-05
3735.06,-5.137463341693927e-05
3735.96,-4.926557129459166e-05
3736.86,-4.962987953535358e-05
3737.76,-5.318108870391222e-05
3738.66,-5.8721097069073004e-05
3739.56,-6.504405048441978e-05
3740.46,-7.091808026719412e-05
3741.36,-7.496675068629913e-05
3742.26,-7.657216112181405e-05
3743.16,-7.460021529914524e-05
3744.06,-7.142958134083632e-05
3744.96,-6.710279194873319e-05
3745.86,-6.288674155370208e-05
3746.76,-5.9241748688987716e-05
3747.67,-5.625428474784244e-05
3748.57,-5.481589620409068e-05
3749.47,-5.5291336288610616e-05
3750.37,-5.805036337341985e-05
3751.27,-6.383255641618967e-05
3752.17,-7.076611175640854e-05
3753.07,-7.857876957329962e-05
3753.97,-8.625395410053887e-05
3754.87,-9.118726240925485e-05
3755.77,-9.337440750142672e-05
3756.67,-9.22600861834817e-05
3757.57,-8.885354566602793e-05
3758.47,-8.48142141624192e-05
3759.37,-8.138692760786241e-05
3760.27,-8.014324588971593e-05
3761.17,-8.09098833730635e-05
3762.07,-8.293359401632657e-05
3762.97,-8.47323828347938e-05
3763.87,-8.59425044333756e-05
3764.77,-8.697733798292666e-05
3765.67,-8.834870038598368e-05
3766.57,-8.864760009645952e-05
3767.47,-8.971691032511911e-05
3768.37,-9.128265398750467e-05
3769.27,-9.316043415788522e-05
3770.17,-9.58449347142644e-05
3771.07,-9.913786146510765e-05
3771.97,-0.00010272807098205752
3772.87,-0.00010626531281612337
3773.77,-0.00010979160820009046
3774.67,-0.00011277608448009308
3775.57,-0.00011488919799655911
3776.47,-0.00011656280279125696
3777.37,-0.00011784849506101605
3778.27,-0.00011995355807728653
3779.17,-0.00012274935346186797
3780.07,-0.0001257087076514347
3780.97,-0.00012812563065780542
3781.87,-0.00013038572506362823
3782.77,-0.00013247256779873835
3783.67,-0.00013245662986677187
3784.57,-0.0001308163382864564
3785.47,-0.00012728663405574853
3786.38,-0.00012244801328916078
3787.28,-0.00011782861707488172
3788.18,-0.0001129964707893026
3789.08,-0.0001095031570097793
3789.98,-0.0001078976486735604
3790.88,-0.00010829129834286401
3791.78,-0.00010848180551077385
3792.68,-0.00010889502949859883
3793.58,-0.0001081081820324478
3794.48,-0.00010613148305605718
3795.38,-0.00010380762288647419
3796.28,-0.00010118933023237634
3797.18,-9.907559135409161e-05
3798.08,-9.792237118527684e-05
3798.98,-9.862115327880197e-05
3799.88,-0.00010200323024112402
3800.78,-0.00010810268070404141
3801.68,-0.00011616857932375325
3802.58,-0.00012419796477375675
3803.48,-0.00013211805454125885
3804.38,-0.0001368013284440885
3805.28,-0.00013978387140117522
3806.18,-0.00014151233091439517
3807.08,-0.00014035025325338319
3807.98,-0.000140548831023148
3808.88,-0.00014168815979085874
3809.78,-0.0001429850224784552
3810.68,-0.00014398522809844157
3811.58,-0.0001438766464683551
3812.48,-0.00013954917113838508
3813.38,-0.00013517428154096112
3814.28,-0.00012804769363246494
3815.18,-0.00012250824597594693
3816.08,-0.00011819124964993486
3816.98,-0.00011596629464068862
3817.88,-0.00011501591321267702
3818.78,-0.00011375693119284278
3819.68,-0.00011157862602421349
3820.58,-0.00011032769445639953
3821.48,-0.00010906019429818642
3822.38,-0.000107144508601467
3823.28,-0.00010586446521896814
3824.18,-0.00010417256777536092
3825.09,-0.00010066563884916985
3825.99,-9.753184023188113e-05
3826.89,-9.477509817591194e-05
3827.79,-9.315906895620748e-05
3828.69,-9.277897811034705e-05
3829.59,-9.370280980290135e-05
3830.49,-9.413040704975588e-05
3831.39,-9.399266379755267e-05
3832.29,-9.271497654281054e-05
3833.19,-9.111881719485727e-05
3834.09,-8.985479595467366e-05
3834.99,-8.968785643632144e-05
3835.89,-9.050185679130009e-05
3836.79,-9.167496744827369e-05
3837.69,-9.267674103824248e-05
3838.59,-9.367374908561257e-05
3839.49,-9.597332776499929e-05
3840.39,-9.965171426338329e-05
3841.29,-0.00010699405445647575
3842.19,-0.00011652117205050552
3843.09,-0.00012735603711173506
3843.99,-0.00013878490023730143
3844.89,-0.00014801094807358488
3845.79,-0.00015447465548312962
3846.69,-0.00015820583099429887
3847.59,-0.00016099099238991283
3848.49,-0.0001619721704999914
3849.39,-0.00016146271458999608
3850.29,-0.00016090173495833787
3851.19,-0.0001608174532117188
3852.09,-0.00016164736150605004
3852.99,-0.00016215366982063792
3853.89,-0.0001617780022359615
3854.79,-0.0001597215047912259
3855.69,-0.00015747027563859078
3856.59,-0.00015167772695057747
3857.49,-0.0001470372310769738
3858.39,-0.00014134216482299342
3859.29,-0.00013830863023752142
3860.19,-0.0001371120019074492
3861.09,-0.00014103030523201506
3861.99,-0.00014880250365246103
3862.9,-0.0001575566513505038
3863.8,-0.00016666056016079452
3864.7,-0.00017358543152209155
3865.6,-0.0001779831986314036
3866.5,-0.0001790121179760573
3867.4,-0.0001788763639692895
3868.3,-0.0001778040637245166
3869.2,-0.000174125466638286
3870.1,-0.00017061325939000328
3871.0,-0.00016638827212112252
3871.9,-0.00016323949647987254
3872.8,-0.00016148890121753213
3873.7,-0.00016387775016344974
3874.6,-0.0001684475005463048
3875.5,-0.0001738177853385268
3876.4,-0.0001771647658246245
3877.3,-0.00017757877357637897
3878.2,-0.0001768662213175142
3879.1,-0.00017489828742457705
3880.0,-0.00017438172697541897
3880.9,-0.000174155760983482
3881.8,-0.0001755246502677181
3882.7,-0.00017729335271279874
3883.6,-0.00017877835853722906
3884.5,-0.00017823354107694025
3885.4,-0.00017729960032291303
3886.3,-0.00017444784062480576
3887.2,-0.00017117051171427648
3888.1,-0.00017106897033908048
3889.0,-0.00017211818164854318
3889.9,-0.00017892628720447983
3890.8,-0.000188634451674232
3891.7,-0.0001992993645527047
3892.6,-0.00021028664065360396
3893.5,-0.00021846118746854566
3894.4,-0.00022392345534608528
3895.3,-0.00022784668452166486
3896.2,-0.00023078583320375982
3897.1,-0.00023375835237859045
3898.0,-0.0002353922693992173
3898.9,-0.00023778091477028916
3899.8,-0.0002399521857220792
3900.7,-0.00024001980859200637
3901.6,-0.00024111253412194216
3902.51,-0.0002408106561338704
3903.41,-0.00023991227671032756
3904.31,-0.00023849602039960905
3905.21,-0.0002363174726682442
3906.11,-0.0002384322529655438
3907.01,-0.00024115735849439444
3907.91,-0.0002499022273134239
3908.81,-0.00026073761907981745
3909.71,-0.00027214867699930357
3910.61,-0.0002825750083227637
3911.51,-0.0002908727733142826
3912.41,-0.00029746260761620883
3913.31,-0.00030137002130587565
3914.21,-0.00030146961875980306
3915.11,-0.0003005501849877621
3916.01,-0.0002967140872658559
3916.91,-0.0002934457237324724
3917.81,-0.00028818564765949753
3918.71,-0.0002821943340001605
3919.61,-0.0002720915312623413
3920.51,-0.0002636194247333175
3921.41,-0.00025713903689624255
3922.31,-0.0002509381910858644
3923.21,-0.0002489224928490036
3924.11,-0.000245294713978541
3925.01,-0.00024186028477610866
3925.91,-0.00023539105395311175
3926.81,-0.00022378916459078396
3927.71,-0.0002081334115337741
3928.61,-0.00018836853318562172
3929.51,-0.00016711020868929728
3930.41,-0.00014662451336522838
3931.31,-0.0001274487450429279
3932.21,-0.00011136836438563655
3933.11,-9.943654986000296e-05
3934.01,-9.277780634161663e-05
3934.91,-9.3510866409338e-05
3935.81,-9.9741428349037e-05
3936.71,-0.00011267280251110971
3937.61,-0.00013158030726056946
3938.51,-0.00015342887209812854
3939.42,-0.00017673827573991312
3940.32,-0.00019780078362629627
3941.22,-0.00021707344236085154
3942.12,-0.00023177049909818735
3943.02,-0.0002442480173970822
3943.92,-0.0002568065367897644
3944.82,-0.00026827352016727343
3945.72,-0.00028375284872622034
3946.62,-0.00029896786919794433
3947.52,-0.0003150795507058088
3948.42,-0.00032955366031333657
3949.32,-0.00034183267002771834
3950.22,-0.00035546162873529907
3951.12,-0.0003646463457653767
3952.02,-0.0003718636690989361
3952.92,-0.00037707618140826114
3953.82,-0.00038194573113667303
3954.72,-0.00038566566776575083
3955.62,-0.0003873350808947655
3956.52,-0.0003862966570743546
3957.42,-0.0003816138808404328
3958.32,-0.00037699031185019064
3959.22,-0.0003684421805837865
3960.12,-0.000355951877405384
3961.02,-0.00033810990670725025
3961.92,-0.00031583449573151055
3962.82,-0.00029258368668719096
3963.72,-0.0002673943023601379
3964.62,-0.00024310906958873138
3965.52,-0.00021731680374456657
3966.42,-0.00019398978966357963
3967.32,-0.00017152129268795487
3968.22,-0.00015355972120158838
3969.12,-0.0001445431005817198
3970.02,-0.00014438704653228041
3970.92,-0.00015547218866375045
3971.82,-0.00017616887657106236
3972.72,-0.00020432992883358562
3973.62,-0.000237312250456311
3974.52,-0.0002719854130729581
3975.42,-0.0003085060827171859
3976.32,-0.00034367914093969985
3977.22,-0.00037630004494030255
3978.13,-0.0004097870445218559
3979.03,-0.00043902086818573894
3979.93,-0.00046404161801536534
3980.83,-0.00047981611018730247
3981.73,-0.0004973305246194455
3982.63,-0.0005046919742253778
3983.53,-0.0005119295847488195
3984.43,-0.0005190907578018878
3985.33,-0.0005289162126000509
3986.23,-0.0005390538943406596
3987.13,-0.0005481197820226592
3988.03,-0.0005604933463135167
3988.93,-0.0005711827775992118
3989.83,-0.0005825144066121321
3990.73,-0.0005920187746947843
3991.63,-0.0006023687421723058
3992.53,-0.0006087677860639958
3993.43,-0.0006137751275462628
3994.33,-0.0006170382381016745
3995.23,-0.0006131263558840038
3996.13,-0.000614298834180674
3997.03,-0.0006109366225376407
3997.93,-0.00061484484190344
3998.83,-0.0006220821589256163
3999.73,-0.0006351904274803596
4000.63,-0.0006484468071587753
4001.53,-0.0006632787880584385
4002.43,-0.0006726546113591852
4003.33,-0.0006804529922370275
4004.23,-0.0006725672845549344
4005.13,-0.0006666025830843851
4006.03,-0.0006581193747742935
4006.93,-0.0006594053588535721
4007.83,-0.0006674300123924555
4008.73,-0.0006811842612898382
4009.63,-0.0006992681188168361
4010.53,-0.0007156164211841712
4011.43,-0.0007289673427062914
4012.33,-0.0007432696193930657
4013.23,-0.0007584786165841736
4014.13,-0.0007676103849370159
4015.03,-0.0007719270679012154
4015.93,-0.000777095542625154
4016.84,-0.0007835086039374486
4017.74,-0.0007842078895773405
4018.64,-0.0007916705886766011
4019.54,-0.0007992029030344188
4020.44,-0.000803990469747454
4021.34,-0.0008063073094189539
4022.24,-0.0008166518090370068
4023.14,-0.0008202250437296314
4024.04,-0.0008271091462172741
4024.94,-0.000835204517490574
4025.84,-0.0008458292726826443
4026.74,-0.0008539580822912578
4027.64,-0.0008647871368094774
4028.54,-0.0008684303527959456
4029.44,-0.0008599837144062383
4030.34,-0.0008474452981763145
4031.24,-0.0008261240260032356
4032.14,-0.0008078385795368246
4033.04,-0.0007982593127390536
4033.94,-0.0007985053514303266
4034.84,-0.0008157705201485841
4035.74,-0.0008380785187341562
4036.64,-0.0008754979493875717
4037.54,-0.0009142090865409714
4038.44,-0.0009462258756970478
4039.34,-0.0009653796990002594
4040.24,-0.0009759565658831059
4041.14,-0.0009718220585358913
4042.04,-0.0009640555098435191
4042.94,-0.0009418993290070905
4043.84,-0.00091464794447979
4044.74,-0.0008835340194206483
4045.64,-0.000863494999827544
4046.54,-0.0008499090237880508
4047.44,-0.0008628565424287151
4048.34,-0.0008928841572140298
4049.24,-0.0009364441829796373
4050.14,-0.000980239517409348
4051.04,-0.001011592096163321
4051.94,-0.0010355449227943273
4052.84,-0.0010464330687023956
4053.74,-0.0010427230520802867
4054.65,-0.0010393372903289646
4055.55,-0.0010288797910301811
4056.45,-0.0010276729395249915
4057.35,-0.0010192369481038014
4058.25,-0.001026474053114498
4059.15,-0.0010326310782012447
4060.05,-0.0010379494399567867
4060.95,-0.0010467629882772913
4061.85,-0.0010463554468949973
4062.75,-0.0010315802235571748
4063.65,-0.0010151953874127711
4064.55,-0.0010063921908329409
4065.45,-0.0010131478860446127
4066.35,-0.0010256045721418257
4067.25,-0.0010552572832179907
4068.15,-0.0010923251507095363
4069.05,-0.001113983229420264
4069.95,-0.0011321859949729091
4070.85,-0.0011435977660515149
4071.75,-0.0011496181511361152
4072.65,-0.0011487705465075603
4073.55,-0.0011475685069157761
4074.45,-0.0011484704642490868
4075.35,-0.0011471513228911551
4076.25,-0.0011448643732944622
4077.15,-0.0011402799598932147
4078.05,-0.00113974083034871
4078.95,-0.0011531418317765362
4079.85,-0.001182426638484297
4080.75,-0.0012262746771018736
4081.65,-0.001264643101027897
4082.55,-0.0013012981927078195
4083.45,-0.0013272009496592446
4084.35,-0.0013440354919304147
4085.25,-0.0013585834408620652
4086.15,-0.0013823648677912515
4087.05,-0.0014172103551105617
4087.95,-0.0014566636313216648
4088.85,-0.001489439775563473
4089.75,-0.0015196185110886548
4090.65,-0.0015465793730931282
4091.55,-0.0015538806467957488
4092.45,-0.001548711762131557
4093.36,-0.0015428356039420214
4094.26,-0.0015287205491577086
4095.16,-0.0015143326058926286
4096.06,-0.0014864432941439879
4096.96,-0.0014670409639511697
4097.86,-0.0014350604815591835
4098.76,-0.0013987222717372998
4099.66,-0.0013615500089494633
4100.56,-0.0013414900664621779
4101.46,-0.0013077529818030882
4102.36,-0.0012982106012534803
4103.26,-0.0013132739763352837
4104.16,-0.001350111384388974
4105.06,-0.001405423919106516
4105.96,-0.0014675702315939665
4106.86,-0.0015244346320117147
4107.76,-0.001578336573649525
4108.66,-0.001614819899210764
4109.56,-0.0016400195769041698
4110.46,-0.001650920117213371
4111.36,-0.0016766092123998997
4112.26,-0.001690591284072671
4113.16,-0.0017189517257312234
4114.06,-0.0017500908646506563
4114.96,-0.0017820204872910773
4115.86,-0.0018109059216868922
4116.76,-0.0018255984764870383
4117.66,-0.0018299626986832307
4118.56,-0.0018296685363444166
4119.46,-0.001837070262319079
4120.36,-0.0018295197092096764
4121.26,-0.00183656998311469
4122.16,-0.0018511667969042984
4123.06,-0.0018731873165811618
4123.96,-0.0019069112365688483
4124.86,-0.0019306881564000998
4125.76,-0.0019384724390149519
4126.66,-0.0019480844257402032
4127.56,-0.0019535082971908306
4128.46,-0.0019438173122805877
4129.36,-0.0019341931418590413
4130.26,-0.0019223162652449498
4131.17,-0.0019045521386272758
4132.06,-0.0018839032991887254
4132.97,-0.0018790088308759684
4133.87,-0.001887195876951756
4134.77,-0.0019208268310332043
4135.67,-0.001974161122636521
4136.57,-0.0020306621235881704
4137.47,-0.0021015831033622196
4138.37,-0.0021532596000941326
4139.27,-0.0021945957464410398
4140.17,-0.0022039690754519295
4141.07,-0.0021945488627276148
4141.97,-0.00216009092629178
4142.87,-0.0021106993372824565
4143.77,-0.0020698127275254304
4144.67,-0.00207785987599311
4145.57,-0.0020875129177077476
4146.47,-0.00212633543866435
4147.37,-0.0021837270629189525
4148.27,-0.002237930131895995
4149.17,-0.0022821380367243453
4150.07,-0.0022988948351607445
4150.97,-0.0023261309604698044
4151.87,-0.0023361881633172914
4152.77,-0.002333348600738999
4153.67,-0.00233827893073423
4154.57,-0.0023431659634100097
4155.47,-0.002367386655747509
4156.37,-0.002383743268229535
4157.27,-0.0024251764501790037
4158.17,-0.002472044228007723
4159.07,-0.002522489201881442
4159.97,-0.0025825735620702023
4160.87,-0.002639850766933444
4161.77,-0.0026891799805039886
4162.67,-0.002742619076004573
4163.57,-0.0027780274059176283
4164.47,-0.002777543360557343
4165.37,-0.002786941653831113
4166.27,-0.0027898077848149704
4167.17,-0.0027743023723981164
4168.07,-0.0027727478816002606
4168.98,-0.002759825105432132
4169.88,-0.0027519572668621936
4170.78,-0.002739211255916543
4171.68,-0.002712410576616003
4172.58,-0.002690381496999547
4173.48,-0.0026599940810070385
4174.38,-0.00266157112319996
4175.28,-0.0026664515771955203
4176.18,-0.0027122060778260485
4177.08,-0.0027559991515627106
4177.98,-0.002817642424276398
4178.88,-0.002868346811915063
4179.78,-0.0029327752087746385
4180.68,-0.002978453507100712
4181.58,-0.003018432723818113
4182.48,-0.003051108222965205
4183.38,-0.003083164202776818
4184.28,-0.003114581102150372
4185.18,-0.00312514937824678
4186.08,-0.003135715316693938
4186.98,-0.003147291372774577
4187.88,-0.0031591352917865515
4188.78,-0.0031704802738179087
4189.68,-0.0032018192868340017
4190.58,-0.003263847883559466
4191.48,-0.0033293487767918324
4192.38,-0.0033893538619453184
4193.28,-0.0034429131660563494
4194.18,-0.00346768704850852
4195.08,-0.003497578377581371
4195.98,-0.003458774510577617
4196.88,-0.003414141107641025
4197.78,-0.0033763945065951044
4198.68,-0.0033406434674989314
4199.58,-0.003308081477063238
4200.48,-0.0033134505456341987
4201.38,-0.0033276683622969184
4202.28,-0.0033733769613141975
4203.18,-0.0034507738899391504
4204.08,-0.0035334073266834335
4204.98,-0.00361721648733895
4205.88,-0.003743155820224092
4206.79,-0.003867400164050786
4207.69,-0.003953051781509532
4208.59,-0.004043305473542105
4209.49,-0.004123633774432981
4210.39,-0.004166463863316964
4211.29,-0.004186978439343083
4212.19,-0.004247487763796252
4213.09,-0.004220247885660203
4213.99,-0.004231244103575898
4214.89,-0.004218274387530302
4215.79,-0.004224966063240408
4216.69,-0.004233845355596141
4217.59,-0.004286266367326994
4218.49,-0.00435794425054248
4219.39,-0.004444240553436255
4220.29,-0.004535874217273825
4221.19,-0.004596495801060243
4222.09,-0.00455978423604348
4222.99,-0.004479760928654797
4223.89,-0.004317547101773969
4224.79,-0.004129985662744087
4225.69,-0.003934942387162364
4226.59,-0.003797341420980626
4227.49,-0.0037544775020656776
4228.39,-0.0038185022218888134
4229.29,-0.00402821324986335
4230.19,-0.00424207005022904
4231.09,-0.004495258252959127
4231.99,-0.004707140420811019
4232.89,-0.004827660018741934
4233.79,-0.004923338618920619
4234.69,-0.004929491284173642
4235.59,-0.004943008731102478
4236.49,-0.0049455890564804586
4237.39,-0.004970203567662847
4238.29,-0.00498510986233382
4239.19,-0.005086218450919797
4240.09,-0.005196274122099734
4240.99,-0.005309194772508513
4241.89,-0.005436477332423291
4242.79,-0.005564375297276805
4243.69,-0.005699350717796893
4244.59,-0.005786750624122349
4245.5,-0.005828052230078737
4246.4,-0.005822626907432643
4247.3,-0.005821632710994301
4248.2,-0.00574044820864875
4249.1,-0.005661066639665504
4250.0,-0.005614296893361252
4250.9,-0.005595476167410921
4251.8,-0.005638061669411987
4252.7,-0.005686216307460827
4253.6,-0.005757201236521938
4254.5,-0.005842508953866006
4255.4,-0.005957520335987356
4256.3,-0.0060580870166364875
4257.2,-0.006104862214550613
4258.1,-0.006170466977884305
4259.0,-0.006195691538892643
4259.9,-0.006203731767278743
4260.8,-0.0062094454747060645
4261.7,-0.006319495864154888
4262.6,-0.006415509094978651
4263.5,-0.006631485334653021
4264.4,-0.0069018169185813515
4265.3,-0.00709589286294783
4266.2,-0.007207248612430043
4267.1,-0.007279853035920331
4268.0,-0.007253273442608122
4268.9,-0.00710036203420361
4269.8,-0.006955871326251886
4270.7,-0.006712756572004128
4271.6,-0.006535907066516427
4272.5,-0.0063656601300583855
4273.4,-0.006327074945323186
4274.3,-0.0064168231284851595
4275.2,-0.0065669264930752905
4276.1,-0.0068614332119133654
4277.0,-0.007138054453927686
4277.9,-0.007436973690040004
4278.8,-0.007680802703070956
4279.7,-0.007829518805791273
4280.6,-0.007957318596988555
4281.5,-0.008002352506724387
4282.4,-0.008013236184366702
4283.31,-0.008044507765456633
