wave,flux
3700.85,-0.001139975420991907
3701.75,-0.0011408197429675828
3702.65,-0.001125848108899713
3703.55,-0.0011080092616587282
3704.45,-0.0010958474139385688
3705.35,-0.0010967845468629169
3706.25,-0.0011058433018496013
3707.15,-0.0011359476394650248
3708.05,-0.0011696077042053687
3708.96,-0.001190865873696418
3709.86,-0.0012074698556953781
3710.76,-0.0012203527909944501
3711.66,-0.0012420562652421096
3712.56,-0.0012646460504983528
3713.46,-0.0013147289865930707
3714.36,-0.0013690777025520573
3715.26,-0.0014424608616080596
3716.16,-0.0014992107982420098
3717.06,-0.0015394496759116919
3717.96,-0.0015392208468833234
3718.86,-0.001513026794627221
3719.76,-0.0014618655969762138
3720.66,-0.0014055347733285288
3721.56,-0.001359141251845172
3722.46,-0.0013559464180193574
3723.36,-0.0014006361271158164
3724.26,-0.0014836889440942643
3725.16,-0.0015805001267990054
3726.06,-0.0016839524090393834
3726.96,-0.00177875755830249
3727.86,-0.0018417574613584845
3728.76,-0.001887778551878685
3729.66,-0.001907858559746075
3730.56,-0.0018849830389069452
3731.46,-0.0018324084999306123
3732.36,-0.0017568006701843798
3733.26,-0.0016727221976377386
3734.16,-0.0016016901609693353
3735.06,-0.0015681066544667459
3735.96,-0.0015951026053260462
3736.86,-0.0016888372280136046
3737.76,-0.0018356624458904904
3738.66,-0.0020006892102326615
3739.56,-0.0021595185439764624
3740.46,-0.0023228879242411433
3741.36,-0.0024428750024713
3742.26,-0.0025249112925385124
3743.16,-0.002540836554788397
3744.06,-0.0025355046532541665
3744.96,-0.0024833343941644986
3745.86,-0.0024228067847527767
3746.76,-0.0023308663024394216
3747.67,-0.0022124122168251663
3748.57,-0.002111680546616805
3749.47,-0.0020261092722836664
3750.37,-0.0020058578393924043
3751.27,-0.0020804886603277874
3752.17,-0.002223461371061261
3753.07,-0.002434308127208336
3753.97,-0.0026715854132570724
3754.87,-0.002907765365826061
3755.77,-0.0030976747436903206
3756.67,-0.0032478728154020434
3757.57,-0.00337706058509567
3758.47,-0.003450409905532194
3759.37,-0.0035214608879343043
3760.27,-0.0036101822004037673
3761.17,-0.0037007214305458573
3762.07,-0.0037864923729879693
3762.97,-0.0038492191409703258
3763.87,-0.003886031189499311
3764.77,-0.003880931929261925
3765.67,-0.0038308248879589443
3766.57,-0.003734548233811408
3767.47,-0.00360802723345077
3768.37,-0.0034520543139090133
3769.27,-0.003304245509343846
3770.17,-0.003207803277194785
3771.07,-0.0031749745222999157
3771.97,-0.003261011866454104
3772.87,-0.0034286146930821524
3773.77,-0.0036586158179303546
3774.67,-0.003980180203713844
3775.57,-0.004276968986822079
3776.47,-0.004612278331493764
3777.37,-0.004918443909968698
3778.27,-0.0052617602536878276
3779.17,-0.005556725794802267
3780.07,-0.005844022761892713
3780.97,-0.0061085517087506045
3781.87,-0.00635415672230663
3782.77,-0.006548170943160176
3783.67,-0.006689475043899551
3784.57,-0.006772196498370243
3785.47,-0.0068606548495045395
3786.38,-0.006854893259173047
3787.28,-0.006856424641862528
3788.18,-0.006799630927815524
3789.08,-0.006745921374638525
3789.98,-0.006691661256162251
3790.88,-0.006630124029234759
3791.78,-0.006578707479158971
3792.68,-0.00636710092203314
3793.58,-0.0061393403580533665
3794.48,-0.005858291010013266
3795.38,-0.00555117546033698
3796.28,-0.0052707266323151316
3797.18,-0.005031339334467624
3798.08,-0.004931299837048901
3798.98,-0.0050118940733979815
3799.88,-0.005266140462908766
3800.78,-0.005679032394987566
3801.68,-0.006259085442605011
3802.58,-0.0069106292284525864
3803.48,-0.007535577555792416
3804.38,-0.008182050558331582
3805.28,-0.008690198274472974
3806.18,-0.009158139949157434
3807.08,-0.009674235623518868
3807.98,-0.010106930727919095
3808.88,-0.010598577709795914
3809.78,-0.011058272385530038
3810.68,-0.011491724346924612
3811.58,-0.011858648055649856
3812.48,-0.012185236698388592
3813.38,-0.01238039999962218
3814.28,-0.012580498790570776
3815.18,-0.012811778594947117
3816.08,-0.0130371246247976
3816.98,-0.013295473139070748
3817.88,-0.013520810224339225
3818.78,-0.013717239473388345
3819.68,-0.013874312734887618
3820.58,-0.013971361359418927
3821.48,-0.014068125893950192
3822.38,-0.01412843199324228
3823.28,-0.014136140760968419
3824.18,-0.014037143135143409
3825.09,-0.0139102981235207
3825.99,-0.0137389615649024
3826.89,-0.013608971810764134
3827.79,-0.013406731990752508
3828.69,-0.013172461780883044
3829.59,-0.012909124170006874
3830.49,-0.012469700804095178
3831.39,-0.01200613909390004
3832.29,-0.011505342601376749
3833.19,-0.010843504232154327
3834.09,-0.010327932195923333
3834.99,-0.009931910148497477
3835.89,-0.009833633604138504
3836.79,-0.010037878377407924
3837.69,-0.010633848694790195
3838.59,-0.0114732167580438
3839.49,-0.012535096231627973
3840.39,-0.013784859826272528
3841.29,-0.015233922075983671
3842.19,-0.01661977543647531
3843.09,-0.01804386777370251
3843.99,-0.01937530037064997
3844.89,-0.020749114203175028
3845.79,-0.02197795878605941
3846.69,-0.023114943183729825
3847.59,-0.02412472603990278
3848.49,-0.02515837366776087
3849.39,-0.02608965623908566
3850.29,-0.027021207868617347
3851.19,-0.028179539181198587
3852.09,-0.02920093798482025
3852.99,-0.030219858521113623
3853.89,-0.031070557237837887
3854.79,-0.0320546042381763
3855.69,-0.03289262092097652
3856.59,-0.033700511483746365
3857.49,-0.03418987637279143
3858.39,-0.034946243195374815
3859.29,-0.035896992605375884
3860.19,-0.03683828094443566
3861.09,-0.03785631528916678
3861.99,-0.039097957531817315
3862.9,-0.04046944638590472
3863.8,-0.041867454319228954
3864.7,-0.04286555635163004
3865.6,-0.04374164531865602
3866.5,-0.04459934230962394
3867.4,-0.04556135543548669
3868.3,-0.04603117733943756
3869.2,-0.04669611595219603
3870.1,-0.047115091715761025
3871.0,-0.047560117722679776
3871.9,-0.047997741663862566
3872.8,-0.04875235074647755
3873.7,-0.049446493612908586
3874.6,-0.05023454701274564
3875.5,-0.05086185739497714
3876.4,-0.05184582733054445
3877.3,-0.051942820348053434
3878.2,-0.05189860650145374
3879.1,-0.05161529247855336
3880.0,-0.0512830090622667
3880.9,-0.05112495585692188
3881.8,-0.05079396268734301
3882.7,-0.05043775450063532
3883.6,-0.049609878028878944
3884.5,-0.04878383039205678
3885.4,-0.04742984093954331
3886.3,-0.045961504911537554
3887.2,-0.04415197180024742
3888.1,-0.042771138066279454
3889.0,-0.041959560499104515
3889.9,-0.04254599484962603
3890.8,-0.0445239073925736
3891.7,-0.04797133494137197
3892.6,-0.05255657091276663
3893.5,-0.057602318078877494
3894.4,-0.06299560046690952
3895.3,-0.06826798656542558
3896.2,-0.07393296021539326
3897.1,-0.07887301051549091
3898.0,-0.08434010551004352
3898.9,-0.0897469177178324
3899.8,-0.09501864889192932
3900.7,-0.1006301876379239
3901.6,-0.10537478945084429
3902.51,-0.11154498143246067
3903.41,-0.11647993816691514
3904.31,-0.12175484600362095
3905.21,-0.12733750204291486
3906.11,-0.13436945261019353
3907.01,-0.14008528376970347
3907.91,-0.14668558368580117
3908.81,-0.15471197888642274
3909.71,-0.16239428138292875
3910.61,-0.1696622957847918
3911.51,-0.1772021003086574
3912.41,-0.18515627501755313
3913.31,-0.1919409673188559
3914.21,-0.19903168344134273
3915.11,-0.20580261872175312
3916.01,-0.21380406573499322
3916.91,-0.22068753844389538
3917.81,-0.22798634573756474
3918.71,-0.23781715137836573
3919.61,-0.24579052843407617
3920.51,-0.2559058556252261
3921.41,-0.2650129299832671
3922.31,-0.2742078327036852
3923.21,-0.28563612007163947
3924.11,-0.2977792874863706
3925.01,-0.31044404961524114
3925.91,-0.32073822354060905
3926.81,-0.32914660830984827
3927.71,-0.3391968394987515
3928.61,-0.3448431515670265
3929.51,-0.350640207388009
3930.41,-0.3523887756641059
3931.31,-0.3487092036662643
3932.21,-0.34895005309652977
3933.11,-0.3480182170985676
3934.01,-0.3538811315924659
3934.91,-0.37236040864004566
3935.81,-0.4027725025373962
3936.71,-0.4493986066647727
3937.61,-0.5021653502087211
3938.51,-0.5602653790649468
3939.42,-0.6217652057541376
3940.32,-0.6816227317653301
3941.22,-0.7403955383022242
3942.12,-0.7940609729949047
3943.02,-0.8608383903235808
3943.92,-0.9237496753690668
3944.82,-0.9997496383618493
3945.72,-1.0845880562932617
3946.62,-1.1806917656527358
3947.52,-1.290027685292726
3948.42,-1.4235299119215423
3949.32,-1.5630786073288645
3950.22,-1.7437603554867853
3951.12,-1.9572498581870732
3952.02,-2.209465604268987
3952.92,-2.563425309180968
3953.82,-3.0005255144250356
3954.72,-3.6035258628435036
3955.62,-4.498948259887854
3956.52,-5.966655597111357
3957.42,-8.805623425638911
3958.32,-17.092595349921332
3959.22,-325.1040238822944
3960.12,18.66028961497008
3961.02,8.883349584274244
3961.92,5.674534220881828
3962.82,4.073992058904357
3963.72,3.0886863459856566
3964.62,2.400474832651925
3965.52,1.9062998340614692
3966.42,1.516460765299874
3967.32,1.2208960319517188
3968.22,0.9935067750508366
3969.12,0.8403802358937342
3970.02,0.7480416638283762
3970.92,0.7109374774173398
3971.82,0.7184911307267274
3972.72,0.7511296843739933
3973.62,0.8035022158739648
3974.52,0.8540230521010689
3975.42,0.9031973497445129
3976.32,0.9432724417511499
3977.22,0.9832467570033236
3978.13,1.0088721061572314
3979.03,1.0285428620171813
3979.93,1.0394695057485743
3980.83,1.0461138665631635
3981.73,1.0505015143444323
3982.63,1.0486538750387187
3983.53,1.047418859509031
3984.43,1.0445889965179733
3985.33,1.0438504187193272
3986.23,1.0469304728708937
3987.13,1.0469021976143194
3988.03,1.0473278078324892
3988.93,1.0455318244593148
3989.83,1.046203451986615
3990.73,1.0425557821067946
3991.63,1.0371362998764786
3992.53,1.0363735753461552
3993.43,1.0298792088205038
3994.33,1.024146716016934
3995.23,1.014234072786312
3996.13,1.005494391527154
3997.03,0.9974116498367517
3997.93,0.9912187132711032
3998.83,0.9867744173580026
3999.73,0.988352731334278
4000.63,0.9879109767716738
4001.53,0.9902981339604141
4002.43,0.993820591047978
4003.33,0.9874849782250231
4004.23,0.9852158921944577
4005.13,0.9784437380350474
4006.03,0.9710610019303471
4006.93,0.9714247064525521
4007.83,0.9729837145218508
4008.73,0.9757157951165928
4009.63,0.9791804422395841
4010.53,0.9842097130653548
4011.43,0.9816482940596719
4012.33,0.9846162886150204
4013.23,0.9854053775360678
4014.13,0.9874096133808838
4015.03,0.9839080262730454
4015.93,0.9874777361054785
4016.84,0.9902690570589786
4017.74,0.990058490335596
4018.64,0.9920650324244764
4019.54,0.9941873836090536
4020.44,0.9971519860110325
4021.34,0.993308797070623
4022.24,0.9907032399373858
4023.14,0.9920617571342398
4024.04,0.9931503527176365
4024.94,0.9915089897244977
4025.84,0.9979556505998556
4026.74,0.9970670139781024
4027.64,1.0038569464884222
4028.54,1.002577279849377
4029.44,0.9982277343819619
4030.34,0.999087002732666
4031.24,0.9952692756859344
4032.14,0.9863158948607996
4033.04,0.9883503226630432
4033.94,0.9853473220523565
4034.84,0.9980293809590312
4035.74,1.0058276971986797
4036.64,1.0185653397171537
4037.54,1.0266424812970807
4038.44,1.039745526255698
4039.34,1.0411967356088239
4040.24,1.0446519963116134
4041.14,1.0448657669530126
4042.04,1.0393720558178774
4042.94,1.033811535957351
4043.84,1.0319345020364366
4044.74,1.0243190068521593
4045.64,1.0200614155552945
4046.54,1.018304484324957
4047.44,1.0222786930538073
4048.34,1.0303604346447182
4049.24,1.0402756553797192
4050.14,1.0492032775618285
4051.04,1.060083669216566
4051.94,1.056173362059672
4052.84,1.0646002738374771
4053.74,1.0626941662976521
4054.65,1.0613603443544597
4055.55,1.0588700857834763
4056.45,1.0610924191057196
4057.35,1.0643341698876798
4058.25,1.068637371747098
4059.15,1.0720120551278751
4060.05,1.075794926299366
4060.95,1.0723191920305797
4061.85,1.074503161506949
4062.75,1.0667411318043978
4063.65,1.0653865764877457
4064.55,1.0584455952652665
4065.45,1.0609950773991215
4066.35,1.0616683703434666
4067.25,1.0652384736233849
4068.15,1.0699943729339698
4069.05,1.0753105315991587
4069.95,1.0819416973648288
4070.85,1.0796323099224152
4071.75,1.07888700126011
4072.65,1.0749719817612116
4073.55,1.0729758568380638
4074.45,1.0686317177163243
4075.35,1.0582883834052246
4076.25,1.0498437926472324
4077.15,1.0393766926434262
4078.05,1.0342811763552042
4078.95,1.0328952739456452
4079.85,1.0285716645364877
4080.75,1.0346887805397524
4081.65,1.0377625458801443
4082.55,1.040698317160872
4083.45,1.0349609170023844
4084.35,1.0278820036636194
4085.25,1.0266233064176171
4086.15,1.018766380666186
4087.05,1.0126630922885678
4087.95,1.0068877071307782
4088.85,1.0055819847159495
4089.75,0.9927705767924394
4090.65,0.9796623183874035
4091.55,0.963180687741465
4092.45,0.9456641150159893
4093.36,0.9193846975254427
4094.26,0.8984337685391083
4095.16,0.8694468389793566
4096.06,0.8353375749773901
4096.96,0.802910914406009
4097.86,0.7652041258891239
4098.76,0.7217201285944762
4099.66,0.680428930086183
4100.56,0.6422511502762211
4101.46,0.6132701137665505
4102.36,0.5952347412385898
4103.26,0.5959633367715784
4104.16,0.6147199944501467
4105.06,0.6499742876749748
4105.96,0.6823798673750978
4106.86,0.7266437623882166
4107.76,0.7625514470436555
4108.66,0.7946852553963537
4109.56,0.828331434697283
4110.46,0.8541127124628117
4111.36,0.8715779889015703
4112.26,0.9004926097212103
4113.16,0.9223735601143132
4114.06,0.9404769852044641
4114.96,0.957981095195086
4115.86,0.9764064266767417
4116.76,0.9875697419615893
4117.66,1.000934109524307
4118.56,1.0041756868908027
4119.46,1.0115932142437083
4120.36,1.0165005443059063
4121.26,1.0250034206342291
4122.16,1.0286257045772536
4123.06,1.0316705650081428
4123.96,1.0388392821003176
4124.86,1.044609276577806
4125.76,1.0505355862711503
4126.66,1.056052844362839
4127.56,1.0592428830062057
4128.46,1.05763836570065
4129.36,1.0536540955949814
4130.26,1.0528951853399928
4131.17,1.0518502001128054
4132.06,1.0509299147567288
4132.97,1.049193422093505
4133.87,1.0513604248695174
4134.77,1.060270767223289
4135.67,1.0667183805440577
4136.57,1.0755010986804339
4137.47,1.0848411721573592
4138.37,1.0920137001902466
4139.27,1.0931462406677896
4140.17,1.0970534374686773
4141.07,1.0917173311625257
4141.97,1.0854658594948747
4142.87,1.0781864335865758
4143.77,1.0706345931892107
4144.67,1.0670255591436342
4145.57,1.073915533254778
4146.47,1.0748437604064285
4147.37,1.072876910913724
4148.27,1.0792749828171715
4149.17,1.0818266602731808
4150.07,1.0811813522950666
4150.97,1.0700484468857938
4151.87,1.073143796824993
4152.77,1.0666376499448889
4153.67,1.062847331516949
4154.57,1.062896780056311
4155.47,1.0602583353147783
4156.37,1.0527653379935467
4157.27,1.0592126376426243
4158.17,1.059633304784457
4159.07,1.0664547778861748
4159.97,1.0660247031799543
4160.87,1.0639814275208324
4161.77,1.070677590900047
4162.67,1.0664196217451072
4163.57,1.065528766300583
4164.47,1.0653459537802703
4165.37,1.066097645524413
4166.27,1.062069337326844
4167.17,1.0586380386892489
4168.07,1.05668881585161
4168.98,1.050809787058691
4169.88,1.045583986003939
4170.78,1.0376507839797673
4171.68,1.0259471076635052
4172.58,1.0142913709290342
4173.48,1.0090187165537328
4174.38,1.0030971571941418
4175.28,0.9985722268975612
4176.18,0.9987306202700992
4177.08,0.9998533160317187
4177.98,1.0069944107239872
4178.88,1.004641907444312
4179.78,1.0098499582125833
4180.68,1.0140165565635708
4181.58,1.012259367646537
4182.48,1.0170997150893093
4183.38,1.0162571034587369
4184.28,1.0183626144039877
4185.18,1.0191784786569051
4186.08,1.0169160195788134
4186.98,1.0121773157256981
4187.88,1.0152437629927262
4188.78,1.009783352687032
4189.68,1.0122310429567207
4190.58,1.0115331585930123
4191.48,1.0102338868690326
4192.38,1.0111575868912783
4193.28,1.0154183257325928
4194.18,1.0179227213513742
4195.08,1.0126867472133183
4195.98,1.008079438156695
4196.88,0.9992069675163138
4197.78,0.9924102600090834
4198.68,0.9851299673318155
4199.58,0.9819971491360207
4200.48,0.9797902844356962
4201.38,0.9816853551160389
4202.28,0.9794282196322518
4203.18,0.9815664915767882
4204.08,0.9854759793322877
4204.98,0.9867476427809445
4205.88,0.9923030333570717
4206.79,0.9994013358537411
4207.69,1.0007280545710056
4208.59,1.0079996971539984
4209.49,1.0103842869896238
4210.39,1.0085122938909574
4211.29,1.0075623444343673
4212.19,1.0108154611756124
4213.09,1.0013529177485365
4213.99,1.0008309565708982
4214.89,0.9938672836052062
4215.79,0.9888563023404491
4216.69,0.9903096286421318
4217.59,0.9918304798906356
4218.49,0.9921623689385456
4219.39,0.9954470167674085
4220.29,0.9954684958705803
4221.19,1.0008893845116211
4222.09,1.000639756636633
4222.99,0.9956460244571611
4223.89,0.9824132871968405
4224.79,0.9720509909829637
4225.69,0.9613752784600164
4226.59,0.9539101416181145
4227.49,0.947541538326433
4228.39,0.9488096279814628
4229.29,0.9566137270104215
4230.19,0.9697344435367354
4231.09,0.980112013990976
4231.99,0.989407459923477
4232.89,0.9904694526630374
4233.79,0.9885787263103979
4234.69,0.9886164461352948
4235.59,0.9895021007530705
4236.49,0.9864513600117799
4237.39,0.9846223201533673
4238.29,0.9872316596294832
4239.19,0.9867229927660902
4240.09,0.9974564953033284
4240.99,1.0029013124341837
4241.89,1.0031231004195011
4242.79,1.0105147332434472
4243.69,1.0133871063460735
4244.59,1.0093516906859412
4245.5,1.0077632854180176
4246.4,1.0078797473752792
4247.3,1.0004897734901719
4248.2,0.9993543249153537
4249.1,0.9996779585135035
4250.0,0.9947145150184947
4250.9,0.9947333135682479
4251.8,0.9983457428627676
4252.7,1.0037072932524789
4253.6,1.0060063155685155
4254.5,1.009553442154663
4255.4,1.0119815463679693
4256.3,1.016580799592118
4257.2,1.0147269693033272
4258.1,1.014573149784749
4259.0,1.0128594384137493
4259.9,1.014544458319677
4260.8,1.0138229393795692
4261.7,1.0174382648165556
4262.6,1.0190667265126383
4263.5,1.026752048458882
4264.4,1.0343211639045191
4265.3,1.039867257386264
4266.2,1.0442346184989424
4267.1,1.0419263265963576
4268.0,1.0430549885873446
4268.9,1.0350520082713257
4269.8,1.022966606030629
4270.7,1.0142987249086979
4271.6,1.0065144698480781
4272.5,0.9992680149285108
4273.4,0.9983414318805257
4274.3,1.000185938985102
4275.2,1.009232034808728
4276.1,1.0137991886927353
4277.0,1.0215607031092109
4277.9,1.0294677240503534
4278.8,1.0338704645439858
4279.7,1.037130509787113
4280.6,1.0334181495219288
4281.5,1.040128925073498
4282.4,1.0394167356455977
4283.31,1.038481976049874
4284.21,1.0352313309820436
4285.11,1.0348671790700248
4286.01,1.0275706831595166
4286.91,1.0244857261131803
4287.81,1.0193217646552846
4288.71,1.012881655062419
4289.61,1.0094649647535399
4290.51,1.0058660222180484
4291.41,1.004776584668792
4292.31,1.0126436479155505
4293.21,1.0114265614045546
4294.11,1.0165371962336722
4295.01,1.0203443817395172
4295.91,1.0160734727501382
4296.81,1.0099244608643152
4297.71,1.0030469682337384
4298.61,0.9938710125956238
4299.51,0.9842338504948759
4300.41,0.9717039028541565
4301.31,0.9645928305892539
4302.21,0.9595231273314622
4303.11,0.9604969035382809
4304.01,0.9630040131991071
4304.91,0.9633314691095963
4305.81,0.9679915784994172
4306.71,0.9635720559006496
4307.61,0.9661647146563541
4308.51,0.9578365097434567
4309.41,0.9648114661523778
4310.31,0.9652608930767265
4311.21,0.9644733582532848
4312.11,0.9717703422316543
4313.01,0.9794101767681452
4313.91,0.9920891940594037
4314.81,1.0014308276484578
4315.71,1.0170607857009974
4316.61,1.0294885669342415
4317.51,1.0405150307895346
4318.41,1.0518453816353976
4319.31,1.0539217883461527
4320.21,1.0459809178388613
4321.12,1.0375798188429008
4322.02,1.0272364269284184
4322.92,1.0077914956248624
4323.82,0.9903791485380022
4324.72,0.9734145064618382
4325.62,0.9614682503822585
4326.52,0.9486948473241277
4327.42,0.9402640584970792
4328.32,0.9409866245151206
4329.22,0.9432426945091198
4330.12,0.9375144346761294
4331.02,0.93469325138933
4331.92,0.9231742300464137
4332.82,0.9094348158492959
4333.72,0.8909997428468142
4334.62,0.8688533409370472
4335.52,0.8375547764850033
4336.42,0.8075309329026652
4337.32,0.7650205082635513
4338.22,0.7239509103483227
4339.12,0.6805292205387892
4340.02,0.6522171316977644
4340.92,0.6331940055478883
4341.82,0.6304758713080855
4342.72,0.6463643887098177
4343.62,0.6734062426256926
4344.52,0.708861131953844
4345.42,0.7482709585551258
4346.32,0.7874266355227084
