wave,flux
3700.85,-5.823687340338515e-07
3701.75,-5.751988907127694e-07
3702.65,-5.575488427051288e-07
3703.55,-5.248413070747325e-07
3704.45,-4.940235166435783e-07
3705.35,-4.639610553967101e-07
3706.25,-4.4272904522836376e-07
3707.15,-4.307111937448123e-07
3708.05,-4.3126886276093e-07
3708.96,-4.4170119968714203e-07
3709.86,-4.575081953601178e-07
3710.76,-4.798234782715365e-07
3711.66,-5.085434570144276e-07
3712.56,-5.387327405809678e-07
3713.46,-5.652270422809663e-07
3714.36,-5.868973599102257e-07
3715.26,-5.964344668583245e-07
3716.16,-5.935942667856984e-07
3717.06,-5.790417207564681e-07
3717.96,-5.495890020069385e-07
3718.86,-5.095719405965695e-07
3719.76,-4.7045735244434424e-07
3720.66,-4.331911942399852e-07
3721.56,-4.088058078238633e-07
3722.46,-4.072746935271849e-07
3723.36,-4.2279908238411563e-07
3724.26,-4.491321341642393e-07
3725.16,-4.793324451905805e-07
3726.06,-5.031297284186159e-07
3726.96,-5.202620463120778e-07
3727.86,-5.247042865892719e-07
3728.76,-5.225583954318043e-07
3729.66,-5.181055830921262e-07
3730.56,-5.072832168836918e-07
3731.46,-4.855837469103833e-07
3732.36,-4.5913556659164677e-07
3733.26,-4.237048341046297e-07
3734.16,-3.891057546923205e-07
3735.06,-3.635512057708143e-07
3735.96,-3.516375001835952e-07
3736.86,-3.5695671709417147e-07
3737.76,-3.7980204607661075e-07
3738.66,-4.131573222608233e-07
3739.56,-4.539499846508951e-07
3740.46,-4.86994648209848e-07
3741.36,-5.094755101497726e-07
3742.26,-5.142148985661994e-07
3743.16,-5.035303707116548e-07
3744.06,-4.830486060833463e-07
3744.96,-4.5888373092275417e-07
3745.86,-4.295598432259044e-07
3746.76,-4.0642845014578253e-07
3747.67,-3.8400970221431817e-07
3748.57,-3.703676003815347e-07
3749.47,-3.667816980649176e-07
3750.37,-3.7497071165065266e-07
3751.27,-4.0387252909864566e-07
3752.17,-4.4243032412519934e-07
3753.07,-4.893501565323742e-07
3753.97,-5.288374516555163e-07
3754.87,-5.613130083793233e-07
3755.77,-5.747564806505121e-07
3756.67,-5.709459059902297e-07
3757.57,-5.536852864485037e-07
3758.47,-5.258446378032168e-07
3759.37,-5.09524371099585e-07
3760.27,-4.986486096368193e-07
3761.17,-5.018456010220386e-07
3762.07,-5.103412270458723e-07
3762.97,-5.174557370061388e-07
3763.87,-5.252175998552978e-07
3764.77,-5.28384721280663e-07
3765.67,-5.276764635708585e-07
3766.57,-5.238784327465807e-07
3767.47,-5.210292966686159e-07
3768.37,-5.194186310284456e-07
3769.27,-5.183155361178433e-07
3770.17,-5.248462660876262e-07
3771.07,-5.34490200078788e-07
3771.97,-5.510004402168323e-07
3772.87,-5.708393356611715e-07
3773.77,-5.908093395736162e-07
3774.67,-6.081187269839704e-07
3775.57,-6.237882355083879e-07
3776.47,-6.321551515982648e-07
3777.37,-6.415662619528831e-07
3778.27,-6.507682767545342e-07
3779.17,-6.705594582844403e-07
3780.07,-6.831583175609242e-07
3780.97,-6.952947966254923e-07
3781.87,-7.072262094183398e-07
3782.77,-7.148435040178074e-07
3783.67,-7.135049283888372e-07
3784.57,-7.021494864115645e-07
3785.47,-6.812369625907652e-07
3786.38,-6.555207726850129e-07
3787.28,-6.251372945759275e-07
3788.18,-6.013015948284678e-07
3789.08,-5.808410602117872e-07
3789.98,-5.689452875695081e-07
3790.88,-5.655393982670643e-07
3791.78,-5.630083611802893e-07
3792.68,-5.588716668067459e-07
3793.58,-5.4743551121479e-07
3794.48,-5.322803835322993e-07
3795.38,-5.134946151186507e-07
3796.28,-4.954290449538865e-07
3797.18,-4.801529997471254e-07
3798.08,-4.709256023368316e-07
3798.98,-4.6993277304533715e-07
3799.88,-4.873966291395245e-07
3800.78,-5.131575217916916e-07
3801.68,-5.504020373619958e-07
3802.58,-5.863931727209092e-07
3803.48,-6.24825862317727e-07
3804.38,-6.471321144866333e-07
3805.28,-6.611416702943825e-07
3806.18,-6.654084917967379e-07
3807.08,-6.644796403730775e-07
3807.98,-6.653398437485638e-07
3808.88,-6.690230736762291e-07
3809.78,-6.765005419992292e-07
3810.68,-6.812305453022152e-07
3811.58,-6.803096174773954e-07
3812.48,-6.643935285034096e-07
3813.38,-6.399114394578774e-07
3814.28,-6.119137571522442e-07
3815.18,-5.857028874077273e-07
3816.08,-5.669346461320904e-07
3816.98,-5.574698285177224e-07
3817.88,-5.517729039053146e-07
3818.78,-5.496193396465544e-07
3819.68,-5.425621275955682e-07
3820.58,-5.3327509824039e-07
3821.48,-5.254166271722746e-07
3822.38,-5.189569325393641e-07
3823.28,-5.121485180276928e-07
3824.18,-5.020915055176347e-07
3825.09,-4.875674123162921e-07
3825.99,-4.7074930794846957e-07
3826.89,-4.571792629554631e-07
3827.79,-4.454790229614831e-07
3828.69,-4.4381412238593693e-07
3829.59,-4.412308803250674e-07
3830.49,-4.392533022484285e-07
3831.39,-4.3099070785744e-07
3832.29,-4.1846510405455463e-07
3833.19,-4.044200849262456e-07
3834.09,-3.9194958236019306e-07
3834.99,-3.8480609881331807e-07
3835.89,-3.8286763053761554e-07
3836.79,-3.848852205492998e-07
3837.69,-3.911770688550491e-07
3838.59,-3.9932669049184067e-07
3839.49,-4.124196659831672e-07
3840.39,-4.3115453859470643e-07
3841.29,-4.582211894881731e-07
3842.19,-4.927497758595814e-07
3843.09,-5.29538909201202e-07
3843.99,-5.643998949954289e-07
3844.89,-5.918555834478577e-07
3845.79,-6.122991980190591e-07
3846.69,-6.282284693201585e-07
3847.59,-6.384233661510929e-07
3848.49,-6.40001610567009e-07
3849.39,-6.416514393709216e-07
3850.29,-6.402935449697749e-07
3851.19,-6.421882307158906e-07
3852.09,-6.465123911127641e-07
3852.99,-6.428641048508603e-07
3853.89,-6.432370697883999e-07
3854.79,-6.341561753457668e-07
3855.69,-6.218230399058929e-07
3856.59,-6.065422396672586e-07
3857.49,-5.909894181079589e-07
3858.39,-5.746057255063565e-07
3859.29,-5.630452248681558e-07
3860.19,-5.60584582558893e-07
3861.09,-5.706764526831562e-07
3861.99,-5.931448915506614e-07
3862.9,-6.183581404926378e-07
3863.8,-6.436808769294343e-07
3864.7,-6.622385691519692e-07
3865.6,-6.700773383099068e-07
3866.5,-6.680120608752213e-07
3867.4,-6.644641421165114e-07
3868.3,-6.570336756300171e-07
3869.2,-6.451458533541108e-07
3870.1,-6.291062315969735e-07
3871.0,-6.148035505592101e-07
3871.9,-6.026669107526562e-07
3872.8,-5.952151904956427e-07
3873.7,-6.00750816883374e-07
3874.6,-6.121112264118383e-07
3875.5,-6.250889512481187e-07
3876.4,-6.345021003465872e-07
3877.3,-6.340477391848196e-07
3878.2,-6.274355793986156e-07
3879.1,-6.190656330241478e-07
3880.0,-6.112504854661657e-07
3880.9,-6.057045113527046e-07
3881.8,-6.054698410595942e-07
3882.7,-6.041976240673574e-07
3883.6,-5.991656139222037e-07
3884.5,-5.904709876940943e-07
3885.4,-5.795376281404461e-07
3886.3,-5.623409207484068e-07
3887.2,-5.435323670461623e-07
3888.1,-5.307998251331679e-07
3889.0,-5.277936963520317e-07
3889.9,-5.403743108515479e-07
3890.8,-5.657008334998296e-07
3891.7,-5.993707283470985e-07
3892.6,-6.323433781910743e-07
3893.5,-6.596653437040845e-07
3894.4,-6.791867654022883e-07
3895.3,-6.941811693159006e-07
3896.2,-7.040925046826671e-07
3897.1,-7.122440480556307e-07
3898.0,-7.188124962869576e-07
3898.9,-7.2564686106903e-07
3899.8,-7.32311374283419e-07
3900.7,-7.349464240660151e-07
3901.6,-7.350714386602423e-07
3902.51,-7.348024528605211e-07
3903.41,-7.276981721581776e-07
3904.31,-7.190457141361586e-07
3905.21,-7.131200041776382e-07
3906.11,-7.12857139421762e-07
3907.01,-7.243184328469063e-07
3907.91,-7.415214559050442e-07
3908.81,-7.67712261166396e-07
3909.71,-7.981023417380129e-07
3910.61,-8.187653418084228e-07
3911.51,-8.391343851695386e-07
3912.41,-8.464978918227118e-07
3913.31,-8.510348531442388e-07
3914.21,-8.503383180955435e-07
3915.11,-8.409211439561637e-07
3916.01,-8.307465852726717e-07
3916.91,-8.175178425159203e-07
3917.81,-8.011524413375142e-07
3918.71,-7.794911491109308e-07
3919.61,-7.569730778883069e-07
3920.51,-7.382393943783408e-07
3921.41,-7.209952826446129e-07
3922.31,-7.075894960077205e-07
3923.21,-6.976973896891221e-07
3924.11,-6.930810414815362e-07
3925.01,-6.791260714684526e-07
3925.91,-6.56927339329691e-07
3926.81,-6.23732870975377e-07
3927.71,-5.816454278690882e-07
3928.61,-5.2678257168108e-07
3929.51,-4.6896915722793176e-07
3930.41,-4.111991544680186e-07
3931.31,-3.5600431102052195e-07
3932.21,-3.079933666750825e-07
3933.11,-2.722510853034779e-07
3934.01,-2.5246478154969956e-07
3934.91,-2.499188578049052e-07
3935.81,-2.667060901294163e-07
3936.71,-3.0285723870903464e-07
3937.61,-3.510921455058499e-07
3938.51,-4.073161131432867e-07
3939.42,-4.652994492636594e-07
3940.32,-5.176233253440194e-07
3941.22,-5.619237379801841e-07
3942.12,-5.965833470821032e-07
3943.02,-6.21803463580144e-07
3943.92,-6.432269376410551e-07
3944.82,-6.677361177294767e-07
3945.72,-6.935479810677701e-07
3946.62,-7.229552470771584e-07
3947.52,-7.516144004046005e-07
3948.42,-7.763125638247123e-07
3949.32,-7.981864597437582e-07
3950.22,-8.242742734359631e-07
3951.12,-8.34119853258344e-07
3952.02,-8.447503705691858e-07
3952.92,-8.512143732444014e-07
3953.82,-8.582662955030757e-07
3954.72,-8.55674440113339e-07
3955.62,-8.561192440333944e-07
3956.52,-8.475839390265142e-07
3957.42,-8.409997423785647e-07
3958.32,-8.284176722296076e-07
3959.22,-8.157730966622713e-07
3960.12,-7.87514421163556e-07
3961.02,-7.500647065255911e-07
3961.92,-7.03708528415842e-07
3962.82,-6.510203276271175e-07
3963.72,-5.964090714701041e-07
3964.62,-5.411131906203158e-07
3965.52,-4.849363882900038e-07
3966.42,-4.29044429924993e-07
3967.32,-3.7839167581403363e-07
3968.22,-3.367103772208618e-07
3969.12,-3.1298648114639667e-07
3970.02,-3.0963448284381894e-07
3970.92,-3.281037362969698e-07
3971.82,-3.690305749238041e-07
3972.72,-4.218059700397526e-07
3973.62,-4.839013373617531e-07
3974.52,-5.504307120010092e-07
3975.42,-6.144109841114613e-07
3976.32,-6.766216371735945e-07
3977.22,-7.357583076336494e-07
3978.13,-7.906775898128002e-07
3979.03,-8.362631951550787e-07
3979.93,-8.794061256574692e-07
3980.83,-9.084016191048897e-07
3981.73,-9.26058177516092e-07
3982.63,-9.420840550274217e-07
3983.53,-9.471615684755093e-07
3984.43,-9.536362419876626e-07
3985.33,-9.608369995953333e-07
3986.23,-9.786613606319974e-07
3987.13,-9.901537910470733e-07
3988.03,-1.0021845625700407e-06
3988.93,-1.0180230326887182e-06
3989.83,-1.0293429623071863e-06
3990.73,-1.0407631540019372e-06
3991.63,-1.0564400889342823e-06
3992.53,-1.0569851897570346e-06
3993.43,-1.0645372823156719e-06
3994.33,-1.0639673944900577e-06
3995.23,-1.0602267890697215e-06
3996.13,-1.0497733519980465e-06
3997.03,-1.04701575520285e-06
3997.93,-1.041959441870514e-06
3998.83,-1.0516694892807838e-06
3999.73,-1.0641777033059892e-06
4000.63,-1.088043615249736e-06
4001.53,-1.1052913668943794e-06
4002.43,-1.1150132537827074e-06
4003.33,-1.1184016802373673e-06
4004.23,-1.0992026659983033e-06
4005.13,-1.0768463889833188e-06
4006.03,-1.0611813338214272e-06
4006.93,-1.053038385303773e-06
4007.83,-1.0552022771749682e-06
4008.73,-1.0789293706735578e-06
4009.63,-1.0937423991733385e-06
4010.53,-1.1221131519258659e-06
4011.43,-1.1346268711824673e-06
4012.33,-1.148919017140666e-06
4013.23,-1.1615614965814895e-06
4014.13,-1.1674770354181214e-06
4015.03,-1.1680388745518674e-06
4015.93,-1.1754454314884896e-06
4016.84,-1.1756161937218273e-06
4017.74,-1.1809890995458475e-06
4018.64,-1.1848505472668337e-06
4019.54,-1.1923798169242358e-06
4020.44,-1.2012812664182958e-06
4021.34,-1.195690395052708e-06
4022.24,-1.1970190668472734e-06
4023.14,-1.191205558978699e-06
4024.04,-1.1948454904796392e-06
4024.94,-1.1962573729219012e-06
4025.84,-1.196221716944052e-06
4026.74,-1.206547488183519e-06
4027.64,-1.2103366956370002e-06
4028.54,-1.2126372090021852e-06
4029.44,-1.1872580564853445e-06
4030.34,-1.1600829023910462e-06
4031.24,-1.126275968096086e-06
4032.14,-1.0920294640714127e-06
4033.04,-1.0673557209913917e-06
4033.94,-1.0650610688200293e-06
4034.84,-1.0815302275833766e-06
4035.74,-1.1070254425741241e-06
4036.64,-1.1504926761049236e-06
4037.54,-1.1924899951151743e-06
4038.44,-1.223656252217973e-06
4039.34,-1.2498825639645307e-06
4040.24,-1.2497573899884826e-06
4041.14,-1.2497994194985183e-06
4042.04,-1.2336253682842611e-06
4042.94,-1.198491287560324e-06
4043.84,-1.156116553889277e-06
4044.74,-1.1197431424840055e-06
4045.64,-1.0825815700397573e-06
4046.54,-1.0674383747670375e-06
4047.44,-1.077806880131128e-06
4048.34,-1.1023970881154079e-06
4049.24,-1.1468933472172427e-06
4050.14,-1.1958055245726455e-06
4051.04,-1.2145798168675358e-06
4051.94,-1.2296011745079247e-06
4052.84,-1.2305503738678151e-06
4053.74,-1.2115461287423524e-06
4054.65,-1.2010105897433218e-06
4055.55,-1.175404549542655e-06
4056.45,-1.1631755761973698e-06
4057.35,-1.1487398587208747e-06
4058.25,-1.1452430537851579e-06
4059.15,-1.1435826863464143e-06
4060.05,-1.1467255423105052e-06
4060.95,-1.1490572695794688e-06
4061.85,-1.1380618225260036e-06
4062.75,-1.126054738565743e-06
4063.65,-1.1075614924285593e-06
4064.55,-1.0966223781493352e-06
4065.45,-1.095719363760388e-06
4066.35,-1.1095041309900596e-06
4067.25,-1.1332179766510647e-06
4068.15,-1.1524307107184626e-06
4069.05,-1.1763153753304145e-06
4069.95,-1.1899222897612212e-06
4070.85,-1.1857986910766257e-06
4071.75,-1.185142677645713e-06
4072.65,-1.1825708222294061e-06
4073.55,-1.1714166975553159e-06
4074.45,-1.1710040923215923e-06
4075.35,-1.1604267599523944e-06
4076.25,-1.1449822412344353e-06
4077.15,-1.1314741077366015e-06
4078.05,-1.1223137789324508e-06
4078.95,-1.1332323471674249e-06
4079.85,-1.1502627265922763e-06
4080.75,-1.1846525150256777e-06
4081.65,-1.2228831449392511e-06
4082.55,-1.239825301203299e-06
4083.45,-1.2572387671080396e-06
4084.35,-1.2649087059196458e-06
4085.25,-1.2707851949359793e-06
4086.15,-1.2802014954992932e-06
4087.05,-1.3032364273346623e-06
4087.95,-1.3230433051998821e-06
4088.85,-1.3452762419509158e-06
4089.75,-1.353910093579653e-06
4090.65,-1.3619831594142119e-06
4091.55,-1.3509463700069166e-06
4092.45,-1.3480597684571638e-06
4093.36,-1.328820755978728e-06
4094.26,-1.3081057801437513e-06
4095.16,-1.2808026576172144e-06
4096.06,-1.247293829443703e-06
4096.96,-1.2151481698822006e-06
4097.86,-1.1767311554089025e-06
4098.76,-1.1373456464094387e-06
4099.66,-1.0949749772919766e-06
4100.56,-1.054538426913755e-06
4101.46,-1.018821744768369e-06
4102.36,-1.006016325440054e-06
4103.26,-1.008864968237103e-06
4104.16,-1.0337083014736347e-06
4105.06,-1.0786738976207079e-06
4105.96,-1.1239951070390176e-06
4106.86,-1.1722885625504145e-06
4107.76,-1.2146246654497673e-06
4108.66,-1.2374759519747222e-06
4109.56,-1.2474801211756127e-06
4110.46,-1.2597661243904237e-06
4111.36,-1.2651869236305267e-06
4112.26,-1.279643465868095e-06
4113.16,-1.293037158548983e-06
4114.06,-1.309227748225299e-06
4114.96,-1.3325901599180528e-06
4115.86,-1.3430197245897472e-06
4116.76,-1.3471788489184695e-06
4117.66,-1.345414425751291e-06
4118.56,-1.334878268078722e-06
4119.46,-1.3275204217266563e-06
4120.36,-1.3197357252585718e-06
4121.26,-1.3159650808697022e-06
4122.16,-1.3155783220346863e-06
4123.06,-1.3134004287176273e-06
4123.96,-1.3211835670756775e-06
4124.86,-1.331417177636338e-06
4125.76,-1.3335707930795462e-06
4126.66,-1.33116768228487e-06
4127.56,-1.3253472965601671e-06
4128.46,-1.3163305257879567e-06
4129.36,-1.3030919255234015e-06
4130.26,-1.284139750126657e-06
4131.17,-1.269421618248102e-06
4132.06,-1.2561295025189773e-06
4132.97,-1.2429304931493994e-06
4133.87,-1.2400888258530293e-06
4134.77,-1.257218756302337e-06
4135.67,-1.2834027747678173e-06
4136.57,-1.3147568119619582e-06
4137.47,-1.3461703259965715e-06
4138.37,-1.372326494867791e-06
4139.27,-1.3864407741897166e-06
4140.17,-1.3913755197401244e-06
4141.07,-1.3744749749262276e-06
4141.97,-1.348738685413449e-06
4142.87,-1.3195305931855264e-06
4143.77,-1.2898898696995178e-06
4144.67,-1.2752636777272485e-06
4145.57,-1.2741445332830978e-06
4146.47,-1.2885475275469952e-06
4147.37,-1.3007640960702723e-06
4148.27,-1.3222421826596611e-06
4149.17,-1.3347489296377877e-06
4150.07,-1.3309379148136875e-06
4150.97,-1.327118552028808e-06
4151.87,-1.322391754828436e-06
4152.77,-1.3147655583363757e-06
4153.67,-1.306507294577321e-06
4154.57,-1.3001303648399696e-06
4155.47,-1.3016731098524173e-06
4156.37,-1.3022193561560333e-06
4157.27,-1.3057165785905275e-06
4158.17,-1.3324683699015815e-06
4159.07,-1.3486844779801425e-06
4159.97,-1.3687973976845688e-06
4160.87,-1.3969274483854552e-06
4161.77,-1.4220023179061577e-06
4162.67,-1.432332278540904e-06
4163.57,-1.4408123894449286e-06
4164.47,-1.4474852135660634e-06
4165.37,-1.4423110888190223e-06
4166.27,-1.422420113619864e-06
4167.17,-1.4146599442555881e-06
4168.07,-1.3953755099362672e-06
4168.98,-1.388888233885216e-06
4169.88,-1.3725784701665456e-06
4170.78,-1.3547872449796256e-06
4171.68,-1.3333833632674588e-06
4172.58,-1.3103401641091107e-06
4173.48,-1.2890916588180315e-06
4174.38,-1.2737639316932657e-06
4175.28,-1.26835351595549e-06
4176.18,-1.2768724563079598e-06
4177.08,-1.2875463619197877e-06
4177.98,-1.3080225011083393e-06
4178.88,-1.3138739545154223e-06
4179.78,-1.3275867423793178e-06
4180.68,-1.3396656609654168e-06
4181.58,-1.3449269129188965e-06
4182.48,-1.3606143885901408e-06
4183.38,-1.3701632468266268e-06
4184.28,-1.3788476609514633e-06
4185.18,-1.3787191416487712e-06
4186.08,-1.3843336668622136e-06
4186.98,-1.3790971336603655e-06
4187.88,-1.3866394181547938e-06
4188.78,-1.3819837304294139e-06
4189.68,-1.3912172826637976e-06
4190.58,-1.4062895219262835e-06
4191.48,-1.4185751920678963e-06
4192.38,-1.4373100504037537e-06
4193.28,-1.4431658375436987e-06
4194.18,-1.446406917053067e-06
4195.08,-1.4379528918916978e-06
4195.98,-1.4110203423853066e-06
4196.88,-1.390243434470036e-06
4197.78,-1.3543090424903472e-06
4198.68,-1.3339814792730575e-06
4199.58,-1.3186948441334612e-06
4200.48,-1.3141490352888486e-06
4201.38,-1.3172806847664571e-06
4202.28,-1.3240150626178486e-06
4203.18,-1.3430154089209212e-06
4204.08,-1.3642046964956766e-06
4204.98,-1.3936029130424056e-06
4205.88,-1.4220543881713897e-06
4206.79,-1.4506766998099083e-06
4207.69,-1.4759207286604785e-06
4208.59,-1.4985969551905523e-06
4209.49,-1.5088776344598695e-06
4210.39,-1.5197822294088582e-06
4211.29,-1.5226841590452966e-06
4212.19,-1.5184185051532552e-06
4213.09,-1.50873369322808e-06
4213.99,-1.4944741128522898e-06
4214.89,-1.4784630971926428e-06
4215.79,-1.4699240670042873e-06
4216.69,-1.4644632766996375e-06
4217.59,-1.4781952517450528e-06
4218.49,-1.5008528111887498e-06
4219.39,-1.5313422859493213e-06
4220.29,-1.5512917288250517e-06
4221.19,-1.5581197376428115e-06
4222.09,-1.5465799187054242e-06
4222.99,-1.5068057919454853e-06
4223.89,-1.4454667566638929e-06
4224.79,-1.373508690776889e-06
4225.69,-1.3066874869808536e-06
4226.59,-1.251944923763219e-06
4227.49,-1.234687432764003e-06
4228.39,-1.2525581694468561e-06
4229.29,-1.2939797399212175e-06
4230.19,-1.3576308792694077e-06
4231.09,-1.4267170098662278e-06
4231.99,-1.470184355262694e-06
4232.89,-1.4966362253368108e-06
4233.79,-1.5025575105548496e-06
4234.69,-1.495651989045794e-06
4235.59,-1.4852601420893444e-06
4236.49,-1.4691414634733006e-06
4237.39,-1.4577142794231216e-06
4238.29,-1.4732347154274505e-06
4239.19,-1.4838428337639802e-06
4240.09,-1.4991050060617152e-06
4240.99,-1.5214847025435215e-06
4241.89,-1.5504812263169969e-06
4242.79,-1.5817272487319794e-06
4243.69,-1.6090607760548577e-06
4244.59,-1.6167718101292044e-06
4245.5,-1.6280764957603435e-06
4246.4,-1.6196177213582165e-06
4247.3,-1.5943987155480966e-06
4248.2,-1.5630870438168204e-06
4249.1,-1.5373916828681126e-06
4250.0,-1.5094860985322828e-06
4250.9,-1.4944335356839023e-06
4251.8,-1.4858374851890471e-06
4252.7,-1.4875712276223844e-06
4253.6,-1.4949619791303598e-06
4254.5,-1.5113063442795986e-06
4255.4,-1.5194213051430737e-06
4256.3,-1.5254839682386413e-06
4257.2,-1.5362265197655566e-06
4258.1,-1.5401379732639989e-06
4259.0,-1.5285856541334519e-06
4259.9,-1.5140824046964048e-06
4260.8,-1.5096701543767214e-06
4261.7,-1.5124462978619357e-06
4262.6,-1.5414332740401252e-06
4263.5,-1.5816961625729442e-06
4264.4,-1.6226794784574012e-06
4265.3,-1.6600491235780983e-06
4266.2,-1.6880069769725777e-06
4267.1,-1.680402733949956e-06
4268.0,-1.6550636362307445e-06
4268.9,-1.6152691009570042e-06
4269.8,-1.558393772354488e-06
4270.7,-1.5006502621767934e-06
4271.6,-1.4461329632659584e-06
4272.5,-1.4078558553295078e-06
4273.4,-1.3858134780590392e-06
4274.3,-1.3904892268645705e-06
4275.2,-1.4155225110297466e-06
