wave,flux
3700.85,-7.475295168894998e-05
3701.75,-7.424427675495064e-05
3702.65,-7.230163657438603e-05
3703.55,-6.988812029289586e-05
3704.45,-6.67554107432062e-05
3705.35,-6.397885090583744e-05
3706.25,-6.271146823060264e-05
3707.15,-6.240036038791347e-05
3708.05,-6.301304699953462e-05
3708.96,-6.439474500181867e-05
3709.86,-6.576170762300323e-05
3710.76,-6.765388997759417e-05
3711.66,-7.017945878308378e-05
3712.56,-7.292783193609093e-05
3713.46,-7.60864108895954e-05
3714.36,-7.956450089719406e-05
3715.26,-8.198048528056024e-05
3716.16,-8.336716942171665e-05
3717.06,-8.267415961875233e-05
3717.96,-8.093791958680079e-05
3718.86,-7.761210767418015e-05
3719.76,-7.321497924435498e-05
3720.66,-6.861697931210096e-05
3721.56,-6.557145200335549e-05
3722.46,-6.482011265830524e-05
3723.36,-6.65891445854664e-05
3724.26,-7.015398554738063e-05
3725.16,-7.441648371183763e-05
3726.06,-7.898330822437984e-05
3726.96,-8.16497438829668e-05
3727.86,-8.313282623195762e-05
3728.76,-8.392594965511833e-05
3729.66,-8.36391194119529e-05
3730.56,-8.252896229094218e-05
3731.46,-8.002283125991289e-05
3732.36,-7.624207378658167e-05
3733.26,-7.140298826981348e-05
3734.16,-6.665138657428382e-05
3735.06,-6.302385962327603e-05
3735.96,-6.230956470730054e-05
3736.86,-6.381120836337571e-05
3737.76,-6.776388395017871e-05
3738.66,-7.336346875878886e-05
3739.56,-8.003611225023217e-05
3740.46,-8.544430918841981e-05
3741.36,-8.892028964215887e-05
3742.26,-9.107961974968086e-05
3743.16,-9.041946054262274e-05
3744.06,-8.829844403583523e-05
3744.96,-8.5349473271551e-05
3745.86,-8.181258796916528e-05
3746.76,-7.812874517595041e-05
3747.67,-7.426138476411107e-05
3748.57,-7.093268872785016e-05
3749.47,-6.881115310698861e-05
3750.37,-6.945284503835129e-05
3751.27,-7.262333891534831e-05
3752.17,-7.81956577000304e-05
3753.07,-8.559721772631422e-05
3753.97,-9.305581472193087e-05
3754.87,-9.919657862823825e-05
3755.77,-0.00010296802700396121
3756.67,-0.00010401410962569348
3757.57,-0.00010292098919663133
3758.47,-0.00010069215038187311
3759.37,-9.929360859310239e-05
3760.27,-9.852680272929306e-05
3761.17,-9.950973988973718e-05
3762.07,-0.00010095240300783062
3762.97,-0.00010367863104079199
3763.87,-0.00010503277211179497
3764.77,-0.00010596454214201735
3765.67,-0.00010628141308448964
3766.57,-0.00010497474835986128
3767.47,-0.00010341016220784484
3768.37,-0.00010096286262265919
3769.27,-9.883829676295495e-05
3770.17,-9.77386785051046e-05
3771.07,-9.835120579709728e-05
3771.97,-0.00010024292653982915
3772.87,-0.00010393667927911179
3773.77,-0.00010881994389185188
3774.67,-0.00011364984393186262
3775.57,-0.0001176986610110189
3776.47,-0.00012173748117473981
3777.37,-0.00012549822530422594
3778.27,-0.00012984106885101978
3779.17,-0.00013380511284627624
3780.07,-0.00013772202048559733
3780.97,-0.00014084904656931068
3781.87,-0.00014394271986890663
3782.77,-0.00014577153874205989
3783.67,-0.00014670407205603163
3784.57,-0.00014630759174562178
3785.47,-0.0001436235291018618
3786.38,-0.00014115778677959833
3787.28,-0.00013682407287592203
3788.18,-0.00013379299940746616
3789.08,-0.00013152071221575495
3789.98,-0.00013017571393037164
3790.88,-0.00012871007967168774
3791.78,-0.00012777048747740388
3792.68,-0.0001264919983946536
3793.58,-0.00012333183195532501
3794.48,-0.00011996639501970825
3795.38,-0.00011509786518710462
3796.28,-0.0001104268223261697
3797.18,-0.00010630427063210791
3798.08,-0.00010407628361228331
3798.98,-0.00010446265948535934
3799.88,-0.00010743539267758664
3800.78,-0.000114297604499611
3801.68,-0.00012437535992173478
3802.58,-0.00013329527958868783
3803.48,-0.00014215120479323432
3804.38,-0.00014899451031755886
3805.28,-0.00015378791933632835
3806.18,-0.0001565298455774832
3807.08,-0.0001588606945819094
3807.98,-0.00016076912740887984
3808.88,-0.00016356278994519188
3809.78,-0.00016658571104379062
3810.68,-0.0001691212991493226
3811.58,-0.0001695641946000673
3812.48,-0.00016843936720733845
3813.38,-0.0001650323577649831
3814.28,-0.00016130937235571998
3815.18,-0.00015800995101264708
3816.08,-0.00015738629940049078
3816.98,-0.00015602858514025648
3817.88,-0.00015773629080204502
3818.78,-0.00015845913478595373
3819.68,-0.00015783308296041284
3820.58,-0.00015773839117594207
3821.48,-0.0001565140984365112
3822.38,-0.00015633860767185056
3823.28,-0.00015422919223560087
3824.18,-0.00015193694255382777
3825.09,-0.00014967560839240237
3825.99,-0.00014612963212843873
3826.89,-0.00014346774810206157
3827.79,-0.00014091221451180416
3828.69,-0.0001392461869245996
3829.59,-0.00013743884378718453
3830.49,-0.0001347505905132408
3831.39,-0.00013098839908570804
3832.29,-0.00012556920690089243
3833.19,-0.00011998125045126445
3834.09,-0.00011458030664877944
3834.99,-0.00011099288186813525
3835.89,-0.00010980571267791492
3836.79,-0.00011024351593871036
3837.69,-0.00011350214314301473
3838.59,-0.00011785376881510568
3839.49,-0.00012460850351450023
3840.39,-0.00013235619467400148
3841.29,-0.00014242487787532958
3842.19,-0.00015306684850416804
3843.09,-0.0001642174116184343
3843.99,-0.00017432313783779474
3844.89,-0.00018238988268340833
3845.79,-0.00019075916342207788
3846.69,-0.00019548810461871867
3847.59,-0.0001999741789374976
3848.49,-0.00020345448031132047
3849.39,-0.0002063813511852527
3850.29,-0.0002082438796923826
3851.19,-0.0002110826656526897
3852.09,-0.0002130586530956961
3852.99,-0.00021552488458403973
3853.89,-0.00021780782268290323
3854.79,-0.00021689592148295647
3855.69,-0.0002158766272702227
3856.59,-0.00021436187113307043
3857.49,-0.00021126424168025568
3858.39,-0.00020908758272644002
3859.29,-0.00020765426921720868
3860.19,-0.0002079050472566163
3861.09,-0.0002119429585399021
3861.99,-0.00021699704632000726
3862.9,-0.00022404174548313265
3863.8,-0.00023152433611856697
3864.7,-0.00023716308797945668
3865.6,-0.00024057617481363782
3866.5,-0.00024181043097308135
3867.4,-0.00024303239382585104
3868.3,-0.000242230285683246
3869.2,-0.00024246044530582626
3870.1,-0.00023869153537042887
3871.0,-0.00023555764619638043
3871.9,-0.0002321930062872438
3872.8,-0.0002288449651958562
3873.7,-0.0002284678436986054
3874.6,-0.00022996673795114983
3875.5,-0.00023213175825410485
3876.4,-0.00023418318701308135
3877.3,-0.00023384426935822673
3878.2,-0.00023268808130341378
3879.1,-0.00023127236088430077
3880.0,-0.00023079931705976582
3880.9,-0.0002299790203077895
3881.8,-0.00022996129341275597
3882.7,-0.00022908511773509673
3883.6,-0.0002258910160462357
3884.5,-0.0002216829046620736
3885.4,-0.000215129193584418
3886.3,-0.0002053849790677498
3887.2,-0.00019790749498912148
3888.1,-0.00018940475108864967
3889.0,-0.00018644137067756644
3889.9,-0.00018720927345402188
3890.8,-0.00019323219634893708
3891.7,-0.00020457016297426538
3892.6,-0.00021665583296950696
3893.5,-0.00022733629671368722
3894.4,-0.00023782268281959652
3895.3,-0.00024712528048589775
3896.2,-0.00025486873209915186
3897.1,-0.00026081953524842764
3898.0,-0.00026738095729838483
3898.9,-0.00027207400421637494
3899.8,-0.00027830300234574944
3900.7,-0.00028157637731081954
3901.6,-0.000286272295004621
3902.51,-0.00028921488130984437
3903.41,-0.0002906158475667221
3904.31,-0.00029007731518302374
3905.21,-0.00029087440421119294
3906.11,-0.0002932569084476219
3907.01,-0.00029715134086202383
3907.91,-0.00030326255864276746
3908.81,-0.00031179973893281866
3909.71,-0.0003222986373786999
3910.61,-0.00033146982534747454
3911.51,-0.00033903730654157293
3912.41,-0.00034376695160589203
3913.31,-0.00034650417932253206
3914.21,-0.00034698378233416233
3915.11,-0.0003465255857784579
3916.01,-0.0003444872369921844
3916.91,-0.0003427383691076057
3917.81,-0.0003385706205382728
3918.71,-0.0003363271236892634
3919.61,-0.0003337633370727716
3920.51,-0.00032902326132416284
3921.41,-0.00032883852608869455
3922.31,-0.00032736547001335705
3923.21,-0.00032622122210682476
3924.11,-0.0003260999573793079
3925.01,-0.00032108386460926434
3925.91,-0.00031494909346706885
3926.81,-0.00030331975069066905
3927.71,-0.000286397618887026
3928.61,-0.000266944072037654
3929.51,-0.00024169196544439163
3930.41,-0.00021737850314141214
3931.31,-0.00019103756122462864
3932.21,-0.0001672689865925149
3933.11,-0.0001482421081487421
3934.01,-0.00013717397396778949
3934.91,-0.00013539383591704227
3935.81,-0.00014477056383335922
3936.71,-0.00016447038029844576
3937.61,-0.00018920541130480317
3938.51,-0.00021946903831641688
3939.42,-0.0002504101567577565
3940.32,-0.00027688517254374035
3941.22,-0.0003014332225353549
3942.12,-0.00031990637952113377
3943.02,-0.0003359431109362959
3943.92,-0.00034678844643657017
3944.82,-0.0003574191965801253
3945.72,-0.00036741701608539217
3946.62,-0.00037944048540059015
3947.52,-0.0003910475796039993
3948.42,-0.0003991382864672685
3949.32,-0.000408741841640595
3950.22,-0.0004141990308321634
3951.12,-0.0004209847478819714
3952.02,-0.00042687507924172614
3952.92,-0.0004307794526966439
3953.82,-0.00043331600153779577
3954.72,-0.00043510678016280555
3955.62,-0.0004378710822671003
3956.52,-0.0004374252659782721
3957.42,-0.00043581783059734716
3958.32,-0.0004338804975833657
3959.22,-0.0004277812316960536
3960.12,-0.00042012999478770435
3961.02,-0.0004054447894005913
3961.92,-0.00038810080857612717
3962.82,-0.00036719535126296344
3963.72,-0.0003433034386102401
3964.62,-0.00031617403986946137
3965.52,-0.00028632195169306395
3966.42,-0.00025616578891967344
3967.32,-0.00022744128232587285
3968.22,-0.0002013061004915376
3969.12,-0.00018559094803627756
3970.02,-0.00018080026193823697
3970.92,-0.00019053499007343135
3971.82,-0.00021188315857241277
3972.72,-0.00024194900324058424
3973.62,-0.0002789463009418336
3974.52,-0.00031721719919532886
3975.42,-0.0003529725792059421
3976.32,-0.00038833275079280084
3977.22,-0.00042184377700575643
3978.13,-0.000450160366348756
3979.03,-0.0004775996070659062
3979.93,-0.00050095641040324
3980.83,-0.0005167081472553612
3981.73,-0.0005314023379908338
3982.63,-0.0005391786671989597
3983.53,-0.0005467530550727511
3984.43,-0.0005576373196470803
3985.33,-0.0005662003475234981
3986.23,-0.0005741919688827677
3987.13,-0.0005874956196262277
3988.03,-0.0005956988845081669
3988.93,-0.000607497472666328
3989.83,-0.0006159648025684299
3990.73,-0.0006255558384806788
3991.63,-0.000638915608064719
3992.53,-0.0006463309312475619
3993.43,-0.0006508736796948042
3994.33,-0.0006525491943964785
3995.23,-0.000654667093000217
3996.13,-0.0006547115367298144
3997.03,-0.0006544705387667885
3997.93,-0.0006561211272608241
3998.83,-0.000663245179922932
3999.73,-0.0006705953380843515
4000.63,-0.0006880426144282931
4001.53,-0.0007014842490264128
4002.43,-0.0007080411797880475
4003.33,-0.0007124386532523241
4004.23,-0.0007145366755217251
4005.13,-0.000706218912086259
4006.03,-0.0007035148235753505
4006.93,-0.000707697116520669
4007.83,-0.0007155042447617795
4008.73,-0.0007242118164596511
4009.63,-0.0007433746078614024
4010.53,-0.0007584966337571988
4011.43,-0.0007664771144730287
4012.33,-0.0007811837735634458
4013.23,-0.0007863183583124167
4014.13,-0.0007946235673504183
4015.03,-0.0007996799217843702
4015.93,-0.0008067054789085147
4016.84,-0.0008144232590845053
4017.74,-0.0008159399292851378
4018.64,-0.0008278041324951089
4019.54,-0.0008333530967573676
4020.44,-0.0008436324232081527
4021.34,-0.0008461821741311916
4022.24,-0.0008536695431738011
4023.14,-0.0008613174484265308
4024.04,-0.0008692223534807386
4024.94,-0.0008708422177019982
4025.84,-0.0008793455270232833
4026.74,-0.0008896347170859877
4027.64,-0.0008964571468074256
4028.54,-0.000904055242413592
4029.44,-0.0008972327703470321
4030.34,-0.0008890073758388118
4031.24,-0.0008768560249905938
4032.14,-0.0008634937001235442
4033.04,-0.0008605606943665797
4033.94,-0.0008663464334269808
4034.84,-0.0008804350805991591
4035.74,-0.0009066772659671789
4036.64,-0.000929751804586539
4037.54,-0.0009582658534574713
4038.44,-0.0009833440228930808
4039.34,-0.000999384446310603
4040.24,-0.001008934028170234
4041.14,-0.0010072796565528139
4042.04,-0.0010026044638490716
4042.94,-0.000988780028488366
4043.84,-0.0009748841411040597
4044.74,-0.0009595821328909957
4045.64,-0.0009463946497509027
4046.54,-0.0009495394974502962
4047.44,-0.0009608181395960179
4048.34,-0.0009814512775917481
4049.24,-0.001012577485417808
4050.14,-0.0010355872204426632
4051.04,-0.0010579509478143702
4051.94,-0.0010703926936182662
4052.84,-0.001077823458702444
4053.74,-0.0010791336307640301
4054.65,-0.0010739252133405732
4055.55,-0.0010649625016984998
4056.45,-0.0010673501438627367
4057.35,-0.0010665535534405484
4058.25,-0.0010699900505992473
4059.15,-0.001078087814895596
4060.05,-0.0010934457906893616
4060.95,-0.0011004443881316142
4061.85,-0.0011064252095203723
4062.75,-0.0011011199114620862
4063.65,-0.0010981193282848893
4064.55,-0.0010967605835597108
4065.45,-0.0010973082153643509
4066.35,-0.001113886080728061
4067.25,-0.0011276664379423092
4068.15,-0.0011535210045529659
4069.05,-0.0011715910535411266
4069.95,-0.0011837767972326075
4070.85,-0.0011969360435598092
4071.75,-0.001200703758822171
4072.65,-0.0012050962538539458
4073.55,-0.0012054198524531045
4074.45,-0.0012002199235476912
4075.35,-0.0012022356354455565
4076.25,-0.0011913978198902272
4077.15,-0.0011728920971377807
4078.05,-0.0011769763199561687
4078.95,-0.001179565937606313
4079.85,-0.0011999343477829543
4080.75,-0.0012310347184770784
4081.65,-0.0012626649350104715
4082.55,-0.0012887086892104096
4083.45,-0.0013130678740423906
4084.35,-0.0013280450763634905
4085.25,-0.0013358817277146458
4086.15,-0.0013546884671029311
4087.05,-0.0013704421158336425
4087.95,-0.0014021747786753232
4088.85,-0.0014229039946990253
4089.75,-0.00144149157548981
4090.65,-0.001454597357398677
4091.55,-0.0014569416917983647
4092.45,-0.0014628484215528392
4093.36,-0.001445730861701602
4094.26,-0.0014283511081809898
4095.16,-0.0014112416454814165
4096.06,-0.0013920449675606347
4096.96,-0.0013596543043675605
4097.86,-0.0013169789405582555
4098.76,-0.00127664854623925
4099.66,-0.0012309169884351786
4100.56,-0.001182192557973089
4101.46,-0.0011421871434963964
4102.36,-0.0011247544015720676
4103.26,-0.0011403348991310478
4104.16,-0.0011724686925363476
4105.06,-0.0012286803076001463
4105.96,-0.0013020191553848052
4106.86,-0.0013662276169619128
4107.76,-0.0014268595129791177
4108.66,-0.001477202999254298
4109.56,-0.001518975366646285
4110.46,-0.0015427546403327665
4111.36,-0.0015695556656728977
4112.26,-0.0016023168268497338
4113.16,-0.0016403105950905648
4114.06,-0.001671640699924276
4114.96,-0.0017029007699008248
4115.86,-0.0017361726236049249
4116.76,-0.0017583085239033522
4117.66,-0.001762861299282602
4118.56,-0.0017758562569616435
4119.46,-0.0017756775369497447
4120.36,-0.0017824206878190633
4121.26,-0.0017827196886699972
4122.16,-0.0018009523189708436
4123.06,-0.0018157505851432785
4123.96,-0.0018502570379530492
4124.86,-0.0018595514220080946
4125.76,-0.001886128227783894
4126.66,-0.0018910136041563467
4127.56,-0.001905941431500987
4128.46,-0.0019007382639454709
4129.36,-0.001913919903246585
4130.26,-0.0019120190079567206
4131.17,-0.001912091866486815
4132.06,-0.0019072562401644482
4132.97,-0.0019089884716353418
4133.87,-0.001925265689924473
4134.77,-0.0019535627098332667
4135.67,-0.0019900425521042907
4136.57,-0.0020330872840933095
4137.47,-0.0020940236653587364
4138.37,-0.0021418163342807614
4139.27,-0.002179286906189714
4140.17,-0.002199621275899944
4141.07,-0.002196829982232582
4141.97,-0.0021937031728243954
4142.87,-0.002163476700097328
4143.77,-0.002150868440897808
4144.67,-0.0021466670848400665
4145.57,-0.002155521914066817
4146.47,-0.0021897363845195675
4147.37,-0.002233412339116645
4148.27,-0.002274472757287419
4149.17,-0.0023060127523684168
4150.07,-0.0023204656648424717
4150.97,-0.0023353294560851208
4151.87,-0.0023467816335096697
4152.77,-0.00234944211608885
4153.67,-0.0023525458541679817
4154.57,-0.002371098948839184
4155.47,-0.002366758695245196
4156.37,-0.0023922620040226555
4157.27,-0.002419963072679998
4158.17,-0.0024598753265864374
4159.07,-0.0024947430142110366
4159.97,-0.002550099577286865
4160.87,-0.0025915759500407575
4161.77,-0.0026444511927724533
4162.67,-0.002677972171761933
4163.57,-0.0027064621867670365
4164.47,-0.0027168388826189307
4165.37,-0.002739956609351396
4166.27,-0.0027552120479899193
4167.17,-0.0027579974493999702
4168.07,-0.0027507760379525395
4168.98,-0.002754706070486025
4169.88,-0.0027517640596966767
4170.78,-0.002732188444168558
4171.68,-0.0027121041207518524
4172.58,-0.0026944291836119637
4173.48,-0.0026762135910014077
4174.38,-0.0026771393815528685
4175.28,-0.0027027161489927023
4176.18,-0.002719749177666564
4177.08,-0.002765372537980164
4177.98,-0.0028164918314209616
4178.88,-0.0028685296991449024
4179.78,-0.0029173466137685806
4180.68,-0.0029480738577168483
4181.58,-0.0029892873843866716
4182.48,-0.003030399499480945
4183.38,-0.003059545187345787
4184.28,-0.003086088862877634
4185.18,-0.003107514557588683
4186.08,-0.00312685218559741
4186.98,-0.0031509639603597437
4187.88,-0.003174525523753226
4188.78,-0.0031904950494391097
4189.68,-0.0032282188914754067
4190.58,-0.003270871559867896
4191.48,-0.003324395275567377
4192.38,-0.0033827353103571085
4193.28,-0.00343422756141262
4194.18,-0.0034559951061748804
4195.08,-0.0034676708678678682
4195.98,-0.0034512553069747836
4196.88,-0.003434005163582953
4197.78,-0.0033998422172190233
4198.68,-0.003390949377945287
4199.58,-0.0034009087645523704
4200.48,-0.003406629363265371
4201.38,-0.003418385639863876
4202.28,-0.0034696960682527945
4203.18,-0.0035105436658529874
4204.08,-0.003580060724294199
4204.98,-0.0036460491797667078
4205.88,-0.003711932904207868
4206.79,-0.0037773816496375913
4207.69,-0.0038635802343534426
4208.59,-0.003932767648955031
4209.49,-0.004006257753935563
4210.39,-0.004043620502401838
4211.29,-0.0040947029281502186
4212.19,-0.0041210707178217015
4213.09,-0.004143877983112783
4213.99,-0.004143811180276774
4214.89,-0.004145103110951905
4215.79,-0.0041373007843671416
4216.69,-0.004156333927744376
4217.59,-0.004192485477524778
4218.49,-0.0042629994227890424
4219.39,-0.004331108127297797
4220.29,-0.004411691031921406
4221.19,-0.004465099621845356
4222.09,-0.004463178973102934
4222.99,-0.004430014133984402
4223.89,-0.004356317311480215
4224.79,-0.0042327916454153345
4225.69,-0.004127949806781532
4226.59,-0.004055069398920229
4227.49,-0.0040697339994579555
4228.39,-0.00413770424731236
4229.29,-0.004256979885797273
4230.19,-0.004426088298102993
4231.09,-0.004580757971075252
4231.99,-0.004754359672917221
4232.89,-0.004824580901992701
4233.79,-0.004895814414493407
4234.69,-0.004900934456131109
4235.59,-0.004902174809005697
4236.49,-0.004888453133719084
4237.39,-0.004916200714241241
4238.29,-0.004958612939700901
4239.19,-0.005020973705667089
4240.09,-0.00510480468442919
4240.99,-0.00519703082987938
4241.89,-0.0053063272087740445
4242.79,-0.005374115399493439
4243.69,-0.005479896295025417
4244.59,-0.005545465917657706
4245.5,-0.005566739337442905
4246.4,-0.005578404256580278
4247.3,-0.005570263514260426
4248.2,-0.0055509216054061335
4249.1,-0.005535670779487631
4250.0,-0.005551480568724467
4250.9,-0.005585188600679582
4251.8,-0.0056627039643365835
4252.7,-0.005725718870641175
4253.6,-0.005847273668595934
4254.5,-0.005884360538057842
4255.4,-0.005956804199302613
4256.3,-0.006035930762616406
4257.2,-0.006113542913565807
4258.1,-0.006137093411912065
4259.0,-0.006143906067139662
4259.9,-0.006184508558510787
4260.8,-0.006182797805334606
4261.7,-0.00626374621552641
4262.6,-0.006361401583476731
4263.5,-0.006508818475372451
4264.4,-0.006685941891831789
4265.3,-0.006857747626382699
4266.2,-0.006930363000835247
4267.1,-0.0070011843105526
4268.0,-0.006974764389788884
4268.9,-0.006934282771492785
4269.8,-0.006843438971524564
4270.7,-0.006746841528809609
4271.6,-0.006655529228493783
4272.5,-0.006601174642686194
4273.4,-0.00656781775221164
4274.3,-0.006647253597651352
4275.2,-0.006787503949445805
4276.1,-0.006968438304023702
4277.0,-0.007193243822943309
4277.9,-0.0073805755056466065
4278.8,-0.007500563446702574
4279.7,-0.007658101110270612
4280.6,-0.007741747792446602
4281.5,-0.007759246711750543
4282.4,-0.007794611889870215
