wave,flux
3700.85,-2.8499735476719475e-07
3701.75,-2.800309763028669e-07
3702.65,-2.671971310492398e-07
3703.55,-2.5066109751507645e-07
3704.45,-2.3185611951491862e-07
3705.35,-2.1323787275843376e-07
3706.25,-1.9908367370834627e-07
3707.15,-1.9009265573675744e-07
3708.05,-1.8964756548648997e-07
3708.96,-1.9432482582914474e-07
3709.86,-2.0689750124504123e-07
3710.76,-2.2280732933755776e-07
3711.66,-2.434011473052718e-07
3712.56,-2.648442383533923e-07
3713.46,-2.8198610155848063e-07
3714.36,-2.9306344264643325e-07
3715.26,-2.9316943101797613e-07
3716.16,-2.855485284862963e-07
3717.06,-2.703825114592164e-07
3717.96,-2.483670033204579e-07
3718.86,-2.2367123122941473e-07
3719.76,-1.977413096171138e-07
3720.66,-1.7947002841238053e-07
3721.56,-1.6758435190212188e-07
3722.46,-1.685594431158763e-07
3723.36,-1.7859843731655878e-07
3724.26,-1.943759981365401e-07
3725.16,-2.1061590798673607e-07
3726.06,-2.234564382597227e-07
3726.96,-2.2964403684152023e-07
3727.86,-2.3092199845942773e-07
3728.76,-2.2936305251362486e-07
3729.66,-2.2576839148289113e-07
3730.56,-2.1954669893750013e-07
3731.46,-2.1043286392280814e-07
3732.36,-1.947698413911232e-07
3733.26,-1.7687441884615665e-07
3734.16,-1.5876984824020948e-07
3735.06,-1.4473143089219494e-07
3735.96,-1.378613044996843e-07
3736.86,-1.4014539332738764e-07
3737.76,-1.5026346053265556e-07
3738.66,-1.673997984572866e-07
3739.56,-1.866294266830104e-07
3740.46,-2.0471928720995758e-07
3741.36,-2.1583414028858813e-07
3742.26,-2.1956212965633132e-07
3743.16,-2.1174400982574235e-07
3744.06,-1.9794406665094402e-07
3744.96,-1.8295107744762446e-07
3745.86,-1.6827144167362264e-07
3746.76,-1.5695641948686575e-07
3747.67,-1.4829964922452183e-07
3748.57,-1.454799336945266e-07
3749.47,-1.473740088792772e-07
3750.37,-1.574249913471396e-07
3751.27,-1.7409461871143344e-07
3752.17,-1.962433455724986e-07
3753.07,-2.1940466392858983e-07
3753.97,-2.406306775997149e-07
3754.87,-2.5528554748043904e-07
3755.77,-2.5859153126472017e-07
3756.67,-2.536342853370107e-07
3757.57,-2.4206557932510173e-07
3758.47,-2.2619278550190885e-07
3759.37,-2.1405770219022438e-07
3760.27,-2.0973074686591203e-07
3761.17,-2.0819807454977084e-07
3762.07,-2.120862880717745e-07
3762.97,-2.1557836551738186e-07
3763.87,-2.1762505603687387e-07
3764.77,-2.180300279836578e-07
3765.67,-2.1971057456062278e-07
3766.57,-2.2042923633059876e-07
3767.47,-2.2372809902776377e-07
3768.37,-2.29947475928377e-07
3769.27,-2.389083053432744e-07
3770.17,-2.4839441865165924e-07
3771.07,-2.60768793294973e-07
3771.97,-2.7158989462814137e-07
3772.87,-2.826656263130168e-07
3773.77,-2.893415530150976e-07
3774.67,-2.9436875788338654e-07
3775.57,-2.959587403550301e-07
3776.47,-2.9763914194853467e-07
3777.37,-2.9979245776377647e-07
3778.27,-3.008595990171555e-07
3779.17,-3.0657947643263435e-07
3780.07,-3.1196235863138776e-07
3780.97,-3.1818249667340507e-07
3781.87,-3.244706076936753e-07
3782.77,-3.2667469226215455e-07
3783.67,-3.253618946703737e-07
3784.57,-3.1795188852833593e-07
3785.47,-3.064594376140267e-07
3786.38,-2.9000594080709813e-07
3787.28,-2.7171401573187325e-07
3788.18,-2.538724053073275e-07
3789.08,-2.4393577409880414e-07
3789.98,-2.371786203221966e-07
3790.88,-2.3656260009264246e-07
3791.78,-2.3822273304143697e-07
3792.68,-2.387889613865997e-07
3793.58,-2.3565604437984544e-07
3794.48,-2.3092553636258468e-07
3795.38,-2.2476001127890148e-07
3796.28,-2.1837043485156444e-07
3797.18,-2.1279113504268236e-07
3798.08,-2.1010440647088912e-07
3798.98,-2.1157840598042995e-07
3799.88,-2.172897258127033e-07
3800.78,-2.2865574811766113e-07
3801.68,-2.443541129274306e-07
3802.58,-2.615257235173366e-07
3803.48,-2.757103758141429e-07
3804.38,-2.8557521844101004e-07
3805.28,-2.897186822296527e-07
3806.18,-2.8884442147040317e-07
3807.08,-2.868706871528312e-07
3807.98,-2.848258049441301e-07
3808.88,-2.862878699104996e-07
3809.78,-2.8924194857503626e-07
3810.68,-2.905194830533805e-07
3811.58,-2.8756424973364046e-07
3812.48,-2.7958986398597177e-07
3813.38,-2.6574310369686573e-07
3814.28,-2.489529911441224e-07
3815.18,-2.3301748179987513e-07
3816.08,-2.1991992303729294e-07
3816.98,-2.1187161767827266e-07
3817.88,-2.0700068947359928e-07
3818.78,-2.0187773488078477e-07
3819.68,-1.9713557161653202e-07
3820.58,-1.927046628720961e-07
3821.48,-1.8809998381366974e-07
3822.38,-1.845749822497683e-07
3823.28,-1.8205520473561553e-07
3824.18,-1.7837564287577556e-07
3825.09,-1.723402118205912e-07
3825.99,-1.654387154451639e-07
3826.89,-1.6056129878623848e-07
3827.79,-1.5785817690258779e-07
3828.69,-1.584150776951784e-07
3829.59,-1.5994488423016108e-07
3830.49,-1.6202378677005122e-07
3831.39,-1.617315611323497e-07
3832.29,-1.6014662312702299e-07
3833.19,-1.577075684027416e-07
3834.09,-1.5683524170267335e-07
3834.99,-1.5774459596984087e-07
3835.89,-1.5944766955895337e-07
3836.79,-1.6134639697271914e-07
3837.69,-1.6200642798187351e-07
3838.59,-1.6223609005170944e-07
3839.49,-1.6387908374898485e-07
3840.39,-1.6706402040030442e-07
3841.29,-1.7579395073622806e-07
3842.19,-1.8999359475852447e-07
3843.09,-2.0687944645209405e-07
3843.99,-2.2108638386629618e-07
3844.89,-2.3479603036864564e-07
3845.79,-2.436302173255077e-07
3846.69,-2.491923393039174e-07
3847.59,-2.50769711908572e-07
3848.49,-2.494324473916094e-07
3849.39,-2.469216959421072e-07
3850.29,-2.441174354736027e-07
3851.19,-2.418669071789646e-07
3852.09,-2.410471851986515e-07
3852.99,-2.3957833064332577e-07
3853.89,-2.368917808781249e-07
3854.79,-2.3351683531946443e-07
3855.69,-2.2690981949582417e-07
3856.59,-2.181550291803147e-07
3857.49,-2.10565608961914e-07
3858.39,-2.0122316797005434e-07
3859.29,-1.9601076869436018e-07
3860.19,-1.950661868206622e-07
3861.09,-1.9954778914298603e-07
3861.99,-2.1063433775193448e-07
3862.9,-2.2567448440455812e-07
3863.8,-2.389398819105671e-07
3864.7,-2.490718269612115e-07
3865.6,-2.5414246181902125e-07
3866.5,-2.5318186725706486e-07
3867.4,-2.4978137292502944e-07
3868.3,-2.434684325315141e-07
3869.2,-2.3544107805033699e-07
3870.1,-2.2626033315267203e-07
3871.0,-2.2029758100718267e-07
3871.9,-2.1764762980331543e-07
3872.8,-2.2065172675174515e-07
3873.7,-2.2771940454844903e-07
3874.6,-2.401618662034889e-07
3875.5,-2.508249902228334e-07
3876.4,-2.566986246134775e-07
3877.3,-2.558193470662001e-07
3878.2,-2.5178541697956057e-07
3879.1,-2.470607138666099e-07
3880.0,-2.405780549843241e-07
3880.9,-2.3717807240764364e-07
3881.8,-2.3846496852456973e-07
3882.7,-2.4035425826539204e-07
3883.6,-2.4356769262017793e-07
3884.5,-2.465688725803007e-07
3885.4,-2.473435065239906e-07
3886.3,-2.4608061675777225e-07
3887.2,-2.436313073518513e-07
3888.1,-2.456470029320203e-07
3889.0,-2.5172116741913814e-07
3889.9,-2.6271027380345875e-07
3890.8,-2.814755538081783e-07
3891.7,-3.005962922167606e-07
3892.6,-3.187613733413902e-07
3893.5,-3.299398512350428e-07
3894.4,-3.3793596807831053e-07
3895.3,-3.4252729798995713e-07
3896.2,-3.416905447860592e-07
3897.1,-3.4123923120781267e-07
3898.0,-3.4018247072676304e-07
3898.9,-3.398492434450121e-07
3899.8,-3.4122890538012365e-07
3900.7,-3.3933276020825783e-07
3901.6,-3.384287132937128e-07
3902.51,-3.350843531747428e-07
3903.41,-3.30182634282653e-07
3904.31,-3.260281850416527e-07
3905.21,-3.207706061481536e-07
3906.11,-3.214188400153347e-07
3907.01,-3.28708472117217e-07
3907.91,-3.4038232687139303e-07
3908.81,-3.565197365785241e-07
3909.71,-3.742846239996577e-07
3910.61,-3.877086905858796e-07
3911.51,-4.0063735546962054e-07
3912.41,-4.083916417536336e-07
3913.31,-4.116813800678584e-07
3914.21,-4.1193310002536803e-07
3915.11,-4.09898157926294e-07
3916.01,-4.044838336410232e-07
3916.91,-3.950104323814244e-07
3917.81,-3.8193850932036124e-07
3918.71,-3.6748843729732287e-07
3919.61,-3.515665198378367e-07
3920.51,-3.3472919265155343e-07
3921.41,-3.236728299375502e-07
3922.31,-3.140275210861531e-07
3923.21,-3.0687710262882284e-07
3924.11,-3.0377752336889894e-07
3925.01,-2.9919453369896815e-07
3925.91,-2.9119771494821996e-07
3926.81,-2.7742768691310145e-07
3927.71,-2.561828455834569e-07
3928.61,-2.317660343528431e-07
3929.51,-2.054990912734072e-07
3930.41,-1.8056500832625439e-07
3931.31,-1.5783774334801654e-07
3932.21,-1.3780143302310638e-07
3933.11,-1.2345736762026706e-07
3934.01,-1.156325161574366e-07
3934.91,-1.1562324383472675e-07
3935.81,-1.2354850200768024e-07
3936.71,-1.3892905279271184e-07
3937.61,-1.6016712119579484e-07
3938.51,-1.8480456390437586e-07
3939.42,-2.1062695782965045e-07
3940.32,-2.345090311495898e-07
3941.22,-2.520138630426953e-07
3942.12,-2.6442008814086844e-07
3943.02,-2.7455322713624174e-07
3943.92,-2.838933577326563e-07
3944.82,-2.9747982022227206e-07
3945.72,-3.1085633221947397e-07
3946.62,-3.3027315565552194e-07
3947.52,-3.5054916423506944e-07
3948.42,-3.687640310285688e-07
3949.32,-3.8397378315233906e-07
3950.22,-3.999892276483428e-07
3951.12,-4.1021284940773273e-07
3952.02,-4.181595808283876e-07
3952.92,-4.247030311418691e-07
3953.82,-4.2627243706751516e-07
3954.72,-4.274644603027252e-07
3955.62,-4.257367733109507e-07
3956.52,-4.21931028378846e-07
3957.42,-4.1816227730771006e-07
3958.32,-4.080382026942075e-07
3959.22,-3.955869352949647e-07
3960.12,-3.78554720821593e-07
3961.02,-3.5518453145142844e-07
3961.92,-3.276956370516475e-07
3962.82,-2.993785795502693e-07
3963.72,-2.7242674446572826e-07
3964.62,-2.451906164005937e-07
3965.52,-2.2227851079769402e-07
3966.42,-1.983351599359201e-07
3967.32,-1.7678135321364226e-07
3968.22,-1.5871131332401747e-07
3969.12,-1.4893764865967765e-07
3970.02,-1.4866074903756337e-07
3970.92,-1.5870202754947295e-07
3971.82,-1.7917265757109956e-07
3972.72,-2.0448570400924045e-07
3973.62,-2.3706243155677435e-07
3974.52,-2.701351303801137e-07
3975.42,-3.036011102782396e-07
3976.32,-3.3757926409036466e-07
3977.22,-3.697780237851184e-07
3978.13,-4.002092780531756e-07
3979.03,-4.2851510931096646e-07
3979.93,-4.5185706883425024e-07
3980.83,-4.695378344862072e-07
3981.73,-4.836641329667912e-07
3982.63,-4.891722039855273e-07
3983.53,-4.948250425898711e-07
3984.43,-4.956481859767924e-07
3985.33,-5.03701866129963e-07
3986.23,-5.109360573549631e-07
3987.13,-5.180989214303758e-07
3988.03,-5.272252784057779e-07
3988.93,-5.347786565235388e-07
3989.83,-5.440794758378973e-07
3990.73,-5.514042050202814e-07
3991.63,-5.556785843890842e-07
3992.53,-5.609420165298663e-07
3993.43,-5.639447554812713e-07
3994.33,-5.642769066590112e-07
3995.23,-5.628221776719904e-07
3996.13,-5.587688715897461e-07
3997.03,-5.55914171986845e-07
3997.93,-5.561009164008652e-07
3998.83,-5.618543696057371e-07
3999.73,-5.740040582215269e-07
4000.63,-5.856427670873851e-07
4001.53,-6.01319589964629e-07
4002.43,-6.030936608906217e-07
4003.33,-6.063167987611752e-07
4004.23,-5.944418504224734e-07
4005.13,-5.821748219349205e-07
4006.03,-5.711464205025376e-07
4006.93,-5.649472048800521e-07
4007.83,-5.665490748312422e-07
4008.73,-5.733415734820857e-07
4009.63,-5.888062987514039e-07
4010.53,-6.044907594846492e-07
4011.43,-6.16148300956689e-07
4012.33,-6.236268499246813e-07
4013.23,-6.328627962812024e-07
4014.13,-6.388660781978344e-07
4015.03,-6.444243945414253e-07
4015.93,-6.497198924956782e-07
4016.84,-6.49837512443147e-07
4017.74,-6.502221424925635e-07
4018.64,-6.543428740885187e-07
4019.54,-6.613360883705882e-07
4020.44,-6.607167370754487e-07
4021.34,-6.615764445699629e-07
4022.24,-6.59285654792962e-07
4023.14,-6.570812359363914e-07
4024.04,-6.539877617347272e-07
4024.94,-6.565149995486686e-07
4025.84,-6.562529292290965e-07
4026.74,-6.598136120214394e-07
4027.64,-6.61514519418087e-07
4028.54,-6.579358865380942e-07
4029.44,-6.437687106499419e-07
4030.34,-6.251133910371684e-07
4031.24,-5.973547123813114e-07
4032.14,-5.728625066568388e-07
4033.04,-5.543773529664785e-07
4033.94,-5.490806596211338e-07
4034.84,-5.537675365293817e-07
4035.74,-5.753684914241634e-07
4036.64,-6.034041607757813e-07
4037.54,-6.349637315396235e-07
4038.44,-6.61387640432759e-07
4039.34,-6.768204148604552e-07
4040.24,-6.858294540921652e-07
4041.14,-6.804947105506476e-07
4042.04,-6.712882125872587e-07
4042.94,-6.465127780178933e-07
4043.84,-6.181420782008851e-07
4044.74,-5.85063366268929e-07
4045.64,-5.587940915387446e-07
4046.54,-5.474105621736462e-07
4047.44,-5.503444969680937e-07
4048.34,-5.696188846473586e-07
4049.24,-6.02841417608019e-07
4050.14,-6.344119469369289e-07
4051.04,-6.602737354108332e-07
4051.94,-6.719564605988455e-07
4052.84,-6.774315785553589e-07
4053.74,-6.69077163309354e-07
4054.65,-6.574149559700924e-07
4055.55,-6.402793612809774e-07
4056.45,-6.264524422273394e-07
4057.35,-6.167735101659686e-07
4058.25,-6.117451139697751e-07
4059.15,-6.06605918955338e-07
4060.05,-6.081419574711668e-07
4060.95,-6.046949030016226e-07
4061.85,-5.964908622448723e-07
4062.75,-5.863544127209345e-07
4063.65,-5.72070356023755e-07
4064.55,-5.655613265457145e-07
4065.45,-5.651840145388628e-07
4066.35,-5.71404630855931e-07
4067.25,-5.925815762547392e-07
4068.15,-6.088239189703326e-07
4069.05,-6.240184802359531e-07
4069.95,-6.34152042831296e-07
4070.85,-6.339028396754591e-07
4071.75,-6.343965305638298e-07
4072.65,-6.298230659888569e-07
4073.55,-6.315549244525221e-07
4074.45,-6.269150864979765e-07
4075.35,-6.271998746497621e-07
4076.25,-6.196454039427482e-07
4077.15,-6.149208918130586e-07
4078.05,-6.139379949153019e-07
4078.95,-6.205699146604311e-07
4079.85,-6.39010299148562e-07
4080.75,-6.633243991058325e-07
4081.65,-6.853341428332323e-07
4082.55,-7.049804125162471e-07
4083.45,-7.166561565846056e-07
4084.35,-7.231086461796885e-07
4085.25,-7.284135360735516e-07
4086.15,-7.368188251507421e-07
4087.05,-7.478292907161486e-07
4087.95,-7.635354581883972e-07
4088.85,-7.734873202433471e-07
4089.75,-7.887544603491669e-07
4090.65,-7.917820744413565e-07
4091.55,-7.913989388848574e-07
4092.45,-7.785529113465205e-07
4093.36,-7.677808007107927e-07
4094.26,-7.514403185705721e-07
4095.16,-7.351090609191059e-07
4096.06,-7.159127978797947e-07
4096.96,-6.928643410955957e-07
4097.86,-6.695511808596726e-07
4098.76,-6.520519041708293e-07
4099.66,-6.343013989028214e-07
4100.56,-6.165053872428001e-07
4101.46,-6.033699162662751e-07
4102.36,-6.004532341074592e-07
4103.26,-6.051498435058649e-07
4104.16,-6.207070504586923e-07
4105.06,-6.42435987305353e-07
4105.96,-6.690068275458771e-07
4106.86,-6.978323953687291e-07
4107.76,-7.132167860208545e-07
4108.66,-7.24042010019016e-07
4109.56,-7.273616380317852e-07
4110.46,-7.252420757598359e-07
4111.36,-7.305099546021422e-07
4112.26,-7.308548423405531e-07
4113.16,-7.368772570743709e-07
4114.06,-7.478091664219168e-07
4114.96,-7.576609969383132e-07
4115.86,-7.68275554845679e-07
4116.76,-7.708319971468519e-07
4117.66,-7.68209395648269e-07
4118.56,-7.60123236090744e-07
4119.46,-7.538719354596632e-07
4120.36,-7.49037656897924e-07
4121.26,-7.431267399338643e-07
4122.16,-7.428964620642174e-07
4123.06,-7.437307753593473e-07
4123.96,-7.472349452918019e-07
4124.86,-7.539000931713188e-07
4125.76,-7.579592217716331e-07
4126.66,-7.54687605583613e-07
4127.56,-7.508702656446431e-07
4128.46,-7.469885567729394e-07
4129.36,-7.292742401604052e-07
4130.26,-7.194837296139788e-07
4131.17,-7.024523259696444e-07
4132.06,-6.90323656450392e-07
4132.97,-6.793719905012018e-07
4133.87,-6.790443481407075e-07
4134.77,-6.897703978285332e-07
4135.67,-7.037242969882424e-07
4136.57,-7.261884253196932e-07
4137.47,-7.493615806848233e-07
4138.37,-7.6600196348586e-07
4139.27,-7.784297087475309e-07
4140.17,-7.755978463434698e-07
4141.07,-7.612754798616688e-07
4141.97,-7.439045384771118e-07
4142.87,-7.179369233759158e-07
4143.77,-6.991472264596457e-07
4144.67,-6.897612574211328e-07
4145.57,-6.866234989846717e-07
4146.47,-6.920168592936571e-07
4147.37,-7.063049929000693e-07
4148.27,-7.207943900379165e-07
4149.17,-7.253090941766195e-07
4150.07,-7.288375680318757e-07
4150.97,-7.24112161804561e-07
4151.87,-7.218721405058663e-07
4152.77,-7.172350388838467e-07
4153.67,-7.081321845571984e-07
4154.57,-7.076437657990071e-07
4155.47,-7.041397355932075e-07
4156.37,-7.054870082496125e-07
4157.27,-7.15228883637413e-07
4158.17,-7.315489529385471e-07
4159.07,-7.443200606133727e-07
4159.97,-7.648171232529063e-07
4160.87,-7.806420227850931e-07
4161.77,-7.963375273550181e-07
4162.67,-8.082384923704285e-07
4163.57,-8.167254259527761e-07
4164.47,-8.146067599140035e-07
4165.37,-8.110667065689074e-07
4166.27,-8.007730323555691e-07
4167.17,-7.908490712611803e-07
4168.07,-7.804440882890032e-07
4168.98,-7.728097963022567e-07
4169.88,-7.645741318654459e-07
4170.78,-7.554608052904502e-07
4171.68,-7.432964271389821e-07
4172.58,-7.333298112749882e-07
4173.48,-7.19271628266887e-07
4174.38,-7.06208225075599e-07
4175.28,-7.048773762065357e-07
4176.18,-7.050365003779963e-07
4177.08,-7.123886196220356e-07
4177.98,-7.153794338789251e-07
4178.88,-7.298585698167387e-07
4179.78,-7.354195864298806e-07
4180.68,-7.422665416990104e-07
4181.58,-7.486088790459489e-07
4182.48,-7.546186041520453e-07
4183.38,-7.613396447345497e-07
4184.28,-7.70635322904864e-07
4185.18,-7.748889385587826e-07
4186.08,-7.796771394432344e-07
4186.98,-7.803324737674071e-07
4187.88,-7.838522201873784e-07
4188.78,-7.776657705321035e-07
4189.68,-7.838844538182077e-07
4190.58,-7.911155572781273e-07
4191.48,-8.029465125422597e-07
4192.38,-8.138658166278075e-07
4193.28,-8.196292092522702e-07
4194.18,-8.208064022402786e-07
4195.08,-8.092896439336377e-07
4195.98,-7.9159279152518e-07
4196.88,-7.71066513313714e-07
4197.78,-7.470478191609999e-07
4198.68,-7.322255919380425e-07
4199.58,-7.251497982542277e-07
4200.48,-7.204946333223664e-07
4201.38,-7.260755127023984e-07
4202.28,-7.338774804212982e-07
4203.18,-7.503612993729565e-07
4204.08,-7.694590979823455e-07
4204.98,-7.947149058913859e-07
4205.88,-8.212946441304148e-07
4206.79,-8.435705717913008e-07
4207.69,-8.62944897210742e-07
4208.59,-8.7953852657298e-07
4209.49,-8.836945500673043e-07
4210.39,-8.846004238529799e-07
4211.29,-8.808532528263779e-07
4212.19,-8.772767181717468e-07
4213.09,-8.728412781691791e-07
4213.99,-8.564391383679931e-07
4214.89,-8.452792029798758e-07
4215.79,-8.387127716031028e-07
4216.69,-8.413875171431099e-07
4217.59,-8.55718395361546e-07
4218.49,-8.749104161750155e-07
4219.39,-9.00144455323346e-07
4220.29,-9.138696202424977e-07
4221.19,-9.186773726313911e-07
4222.09,-9.096212455399415e-07
4222.99,-8.81421690670656e-07
4223.89,-8.353580953303825e-07
4224.79,-7.810373858931251e-07
4225.69,-7.259567116903232e-07
4226.59,-6.826578632494699e-07
4227.49,-6.648618660727385e-07
4228.39,-6.757666033457694e-07
4229.29,-7.06426993938539e-07
4230.19,-7.520129768843063e-07
4231.09,-8.024442820759982e-07
4231.99,-8.421693579287773e-07
4232.89,-8.700858596053519e-07
4233.79,-8.740955670902962e-07
4234.69,-8.749882684456199e-07
4235.59,-8.663657310783171e-07
4236.49,-8.602270196433034e-07
4237.39,-8.565819203142959e-07
4238.29,-8.610970921948966e-07
4239.19,-8.723570692611971e-07
4240.09,-8.907664406137338e-07
4240.99,-9.169842635220322e-07
4241.89,-9.41816331778718e-07
4242.79,-9.63612160862014e-07
4243.69,-9.86857519318091e-07
4244.59,-9.99315547777695e-07
4245.5,-1.010231712472421e-06
4246.4,-1.002716567665069e-06
4247.3,-9.878567154701553e-07
4248.2,-9.599480076812592e-07
4249.1,-9.268565990962088e-07
4250.0,-9.027556562094952e-07
4250.9,-8.754532084968651e-07
4251.8,-8.697444550496763e-07
4252.7,-8.644687914376608e-07
4253.6,-8.677903988724749e-07
4254.5,-8.743373299130257e-07
4255.4,-8.858621885941661e-07
4256.3,-8.924477178164599e-07
4257.2,-8.998246689611894e-07
4258.1,-9.086430919409003e-07
4259.0,-9.027783540681698e-07
4259.9,-8.974806949905063e-07
4260.8,-8.935967450333952e-07
4261.7,-8.984162198063614e-07
4262.6,-9.230443503685743e-07
4263.5,-9.544526084307615e-07
4264.4,-9.911006528901693e-07
4265.3,-1.024378884377426e-06
4266.2,-1.0443883589126192e-06
4267.1,-1.0419645429596615e-06
4268.0,-1.021022526294824e-06
4268.9,-9.83526479301402e-07
4269.8,-9.371110205918037e-07
4270.7,-8.82465859000589e-07
4271.6,-8.359893302437067e-07
4272.5,-8.014142120069858e-07
4273.4,-7.810373984799429e-07
4274.3,-7.843889818619152e-07
4275.2,-8.008830017343556e-07
4276.1,-8.379447282881411e-07
4277.0,-8.818876911661433e-07
4277.9,-9.228155985695277e-07
4278.8,-9.570484144294753e-07
