wave,flux
3700.85,-8.080009255152901e-07
3701.75,-8.001582163683371e-07
3702.65,-7.718558034696549e-07
3703.55,-7.320085610910241e-07
3704.45,-6.866277459527612e-07
3705.35,-6.447231327205754e-07
3706.25,-6.152702539415709e-07
3707.15,-5.979242753625038e-07
3708.05,-6.001251151595458e-07
3708.96,-6.107323917950773e-07
3709.86,-6.395290474835225e-07
3710.76,-6.762621153999216e-07
3711.66,-7.20773315705933e-07
3712.56,-7.67123537796482e-07
3713.46,-8.09893088757707e-07
3714.36,-8.437873847680317e-07
3715.26,-8.564262504280908e-07
3716.16,-8.494112408863808e-07
3717.06,-8.223365347528193e-07
3717.96,-7.798630842349784e-07
3718.86,-7.192321556948207e-07
3719.76,-6.580654933870592e-07
3720.66,-6.027259850007403e-07
3721.56,-5.704095704457122e-07
3722.46,-5.705517787358638e-07
3723.36,-5.963589346242758e-07
3724.26,-6.428331790879737e-07
3725.16,-6.902168626853072e-07
3726.06,-7.28420618780019e-07
3726.96,-7.503841032057781e-07
3727.86,-7.622789625599659e-07
3728.76,-7.657177825832164e-07
3729.66,-7.591139457349087e-07
3730.56,-7.426203540509555e-07
3731.46,-7.168154763516593e-07
3732.36,-6.736981755585099e-07
3733.26,-6.208578430522412e-07
3734.16,-5.686419442198749e-07
3735.06,-5.232227765944386e-07
3735.96,-5.040320062594406e-07
3736.86,-5.095669903136081e-07
3737.76,-5.388081892034534e-07
3738.66,-5.920832920381721e-07
3739.56,-6.52789455487508e-07
3740.46,-7.062974915308916e-07
3741.36,-7.394739989687257e-07
3742.26,-7.555892215713626e-07
3743.16,-7.393702813395943e-07
3744.06,-7.082539526799293e-07
3744.96,-6.693740928390179e-07
3745.86,-6.290239346340859e-07
3746.76,-5.896781651773e-07
3747.67,-5.623690065174488e-07
3748.57,-5.447249929199581e-07
3749.47,-5.436962305251613e-07
3750.37,-5.660672402934533e-07
3751.27,-6.135742747470934e-07
3752.17,-6.762876719685342e-07
3753.07,-7.520614579078724e-07
3753.97,-8.160241139048089e-07
3754.87,-8.621104948099074e-07
3755.77,-8.823068444813039e-07
3756.67,-8.733817046085034e-07
3757.57,-8.431334917072708e-07
3758.47,-8.012174046292403e-07
3759.37,-7.727084693476293e-07
3760.27,-7.586002940234482e-07
3761.17,-7.629894493648925e-07
3762.07,-7.767757632603794e-07
3762.97,-7.97451679998522e-07
3763.87,-8.071881617690539e-07
3764.77,-8.19669370009616e-07
3765.67,-8.248696087311969e-07
3766.57,-8.254186918686187e-07
3767.47,-8.30075636839243e-07
3768.37,-8.374790551614329e-07
3769.27,-8.472806601715797e-07
3770.17,-8.633879918325445e-07
3771.07,-8.8841167591241e-07
3771.97,-9.1343639132198e-07
3772.87,-9.445108311777101e-07
3773.77,-9.75146197405643e-07
3774.67,-1.0044469339715628e-06
3775.57,-1.021180928082434e-06
3776.47,-1.0351776344086964e-06
3777.37,-1.0482696750608333e-06
3778.27,-1.065249715391309e-06
3779.17,-1.0837925680977963e-06
3780.07,-1.1079508531798212e-06
3780.97,-1.1243341296197626e-06
3781.87,-1.1461535408411054e-06
3782.77,-1.1587483716446974e-06
3783.67,-1.1572562982211067e-06
3784.57,-1.143455756510637e-06
3785.47,-1.1076207991199415e-06
3786.38,-1.0690952653348808e-06
3787.28,-1.0284934434147059e-06
3788.18,-9.846712408499734e-07
3789.08,-9.571660034100645e-07
3789.98,-9.413199048691074e-07
3790.88,-9.380181951707903e-07
3791.78,-9.399256575538566e-07
3792.68,-9.394690746656105e-07
3793.58,-9.248551685741824e-07
3794.48,-9.090376564559337e-07
3795.38,-8.848092749278156e-07
3796.28,-8.571383193283767e-07
3797.18,-8.37799892133935e-07
3798.08,-8.230383142770548e-07
3798.98,-8.279238079897021e-07
3799.88,-8.522582275374797e-07
3800.78,-8.994906403362466e-07
3801.68,-9.615146356737811e-07
3802.58,-1.034467724482711e-06
3803.48,-1.0927550533087592e-06
3804.38,-1.1350465293086241e-06
3805.28,-1.155376765839828e-06
3806.18,-1.1616892291740907e-06
3807.08,-1.158048479800344e-06
3807.98,-1.1531946502423746e-06
3808.88,-1.1621215464758816e-06
3809.78,-1.1674109927807773e-06
3810.68,-1.1767395706175273e-06
3811.58,-1.1683665104296504e-06
3812.48,-1.14737994499283e-06
3813.38,-1.1050201669171276e-06
3814.28,-1.0522277871800959e-06
3815.18,-1.001303990310525e-06
3816.08,-9.694970666992366e-07
3816.98,-9.512576224313083e-07
3817.88,-9.411713578852487e-07
3818.78,-9.323013467438535e-07
3819.68,-9.209487281383983e-07
3820.58,-9.064758640410924e-07
3821.48,-8.87293836481349e-07
3822.38,-8.762783974747835e-07
3823.28,-8.65305914178189e-07
3824.18,-8.481535059338809e-07
3825.09,-8.246578116981053e-07
3825.99,-7.956448951647048e-07
3826.89,-7.703801980914458e-07
3827.79,-7.574179659034232e-07
3828.69,-7.56417232562251e-07
3829.59,-7.553821744161544e-07
3830.49,-7.56510540488972e-07
3831.39,-7.495069491663298e-07
3832.29,-7.308097724753314e-07
3833.19,-7.149742566581371e-07
3834.09,-6.980933869374622e-07
3834.99,-6.939618064914899e-07
3835.89,-6.953809390889129e-07
3836.79,-7.019979598122948e-07
3837.69,-7.102469407470789e-07
3838.59,-7.169832878862721e-07
3839.49,-7.352345340004981e-07
3840.39,-7.683142889552181e-07
3841.29,-8.202331809459766e-07
3842.19,-8.892692489846226e-07
3843.09,-9.643656069599922e-07
3843.99,-1.0385407777988561e-06
3844.89,-1.1045617360851515e-06
3845.79,-1.1466388111727124e-06
3846.69,-1.1770558835268262e-06
3847.59,-1.1936189881440468e-06
3848.49,-1.1990138290476818e-06
3849.39,-1.194470122447921e-06
3850.29,-1.1920617895113453e-06
3851.19,-1.1898161222695615e-06
3852.09,-1.1886651091914622e-06
3852.99,-1.1945412623269815e-06
3853.89,-1.1897108764401112e-06
3854.79,-1.1781096964771684e-06
3855.69,-1.1511171701817622e-06
3856.59,-1.1165167993489533e-06
3857.49,-1.0758330658849827e-06
3858.39,-1.0406004930802104e-06
3859.29,-1.016164479906322e-06
3860.19,-1.0117674068231165e-06
3861.09,-1.0328378109294558e-06
3861.99,-1.0786398780579866e-06
3862.9,-1.1405231148195223e-06
3863.8,-1.1931378560347416e-06
3864.7,-1.2381815377987164e-06
3865.6,-1.2649020630818053e-06
3866.5,-1.2717577018590907e-06
3867.4,-1.2667756425006357e-06
3868.3,-1.2521269274046393e-06
3869.2,-1.2326065261026121e-06
3870.1,-1.2026054668920956e-06
3871.0,-1.1685507659219464e-06
3871.9,-1.1427304095183788e-06
3872.8,-1.130727801057601e-06
3873.7,-1.138751374111687e-06
3874.6,-1.1605559167148974e-06
3875.5,-1.1899819704650324e-06
3876.4,-1.2100895133771489e-06
3877.3,-1.2160386777224775e-06
3878.2,-1.2019054897980865e-06
3879.1,-1.1927483526654919e-06
3880.0,-1.1809448171892905e-06
3880.9,-1.1842101863861658e-06
3881.8,-1.18394417351964e-06
3882.7,-1.19322759222296e-06
3883.6,-1.1973022458568348e-06
3884.5,-1.187911783881862e-06
3885.4,-1.1672053454849882e-06
3886.3,-1.143590444547844e-06
3887.2,-1.1197979973112047e-06
3888.1,-1.1070252654399004e-06
3889.0,-1.111127376765199e-06
3889.9,-1.1435491336763577e-06
3890.8,-1.1943724083312352e-06
3891.7,-1.2627864400186552e-06
3892.6,-1.3247691449284414e-06
3893.5,-1.3821234493680588e-06
3894.4,-1.4115806583083798e-06
3895.3,-1.4331811433976345e-06
3896.2,-1.4515295375557642e-06
3897.1,-1.4632153903686547e-06
3898.0,-1.481020443439868e-06
3898.9,-1.4967501516072832e-06
3899.8,-1.493692097795427e-06
3900.7,-1.4983207103559754e-06
3901.6,-1.5066164169345153e-06
3902.51,-1.5029898758659189e-06
3903.41,-1.4866446129081795e-06
3904.31,-1.472385082427145e-06
3905.21,-1.4650044845786793e-06
3906.11,-1.4677080865084564e-06
3907.01,-1.4903413632315042e-06
3907.91,-1.5346503171917492e-06
3908.81,-1.5899851506739066e-06
3909.71,-1.6478922699268568e-06
3910.61,-1.7005680586606163e-06
3911.51,-1.7417750235252203e-06
3912.41,-1.7859427406690905e-06
3913.31,-1.7878429387667473e-06
3914.21,-1.7909592295009856e-06
3915.11,-1.7812469830784808e-06
3916.01,-1.753073126056224e-06
3916.91,-1.7273278554608786e-06
3917.81,-1.6867669436986755e-06
3918.71,-1.6484210671372761e-06
3919.61,-1.5975764088755256e-06
3920.51,-1.5515135072300974e-06
3921.41,-1.5089662899453786e-06
3922.31,-1.4784199083411716e-06
3923.21,-1.459796240939209e-06
3924.11,-1.4421659012391875e-06
3925.01,-1.4171671002474518e-06
3925.91,-1.3723122822973605e-06
3926.81,-1.306070262040944e-06
3927.71,-1.2093209627465389e-06
3928.61,-1.0908846477414557e-06
3929.51,-9.71862137209973e-07
3930.41,-8.491786091147477e-07
3931.31,-7.349526355289177e-07
3932.21,-6.372591499073857e-07
3933.11,-5.642062230962704e-07
3934.01,-5.246839179421747e-07
3934.91,-5.239822477630332e-07
3935.81,-5.589192252211979e-07
3936.71,-6.314974967606292e-07
3937.61,-7.357980622711266e-07
3938.51,-8.574126573643072e-07
3939.42,-9.829328304410287e-07
3940.32,-1.1018991102605668e-06
3941.22,-1.2010127941977676e-06
3942.12,-1.2856786227202637e-06
3943.02,-1.3496674798172708e-06
3943.92,-1.4110409041538727e-06
3944.82,-1.473033245498984e-06
3945.72,-1.5442725553025666e-06
3946.62,-1.621545539880531e-06
3947.52,-1.6905867335530054e-06
3948.42,-1.7600219278269855e-06
3949.32,-1.8192876240736693e-06
3950.22,-1.8672044795265052e-06
3951.12,-1.9083258609787387e-06
3952.02,-1.9396451077244413e-06
3952.92,-1.9733990336658943e-06
3953.82,-1.9859218642183427e-06
3954.72,-1.994487521164008e-06
3955.62,-1.9878432339954503e-06
3956.52,-1.9887006596522544e-06
3957.42,-1.9673294327098155e-06
3958.32,-1.940150024997481e-06
3959.22,-1.8975283922207416e-06
3960.12,-1.8293557636664666e-06
3961.02,-1.7407518815401736e-06
3961.92,-1.6232557522511827e-06
3962.82,-1.5028628021602309e-06
3963.72,-1.3735669933983086e-06
3964.62,-1.2479042918204365e-06
3965.52,-1.1124047969202545e-06
3966.42,-9.88512663795384e-07
3967.32,-8.71778580165908e-07
3968.22,-7.745144209326532e-07
3969.12,-7.215748528269275e-07
3970.02,-7.178495458705227e-07
3970.92,-7.659964195829455e-07
3971.82,-8.688522121769232e-07
3972.72,-9.991969051370008e-07
3973.62,-1.1577878409850905e-06
3974.52,-1.3226312615558506e-06
3975.42,-1.4922996574835783e-06
3976.32,-1.654019180029753e-06
3977.22,-1.8028034671149785e-06
3978.13,-1.9570191678144516e-06
3979.03,-2.08241111093174e-06
3979.93,-2.1879907945686263e-06
3980.83,-2.262101373500358e-06
3981.73,-2.3155659334139466e-06
3982.63,-2.346458130747867e-06
3983.53,-2.3960457630753797e-06
3984.43,-2.409925996672204e-06
3985.33,-2.448335016979869e-06
3986.23,-2.477032020351202e-06
3987.13,-2.5238613814176123e-06
3988.03,-2.5607728123996125e-06
3988.93,-2.598287601780404e-06
3989.83,-2.641143419937443e-06
3990.73,-2.6866201295617636e-06
3991.63,-2.698029441440223e-06
3992.53,-2.7337737994946976e-06
3993.43,-2.754543417925655e-06
3994.33,-2.7425681663888094e-06
3995.23,-2.7335085368500253e-06
3996.13,-2.71348330556699e-06
3997.03,-2.7068572995202926e-06
3997.93,-2.6912410499497856e-06
3998.83,-2.7302425875025147e-06
3999.73,-2.7651803043730815e-06
4000.63,-2.823454833075601e-06
4001.53,-2.8748836924798055e-06
4002.43,-2.9051817692366906e-06
4003.33,-2.9139409299763693e-06
4004.23,-2.885610661110639e-06
4005.13,-2.8468829920007114e-06
4006.03,-2.81852880310593e-06
4006.93,-2.8090214709928762e-06
4007.83,-2.827361111989855e-06
4008.73,-2.8765512824216892e-06
4009.63,-2.938920649951446e-06
4010.53,-3.009505010999462e-06
4011.43,-3.0662618325025406e-06
4012.33,-3.099456650918593e-06
4013.23,-3.1264146575757494e-06
4014.13,-3.1389164897035495e-06
4015.03,-3.1768875738786384e-06
4015.93,-3.1688314628174004e-06
4016.84,-3.1920238698171024e-06
4017.74,-3.1993489691863046e-06
4018.64,-3.200584628067052e-06
4019.54,-3.2313453907863176e-06
4020.44,-3.2420758291135195e-06
4021.34,-3.260555265093451e-06
4022.24,-3.264762552170382e-06
4023.14,-3.273401397134767e-06
4024.04,-3.2836234642311407e-06
4024.94,-3.2941053211966472e-06
4025.84,-3.327451486970715e-06
4026.74,-3.3587369692608547e-06
4027.64,-3.3748786041274153e-06
4028.54,-3.382056591012386e-06
4029.44,-3.357745168437151e-06
4030.34,-3.290727305308597e-06
4031.24,-3.203632926003623e-06
4032.14,-3.1230457404502047e-06
4033.04,-3.067856115053439e-06
4033.94,-3.07815501382996e-06
4034.84,-3.1062840970431665e-06
4035.74,-3.2133769905563484e-06
4036.64,-3.3343850468890657e-06
4037.54,-3.43421332124703e-06
4038.44,-3.5550150479138544e-06
4039.34,-3.6037786888894027e-06
4040.24,-3.6280924338365674e-06
4041.14,-3.6125955900202215e-06
4042.04,-3.571837992622152e-06
4042.94,-3.477036688470088e-06
4043.84,-3.365606694247339e-06
4044.74,-3.2589324491161965e-06
4045.64,-3.161865743744927e-06
4046.54,-3.1325620138753425e-06
4047.44,-3.1714387013594337e-06
4048.34,-3.2490912543917923e-06
4049.24,-3.392166037824412e-06
4050.14,-3.510512889041723e-06
4051.04,-3.6303295980855548e-06
4051.94,-3.6811338682235615e-06
4052.84,-3.6994611035744674e-06
4053.74,-3.6783195392117403e-06
4054.65,-3.6474661796126137e-06
4055.55,-3.6057956641481547e-06
4056.45,-3.5795490551131695e-06
4057.35,-3.5608634226608883e-06
4058.25,-3.5513207763289073e-06
4059.15,-3.567143746922388e-06
4060.05,-3.5714042252952894e-06
4060.95,-3.5835254102645137e-06
4061.85,-3.563365979490709e-06
4062.75,-3.533594022187822e-06
4063.65,-3.4633717211304884e-06
4064.55,-3.422219255135922e-06
4065.45,-3.438015707683136e-06
4066.35,-3.4704419795339062e-06
4067.25,-3.535753320288516e-06
4068.15,-3.6261982471551275e-06
4069.05,-3.7198142074309004e-06
4069.95,-3.7610618852150303e-06
4070.85,-3.7720406800908674e-06
4071.75,-3.7719759947867255e-06
4072.65,-3.758376975905292e-06
4073.55,-3.745185453844954e-06
4074.45,-3.752121643802042e-06
4075.35,-3.724854205892449e-06
4076.25,-3.6925462886889173e-06
4077.15,-3.639543788180475e-06
4078.05,-3.6280002360411584e-06
4078.95,-3.660762887823261e-06
4079.85,-3.742616112026081e-06
4080.75,-3.856595997692164e-06
4081.65,-3.9537862946918495e-06
4082.55,-4.053775381769562e-06
4083.45,-4.118871178732962e-06
4084.35,-4.1534220292962965e-06
4085.25,-4.183173995630742e-06
4086.15,-4.25673511297426e-06
4087.05,-4.3293475378541245e-06
4087.95,-4.4281475824270935e-06
4088.85,-4.51829300161679e-06
4089.75,-4.589835099617039e-06
4090.65,-4.635803432598494e-06
4091.55,-4.645166250107175e-06
4092.45,-4.617274796832844e-06
4093.36,-4.580188498705392e-06
4094.26,-4.532045396265898e-06
4095.16,-4.459401502471861e-06
4096.06,-4.373259357340315e-06
4096.96,-4.2893971471319236e-06
4097.86,-4.192167340271723e-06
4098.76,-4.072703428753637e-06
4099.66,-3.93487721626017e-06
4100.56,-3.836550002970889e-06
4101.46,-3.726650381914721e-06
4102.36,-3.6794275328325925e-06
4103.26,-3.6993587010496066e-06
4104.16,-3.7787980011784715e-06
4105.06,-3.9541039417973585e-06
4105.96,-4.101535212440477e-06
4106.86,-4.250811238123639e-06
4107.76,-4.379068145670863e-06
4108.66,-4.485185410911388e-06
4109.56,-4.502269037798102e-06
4110.46,-4.559558739765432e-06
4111.36,-4.590342164844831e-06
4112.26,-4.6295520206696445e-06
4113.16,-4.681571547278528e-06
4114.06,-4.75330722111292e-06
4114.96,-4.8347530259596545e-06
4115.86,-4.868617175859684e-06
4116.76,-4.901105502841688e-06
4117.66,-4.8784905754753085e-06
4118.56,-4.8578701958725076e-06
4119.46,-4.861271859578173e-06
4120.36,-4.864964957207525e-06
4121.26,-4.833505045371993e-06
4122.16,-4.8506906881473635e-06
4123.06,-4.867626466492238e-06
4123.96,-4.919475990080051e-06
4124.86,-4.967777882614146e-06
4125.76,-4.973551062932276e-06
4126.66,-5.003534929083855e-06
4127.56,-4.979884906439522e-06
4128.46,-4.964154670223273e-06
4129.36,-4.91467033109358e-06
4130.26,-4.853675272339596e-06
4131.17,-4.794370601848896e-06
4132.06,-4.730633106646425e-06
4132.97,-4.7081048552127105e-06
4133.87,-4.714395056013797e-06
4134.77,-4.7596295693413925e-06
4135.67,-4.868252550602556e-06
4136.57,-4.997672770374926e-06
4137.47,-5.135992356591501e-06
4138.37,-5.270476154542454e-06
4139.27,-5.306283808593605e-06
4140.17,-5.348397193872212e-06
4141.07,-5.279622779306215e-06
4141.97,-5.189807514997129e-06
4142.87,-5.064668770497864e-06
4143.77,-4.9696196099394435e-06
4144.67,-4.918100401450274e-06
4145.57,-4.9407205058467265e-06
4146.47,-5.01423517362432e-06
4147.37,-5.117871162282427e-06
4148.27,-5.185387492597529e-06
4149.17,-5.278968125055986e-06
4150.07,-5.340339948399352e-06
4150.97,-5.3334328471629334e-06
4151.87,-5.327490480191485e-06
4152.77,-5.309341448750793e-06
4153.67,-5.29566238193692e-06
4154.57,-5.288293276695656e-06
4155.47,-5.296297526808994e-06
4156.37,-5.3270563849473585e-06
4157.27,-5.3811657735535e-06
4158.17,-5.467591975355588e-06
4159.07,-5.561124094624656e-06
4159.97,-5.663297243980694e-06
4160.87,-5.752521887066905e-06
4161.77,-5.852623779607744e-06
4162.67,-5.934119459113273e-06
4163.57,-5.935569321207938e-06
4164.47,-5.973469949829574e-06
4165.37,-5.9596215392327926e-06
4166.27,-5.919740738821002e-06
4167.17,-5.902103838812824e-06
4168.07,-5.852566213609063e-06
4168.98,-5.782766099560853e-06
4169.88,-5.7935695343658536e-06
4170.78,-5.690307716945871e-06
4171.68,-5.608863000065224e-06
4172.58,-5.527950566671461e-06
4173.48,-5.466468339922751e-06
4174.38,-5.442801679821246e-06
4175.28,-5.433277923791881e-06
4176.18,-5.4742697303948295e-06
4177.08,-5.566692732152566e-06
4177.98,-5.6612682796770505e-06
4178.88,-5.762738938993965e-06
4179.78,-5.82733530196188e-06
4180.68,-5.879242024327018e-06
4181.58,-5.958888926722752e-06
4182.48,-5.97038903993847e-06
4183.38,-6.013943397652507e-06
4184.28,-6.042066866471927e-06
4185.18,-6.054597362804968e-06
4186.08,-6.035185964427071e-06
4186.98,-6.029788359510358e-06
4187.88,-6.051997803421763e-06
4188.78,-6.039953492555186e-06
4189.68,-6.1081817244007495e-06
4190.58,-6.132767279808257e-06
4191.48,-6.221501902431511e-06
4192.38,-6.3340100015496795e-06
4193.28,-6.3856620519578784e-06
4194.18,-6.388759882043929e-06
4195.08,-6.41569387327826e-06
4195.98,-6.32418656447183e-06
4196.88,-6.24631662601407e-06
4197.78,-6.110255273083581e-06
4198.68,-6.0471019760663765e-06
4199.58,-5.9898372558911015e-06
4200.48,-5.959489718996013e-06
4201.38,-5.955915159635559e-06
4202.28,-6.0233436355089774e-06
4203.18,-6.111071487977762e-06
4204.08,-6.210199021609211e-06
4204.98,-6.3704804942107215e-06
4205.88,-6.513908598351275e-06
4206.79,-6.637928726279831e-06
4207.69,-6.778338109797649e-06
4208.59,-6.897586372480874e-06
4209.49,-6.995445585323555e-06
4210.39,-7.035664932867818e-06
4211.29,-7.073862036858926e-06
4212.19,-7.062990490305893e-06
4213.09,-7.0551126785675706e-06
4213.99,-7.013728671485332e-06
4214.89,-6.972429366589318e-06
4215.79,-6.9294003488149195e-06
4216.69,-6.906503886438039e-06
4217.59,-6.99818537107401e-06
4218.49,-7.075293309821445e-06
4219.39,-7.192029498908223e-06
4220.29,-7.291024742962245e-06
4221.19,-7.318733064131422e-06
4222.09,-7.226902488280532e-06
4222.99,-7.1446203812127835e-06
4223.89,-6.860516493948383e-06
4224.79,-6.499496049937729e-06
4225.69,-6.2090320552786706e-06
4226.59,-5.939653620513582e-06
4227.49,-5.862814187536262e-06
4228.39,-5.976760740113299e-06
4229.29,-6.206894548082523e-06
4230.19,-6.508787006427437e-06
4231.09,-6.853770611052634e-06
4231.99,-7.138690209904698e-06
4232.89,-7.272519493782568e-06
4233.79,-7.321407904894179e-06
4234.69,-7.3240780116081585e-06
4235.59,-7.257933356826242e-06
4236.49,-7.268613385041267e-06
4237.39,-7.280774064177876e-06
4238.29,-7.287978096456979e-06
4239.19,-7.359417196229716e-06
4240.09,-7.456285746881343e-06
4240.99,-7.598423187924763e-06
4241.89,-7.75257623167679e-06
4242.79,-7.874904121225122e-06
4243.69,-8.027440637954423e-06
4244.59,-8.066972563540652e-06
4245.5,-8.128989235740062e-06
4246.4,-8.105421670156023e-06
4247.3,-7.957594513096864e-06
4248.2,-7.87832335604015e-06
4249.1,-7.728430931925944e-06
4250.0,-7.633541379791948e-06
4250.9,-7.57755167180688e-06
4251.8,-7.5949372099563e-06
4252.7,-7.642857266674642e-06
4253.6,-7.716893454565952e-06
4254.5,-7.770726434313077e-06
4255.4,-7.850372879366879e-06
4256.3,-7.936375724288889e-06
4257.2,-7.959209298976858e-06
4258.1,-7.997162427061582e-06
4259.0,-7.97868402052127e-06
4259.9,-7.96809907608829e-06
4260.8,-7.926389216032713e-06
4261.7,-7.977498404798681e-06
4262.6,-8.148151746257843e-06
4263.5,-8.318307386650583e-06
4264.4,-8.574470526811749e-06
4265.3,-8.76714087596942e-06
4266.2,-8.896172111266173e-06
4267.1,-8.881198544075088e-06
4268.0,-8.84197252209583e-06
4268.9,-8.608759334545885e-06
4269.8,-8.378250792459178e-06
4270.7,-8.117699644977956e-06
4271.6,-7.859122546915075e-06
4272.5,-7.616785152640263e-06
4273.4,-7.542315181939717e-06
4274.3,-7.579058392865091e-06
4275.2,-7.720178376879747e-06
4276.1,-7.984152729608998e-06
4277.0,-8.256929600098496e-06
