wave,flux
3700.85,-8.56108404428442e-07
3701.75,-8.452279975814151e-07
3702.65,-8.252795041157095e-07
3703.55,-7.78023817238911e-07
3704.45,-7.352221761170351e-07
3705.35,-6.910806786273023e-07
3706.25,-6.624694484353972e-07
3707.15,-6.485767637312922e-07
3708.05,-6.468619006984897e-07
3708.96,-6.582241457926541e-07
3709.86,-6.874725629485105e-07
3710.76,-7.22693891258105e-07
3711.66,-7.647219542935782e-07
3712.56,-8.123750453182915e-07
3713.46,-8.510937724829499e-07
3714.36,-8.858925323589104e-07
3715.26,-9.061351667804777e-07
3716.16,-9.060150645295668e-07
3717.06,-8.839382118577489e-07
3717.96,-8.413810326130519e-07
3718.86,-7.824741905841299e-07
3719.76,-7.170283910943156e-07
3720.66,-6.638982452609101e-07
3721.56,-6.293720797661545e-07
3722.46,-6.229952105932122e-07
3723.36,-6.507558977600345e-07
3724.26,-6.965593493856203e-07
3725.16,-7.451250104288095e-07
3726.06,-7.865116508550427e-07
3726.96,-8.089048100444281e-07
3727.86,-8.211625877414367e-07
3728.76,-8.232003469625979e-07
3729.66,-8.165329114518007e-07
3730.56,-7.975224595823459e-07
3731.46,-7.719656957005048e-07
3732.36,-7.269615179800012e-07
3733.26,-6.722352323133213e-07
3734.16,-6.190629636033828e-07
3735.06,-5.777318139202004e-07
3735.96,-5.585525183994845e-07
3736.86,-5.685025247018799e-07
3737.76,-6.025880157248763e-07
3738.66,-6.593347732089736e-07
3739.56,-7.175603058864734e-07
3740.46,-7.814357433500883e-07
3741.36,-8.143300403170282e-07
3742.26,-8.274418424869647e-07
3743.16,-8.131916450503998e-07
3744.06,-7.809526773648488e-07
3744.96,-7.411978346487121e-07
3745.86,-6.984125295838058e-07
3746.76,-6.583819867631999e-07
3747.67,-6.2646191154339e-07
3748.57,-6.062057147786349e-07
3749.47,-5.990301944060502e-07
3750.37,-6.167580226646809e-07
3751.27,-6.640456128726098e-07
3752.17,-7.293054871330281e-07
3753.07,-8.051830779217256e-07
3753.97,-8.803948345978935e-07
3754.87,-9.294362870790772e-07
3755.77,-9.534991832615833e-07
3756.67,-9.5037525420425e-07
3757.57,-9.171864149567462e-07
3758.47,-8.781037370276513e-07
3759.37,-8.492551602605959e-07
3760.27,-8.336594860267257e-07
3761.17,-8.398570156264536e-07
3762.07,-8.569595544969029e-07
3762.97,-8.751381440829981e-07
3763.87,-8.830032659304207e-07
3764.77,-8.917656755850274e-07
3765.67,-8.95270861459026e-07
3766.57,-8.961319892598928e-07
3767.47,-8.937935921200908e-07
3768.37,-8.916363833728938e-07
3769.27,-8.930793515195675e-07
3770.17,-9.093749040079157e-07
3771.07,-9.219153535213896e-07
3771.97,-9.47968240268403e-07
3772.87,-9.854792851781995e-07
3773.77,-1.0242153089276357e-06
3774.67,-1.0525320383439418e-06
3775.57,-1.0765595995782246e-06
3776.47,-1.0972205379080633e-06
3777.37,-1.1147607062910317e-06
3778.27,-1.1361836753111506e-06
3779.17,-1.1604161576870297e-06
3780.07,-1.189561151687747e-06
3780.97,-1.212537682473993e-06
3781.87,-1.2320114121640912e-06
3782.77,-1.2474626917560432e-06
3783.67,-1.2475695045110216e-06
3784.57,-1.2371222759513059e-06
3785.47,-1.203410323927566e-06
3786.38,-1.1605549419022325e-06
3787.28,-1.110956437575311e-06
3788.18,-1.0688189085336215e-06
3789.08,-1.0347063174838343e-06
3789.98,-1.0232777597567057e-06
3790.88,-1.0093383780777308e-06
3791.78,-1.011064242952852e-06
3792.68,-1.0097634353902953e-06
3793.58,-9.928234195197563e-07
3794.48,-9.703389544687954e-07
3795.38,-9.371703965060391e-07
3796.28,-9.087667752920627e-07
3797.18,-8.825356431277871e-07
3798.08,-8.650266785742218e-07
3798.98,-8.686040587602005e-07
3799.88,-8.953678297423782e-07
3800.78,-9.513635782004781e-07
3801.68,-1.0163573481275015e-06
3802.58,-1.0913929079023101e-06
3803.48,-1.1490858513587345e-06
3804.38,-1.2023109353772918e-06
3805.28,-1.2250530110997733e-06
3806.18,-1.2345156698283275e-06
3807.08,-1.2396447268971805e-06
3807.98,-1.241614220439912e-06
3808.88,-1.2517118250262695e-06
3809.78,-1.2646765486880347e-06
3810.68,-1.272131480532288e-06
3811.58,-1.2693564361830316e-06
3812.48,-1.2461231387832275e-06
3813.38,-1.2041038961391978e-06
3814.28,-1.1585116258381411e-06
3815.18,-1.1051323036910654e-06
3816.08,-1.0747487812936448e-06
3816.98,-1.0523648194908002e-06
3817.88,-1.0480541105093778e-06
3818.78,-1.0462192002520584e-06
3819.68,-1.0332827123354633e-06
3820.58,-1.0205793710200358e-06
3821.48,-1.0032887460693585e-06
3822.38,-9.896174930667115e-07
3823.28,-9.811877843173601e-07
3824.18,-9.632918026658908e-07
3825.09,-9.35877604791093e-07
3825.99,-9.081062016895563e-07
3826.89,-8.823392457113019e-07
3827.79,-8.681149962121643e-07
3828.69,-8.567148224727971e-07
3829.59,-8.60173589592571e-07
3830.49,-8.47939168700479e-07
3831.39,-8.404431118392769e-07
3832.29,-8.208643895128612e-07
3833.19,-7.947459991215965e-07
3834.09,-7.748177740340053e-07
3834.99,-7.59094738435537e-07
3835.89,-7.547939544296622e-07
3836.79,-7.622563629392547e-07
3837.69,-7.766620144964879e-07
3838.59,-7.924075003156567e-07
3839.49,-8.168351795574466e-07
3840.39,-8.51608756715506e-07
3841.29,-9.102174173200593e-07
3842.19,-9.807407959399466e-07
3843.09,-1.0564160651482144e-06
3843.99,-1.1310809762650945e-06
3844.89,-1.1985863067629604e-06
3845.79,-1.2430484429451037e-06
3846.69,-1.2799577411398326e-06
3847.59,-1.2937651299264745e-06
3848.49,-1.3044522769178536e-06
3849.39,-1.3080983425379624e-06
3850.29,-1.3108017583978667e-06
3851.19,-1.3061145428798892e-06
3852.09,-1.3099433862201233e-06
3852.99,-1.316498616230878e-06
3853.89,-1.3172007484506874e-06
3854.79,-1.3009921606911256e-06
3855.69,-1.2805282836651562e-06
3856.59,-1.2535578528824107e-06
3857.49,-1.2172703700962694e-06
3858.39,-1.1856600293688417e-06
3859.29,-1.1623428935061866e-06
3860.19,-1.15787750907656e-06
3861.09,-1.1784525954006914e-06
3861.99,-1.2305092225728127e-06
3862.9,-1.2850756455026912e-06
3863.8,-1.3424530942957741e-06
3864.7,-1.3862451218180823e-06
3865.6,-1.4053848588150336e-06
3866.5,-1.4136495891150174e-06
3867.4,-1.4011252428407345e-06
3868.3,-1.393577554143707e-06
3869.2,-1.3669622882224141e-06
3870.1,-1.343604191828512e-06
3871.0,-1.3041291427487688e-06
3871.9,-1.2826609774429273e-06
3872.8,-1.2694611048853845e-06
3873.7,-1.2734082285570071e-06
3874.6,-1.3051769172062024e-06
3875.5,-1.33806661873018e-06
3876.4,-1.3563046372189256e-06
3877.3,-1.3592859284270126e-06
3878.2,-1.3433568638068987e-06
3879.1,-1.3353320894062825e-06
3880.0,-1.319981621313028e-06
3880.9,-1.3170945997908531e-06
3881.8,-1.320433400780659e-06
3882.7,-1.322045363899957e-06
3883.6,-1.319108610105104e-06
3884.5,-1.2998381424606607e-06
3885.4,-1.279956136074905e-06
3886.3,-1.250865269545964e-06
3887.2,-1.2106229752773973e-06
3888.1,-1.1883024144964788e-06
3889.0,-1.1852471269819218e-06
3889.9,-1.216945722203652e-06
3890.8,-1.263293951395924e-06
3891.7,-1.3421158241009172e-06
3892.6,-1.4194052282352615e-06
3893.5,-1.4784472272754367e-06
3894.4,-1.5296073541732387e-06
3895.3,-1.5582271413036828e-06
3896.2,-1.5789348271983432e-06
3897.1,-1.6047133623852448e-06
3898.0,-1.622514083663877e-06
3898.9,-1.6345044208541145e-06
3899.8,-1.6517619086024563e-06
3900.7,-1.6572298570764053e-06
3901.6,-1.6645669715927224e-06
3902.51,-1.667972626182479e-06
3903.41,-1.6620288774135276e-06
3904.31,-1.64359758666041e-06
3905.21,-1.6330482561035898e-06
3906.11,-1.6326423989627295e-06
3907.01,-1.6501073801289514e-06
3907.91,-1.7026002318603774e-06
3908.81,-1.7598160489141887e-06
3909.71,-1.8272846253419505e-06
3910.61,-1.8899590801429371e-06
3911.51,-1.9295312621871447e-06
3912.41,-1.96496096306895e-06
3913.31,-1.976126966213439e-06
3914.21,-1.9676302161234592e-06
3915.11,-1.9627206728068348e-06
3916.01,-1.939009814100919e-06
3916.91,-1.9086529712647294e-06
3917.81,-1.8727833398166299e-06
3918.71,-1.831677937588135e-06
3919.61,-1.786817553150128e-06
3920.51,-1.7369652666810145e-06
3921.41,-1.7017251580685118e-06
3922.31,-1.670001114239631e-06
3923.21,-1.6562928785823956e-06
3924.11,-1.640494446664335e-06
3925.01,-1.610143299181279e-06
3925.91,-1.5620982716677072e-06
3926.81,-1.4915039823589417e-06
3927.71,-1.3858225791516394e-06
3928.61,-1.2631794937295697e-06
3929.51,-1.123569083191855e-06
3930.41,-9.892313547091589e-07
3931.31,-8.560980373099328e-07
3932.21,-7.45801280460604e-07
3933.11,-6.587814613981045e-07
3934.01,-6.132588489986768e-07
3934.91,-6.0693854245871e-07
3935.81,-6.504363751001775e-07
3936.71,-7.365570873481994e-07
3937.61,-8.52890630614935e-07
3938.51,-9.90955094181298e-07
3939.42,-1.1412455943843552e-06
3940.32,-1.2738795037364942e-06
3941.22,-1.3866945953494862e-06
3942.12,-1.4748790187799814e-06
3943.02,-1.5396208079105905e-06
3943.92,-1.6041552729259082e-06
3944.82,-1.668716596263027e-06
3945.72,-1.735210319180455e-06
3946.62,-1.8133356159124402e-06
3947.52,-1.8955238366517632e-06
3948.42,-1.961243119510191e-06
3949.32,-2.0131145898518125e-06
3950.22,-2.0817475061192284e-06
3951.12,-2.1232307393907495e-06
3952.02,-2.1465660990957946e-06
3952.92,-2.175524116822507e-06
3953.82,-2.1888387309811363e-06
3954.72,-2.1968104904815336e-06
3955.62,-2.1921167594672095e-06
3956.52,-2.188736377595124e-06
3957.42,-2.168945096605361e-06
3958.32,-2.148516175805561e-06
3959.22,-2.103233275431155e-06
3960.12,-2.0349947592278774e-06
3961.02,-1.9394451191410965e-06
3961.92,-1.826283547462705e-06
3962.82,-1.6901687049725894e-06
3963.72,-1.5554778582953237e-06
3964.62,-1.4137097565536126e-06
3965.52,-1.2750933296686943e-06
3966.42,-1.128647392028754e-06
3967.32,-9.96989124578533e-07
3968.22,-8.844558710512472e-07
3969.12,-8.217774989215233e-07
3970.02,-8.132417719554519e-07
3970.92,-8.678253069255942e-07
3971.82,-9.700349558633778e-07
3972.72,-1.1191107899203327e-06
3973.62,-1.2917655224905805e-06
3974.52,-1.4736539398713626e-06
3975.42,-1.6521511618623763e-06
3976.32,-1.826585674213648e-06
3977.22,-1.987355390739181e-06
3978.13,-2.1463893250352595e-06
3979.03,-2.2735955489274804e-06
3979.93,-2.386030727359988e-06
3980.83,-2.4769657531345596e-06
3981.73,-2.5304176058447796e-06
3982.63,-2.571060225112632e-06
3983.53,-2.5915798053513567e-06
3984.43,-2.6297670149844524e-06
3985.33,-2.661753281372043e-06
3986.23,-2.6903561338012027e-06
3987.13,-2.741376563149576e-06
3988.03,-2.7827693372550843e-06
3988.93,-2.8433421230054278e-06
3989.83,-2.8761135384806265e-06
3990.73,-2.905309725005362e-06
3991.63,-2.930617093767191e-06
3992.53,-2.95983934236064e-06
3993.43,-2.9722250326384717e-06
3994.33,-2.9917085069841975e-06
3995.23,-2.9852824347559287e-06
3996.13,-2.9691491555560384e-06
3997.03,-2.9497599597462744e-06
3997.93,-2.9389270257268153e-06
3998.83,-2.9838213537158466e-06
3999.73,-3.0230868095887174e-06
4000.63,-3.091525072436768e-06
4001.53,-3.1527114225305933e-06
4002.43,-3.185558787696115e-06
4003.33,-3.1860169095446836e-06
4004.23,-3.147506211660533e-06
4005.13,-3.1217475083426935e-06
4006.03,-3.078185124683908e-06
4006.93,-3.0497814867184576e-06
4007.83,-3.0812909301815115e-06
4008.73,-3.12912534900025e-06
4009.63,-3.2044391331222033e-06
4010.53,-3.2515720781739667e-06
4011.43,-3.3368232871761374e-06
4012.33,-3.3790675943184475e-06
4013.23,-3.40228162340062e-06
4014.13,-3.4173077108982307e-06
4015.03,-3.4561854787292197e-06
4015.93,-3.4785627200608677e-06
4016.84,-3.490350389434019e-06
4017.74,-3.5025184011335645e-06
4018.64,-3.5113578893570515e-06
4019.54,-3.5454677932058736e-06
4020.44,-3.5652489592570483e-06
4021.34,-3.5704087337946283e-06
4022.24,-3.5856717725082044e-06
4023.14,-3.5877494955107444e-06
4024.04,-3.5966907804741917e-06
4024.94,-3.616954476642762e-06
4025.84,-3.6253539227885843e-06
4026.74,-3.6546183801050277e-06
4027.64,-3.6910080337904682e-06
4028.54,-3.6808782749056594e-06
4029.44,-3.651042713377343e-06
4030.34,-3.581321218739547e-06
4031.24,-3.4833647559911096e-06
4032.14,-3.3824959814325284e-06
4033.04,-3.3311679620339275e-06
4033.94,-3.328725958968032e-06
4034.84,-3.373041625607675e-06
4035.74,-3.4728797651943136e-06
4036.64,-3.59426409142318e-06
4037.54,-3.7457676786065205e-06
4038.44,-3.8376379183122706e-06
4039.34,-3.91074482213042e-06
4040.24,-3.943202626564619e-06
4041.14,-3.9317916774353025e-06
4042.04,-3.881256308628894e-06
4042.94,-3.7942297775807825e-06
4043.84,-3.664823008063297e-06
4044.74,-3.564514803757773e-06
4045.64,-3.46352695489491e-06
4046.54,-3.4169235829658556e-06
4047.44,-3.46484107301347e-06
4048.34,-3.568632245833434e-06
4049.24,-3.6997527346538705e-06
4050.14,-3.828256242645505e-06
4051.04,-3.938788574943431e-06
4051.94,-3.997312481959907e-06
4052.84,-4.015278475314292e-06
4053.74,-3.988291926699541e-06
4054.65,-3.935419360443758e-06
4055.55,-3.881323841642178e-06
4056.45,-3.843872822538342e-06
4057.35,-3.817064788676204e-06
4058.25,-3.824154401304944e-06
4059.15,-3.8321420578791225e-06
4060.05,-3.8531313511207635e-06
4060.95,-3.853879699677413e-06
4061.85,-3.8323988690458736e-06
4062.75,-3.7969135064264863e-06
4063.65,-3.7328720916284103e-06
4064.55,-3.699473139968673e-06
4065.45,-3.701733597661454e-06
4066.35,-3.7525584269466233e-06
4067.25,-3.8137215104348742e-06
4068.15,-3.940267435184116e-06
4069.05,-4.00421211631307e-06
4069.95,-4.0613489783242535e-06
4070.85,-4.079798323345936e-06
4071.75,-4.069384717083521e-06
4072.65,-4.053094647565698e-06
4073.55,-4.048240414314488e-06
4074.45,-4.052873669511083e-06
4075.35,-4.0276088663197346e-06
4076.25,-3.985732060743362e-06
4077.15,-3.945625152432783e-06
4078.05,-3.924203466973939e-06
4078.95,-3.947746966429069e-06
4079.85,-4.036191233758426e-06
4080.75,-4.156239675674411e-06
4081.65,-4.263767206797e-06
4082.55,-4.383735605293431e-06
4083.45,-4.438234522449395e-06
4084.35,-4.494411307162954e-06
4085.25,-4.501412189297239e-06
4086.15,-4.571381986410903e-06
4087.05,-4.628038041093025e-06
4087.95,-4.7281316242910406e-06
4088.85,-4.820943120178151e-06
4089.75,-4.876875736758835e-06
4090.65,-4.93015087621686e-06
4091.55,-4.926292248906145e-06
4092.45,-4.889945147725809e-06
4093.36,-4.8597136047282646e-06
4094.26,-4.7793007425548325e-06
4095.16,-4.695884810619192e-06
4096.06,-4.590377677948579e-06
4096.96,-4.469479384435786e-06
4097.86,-4.36243313007374e-06
4098.76,-4.2306737963841974e-06
4099.66,-4.089780158055776e-06
4100.56,-3.939458933757496e-06
4101.46,-3.856151761663148e-06
4102.36,-3.7967422697247742e-06
4103.26,-3.816232719547524e-06
4104.16,-3.9250218900515344e-06
4105.06,-4.077258401704442e-06
4105.96,-4.275265816626174e-06
4106.86,-4.469278165263503e-06
4107.76,-4.592350518448179e-06
4108.66,-4.717475289837901e-06
4109.56,-4.775618350836722e-06
4110.46,-4.821060664085487e-06
4111.36,-4.8536734863145715e-06
4112.26,-4.8978670089443535e-06
4113.16,-4.975138676243904e-06
4114.06,-5.035327091155364e-06
4114.96,-5.121961861747938e-06
4115.86,-5.1849128128704e-06
4116.76,-5.239261750587905e-06
4117.66,-5.226282175481391e-06
4118.56,-5.211622756500225e-06
4119.46,-5.183770205105521e-06
4120.36,-5.16566321299541e-06
4121.26,-5.1438234355266234e-06
4122.16,-5.151936335038362e-06
4123.06,-5.176635767974086e-06
4123.96,-5.235400777274325e-06
4124.86,-5.278945375545785e-06
4125.76,-5.308246106643973e-06
4126.66,-5.313392421191012e-06
4127.56,-5.308951254462738e-06
4128.46,-5.266703072996419e-06
4129.36,-5.253024104488177e-06
4130.26,-5.187410372635348e-06
4131.17,-5.121032503178092e-06
4132.06,-5.064199586231865e-06
4132.97,-5.043355648716932e-06
4133.87,-5.054094757988557e-06
4134.77,-5.122446900285838e-06
4135.67,-5.223392655539111e-06
4136.57,-5.343826560818527e-06
4137.47,-5.492693760262443e-06
4138.37,-5.604550402340578e-06
4139.27,-5.684492177526747e-06
4140.17,-5.694683885670926e-06
4141.07,-5.6713291494807395e-06
4141.97,-5.579691284654121e-06
4142.87,-5.46782660948537e-06
4143.77,-5.352483139137301e-06
4144.67,-5.306766996195338e-06
4145.57,-5.315544251345759e-06
4146.47,-5.400656079889791e-06
4147.37,-5.47279353078098e-06
4148.27,-5.59413748652758e-06
4149.17,-5.632965352562854e-06
4150.07,-5.659354794697586e-06
4150.97,-5.664219509848025e-06
4151.87,-5.6683119577891404e-06
4152.77,-5.649827627968997e-06
4153.67,-5.6384507913705585e-06
4154.57,-5.633245987275165e-06
4155.47,-5.6294678534908685e-06
4156.37,-5.6403381642529155e-06
4157.27,-5.7174865689555034e-06
4158.17,-5.790503601368873e-06
4159.07,-5.886287091750081e-06
4159.97,-5.997087307012019e-06
4160.87,-6.099287111946284e-06
4161.77,-6.203164524282193e-06
4162.67,-6.292085388427797e-06
4163.57,-6.350492149888051e-06
4164.47,-6.364185948779907e-06
4165.37,-6.376858338852284e-06
4166.27,-6.334434696535157e-06
4167.17,-6.283715550449034e-06
4168.07,-6.244798042289496e-06
4168.98,-6.2055193122843565e-06
4169.88,-6.124488826500342e-06
4170.78,-6.083082828674405e-06
4171.68,-6.01548246059705e-06
4172.58,-5.9149341196528e-06
4173.48,-5.82989591247458e-06
4174.38,-5.775493482720936e-06
4175.28,-5.784257746343068e-06
4176.18,-5.827536744319846e-06
4177.08,-5.91585838350282e-06
4177.98,-5.98514876534053e-06
4178.88,-6.073955199677406e-06
4179.78,-6.166370342385327e-06
4180.68,-6.211150276771272e-06
4181.58,-6.268202433305513e-06
4182.48,-6.344949572709863e-06
4183.38,-6.387527996026754e-06
4184.28,-6.429206275007436e-06
4185.18,-6.450691833047365e-06
4186.08,-6.474252029218724e-06
4186.98,-6.475352035713042e-06
4187.88,-6.465217963829243e-06
4188.78,-6.511013577982559e-06
4189.68,-6.546096987556944e-06
4190.58,-6.63144624922969e-06
4191.48,-6.712383251589595e-06
4192.38,-6.811309063822384e-06
4193.28,-6.845319062050733e-06
4194.18,-6.888596835483921e-06
4195.08,-6.855209685274566e-06
4195.98,-6.799639022969133e-06
4196.88,-6.666766984500686e-06
4197.78,-6.571002242895602e-06
4198.68,-6.447010912333779e-06
4199.58,-6.400332376939228e-06
4200.48,-6.374018271957911e-06
4201.38,-6.414175421605305e-06
4202.28,-6.474543333693134e-06
4203.18,-6.575096046238381e-06
4204.08,-6.652183210059331e-06
4204.98,-6.851906532430732e-06
4205.88,-7.003495721400043e-06
4206.79,-7.123673020826008e-06
4207.69,-7.286119495328644e-06
4208.59,-7.407403440477525e-06
4209.49,-7.501730751117809e-06
4210.39,-7.57944494557129e-06
4211.29,-7.581370974508639e-06
4212.19,-7.581340312216529e-06
4213.09,-7.542989010142568e-06
4213.99,-7.516654631957654e-06
4214.89,-7.480823909956135e-06
4215.79,-7.437952336217362e-06
4216.69,-7.437326533536448e-06
4217.59,-7.531504185197649e-06
4218.49,-7.6256230635263435e-06
4219.39,-7.765030520722052e-06
4220.29,-7.930700147785142e-06
4221.19,-7.969903044900601e-06
4222.09,-7.886526835322931e-06
4222.99,-7.696678975725968e-06
4223.89,-7.469788382036834e-06
4224.79,-7.136972437315167e-06
4225.69,-6.75820964592536e-06
4226.59,-6.5229715921443415e-06
4227.49,-6.437484467610918e-06
4228.39,-6.546985908381488e-06
4229.29,-6.784514237741779e-06
4230.19,-7.125407044891141e-06
4231.09,-7.470013046911413e-06
4231.99,-7.766955783389039e-06
4232.89,-7.902628936224688e-06
4233.79,-7.986041669211263e-06
4234.69,-7.965016142412979e-06
4235.59,-7.86881841264513e-06
4236.49,-7.857444684060317e-06
4237.39,-7.843120948523358e-06
4238.29,-7.854786410804764e-06
4239.19,-7.978892144315233e-06
4240.09,-8.073216379276246e-06
4240.99,-8.217521598865995e-06
4241.89,-8.377997885848403e-06
4242.79,-8.562276907590333e-06
4243.69,-8.698930149439313e-06
4244.59,-8.778133233197344e-06
4245.5,-8.830145077942932e-06
4246.4,-8.818995858090376e-06
4247.3,-8.692258921299935e-06
4248.2,-8.574315148510728e-06
4249.1,-8.430282074711591e-06
4250.0,-8.339971953714652e-06
4250.9,-8.283784369062026e-06
4251.8,-8.307767189918228e-06
4252.7,-8.32850354812785e-06
4253.6,-8.388253300460845e-06
4254.5,-8.490789948425864e-06
4255.4,-8.556977574619196e-06
4256.3,-8.598795354353839e-06
4257.2,-8.661522167657809e-06
4258.1,-8.711384571198994e-06
4259.0,-8.69061188672184e-06
4259.9,-8.64029121330263e-06
4260.8,-8.595236183995115e-06
4261.7,-8.687736568244479e-06
4262.6,-8.845050833932278e-06
4263.5,-9.084482865498872e-06
4264.4,-9.335628606984141e-06
4265.3,-9.554276132532232e-06
4266.2,-9.683080372688877e-06
4267.1,-9.724578881393789e-06
4268.0,-9.63771428084378e-06
4268.9,-9.399381667821892e-06
4269.8,-9.140986123559264e-06
4270.7,-8.799917146678683e-06
4271.6,-8.54680558899926e-06
4272.5,-8.321372212113104e-06
4273.4,-8.262154101388435e-06
4274.3,-8.275402612067554e-06
4275.2,-8.450961693949775e-06
4276.1,-8.708551701693562e-06
4277.0,-9.071084561732477e-06
4277.9,-9.314634065868669e-06
