wave,flux
3700.85,-5.068620542098913e-07
3701.75,-5.035090927706272e-07
3702.65,-4.914525252108742e-07
3703.55,-4.783961019562081e-07
3704.45,-4.61460918420102e-07
3705.35,-4.495803232206387e-07
3706.25,-4.469393591517389e-07
3707.15,-4.494855254811278e-07
3708.05,-4.56747559049168e-07
3708.96,-4.5958234561928397e-07
3709.86,-4.624173356584967e-07
3710.76,-4.632962795167232e-07
3711.66,-4.6631950898861474e-07
3712.56,-4.7301379759011884e-07
3713.46,-4.878657736184367e-07
3714.36,-5.047665108630818e-07
3715.26,-5.246646196912019e-07
3716.16,-5.35269305261979e-07
3717.06,-5.429311066305803e-07
3717.96,-5.368860826029432e-07
3718.86,-5.172228120865876e-07
3719.76,-4.909302600988605e-07
3720.66,-4.6471308878767115e-07
3721.56,-4.398417431021377e-07
3722.46,-4.321088787348046e-07
3723.36,-4.422659508187376e-07
3724.26,-4.6142558188414123e-07
3725.16,-4.900996485541655e-07
3726.06,-5.186564467827296e-07
3726.96,-5.42726735831108e-07
3727.86,-5.543678097733886e-07
3728.76,-5.61610464571206e-07
3729.66,-5.572706062749195e-07
3730.56,-5.443716574092339e-07
3731.46,-5.23250608769091e-07
3732.36,-4.912220020256139e-07
3733.26,-4.558128107733419e-07
3734.16,-4.2806064669567504e-07
3735.06,-4.085342324573283e-07
3735.96,-4.0772831776978825e-07
3736.86,-4.2369775212219383e-07
3737.76,-4.5568785399807466e-07
3738.66,-4.94867346963834e-07
3739.56,-5.355180287684927e-07
3740.46,-5.692709921657933e-07
3741.36,-5.965659782352138e-07
3742.26,-6.068955082684475e-07
3743.16,-6.044282987028789e-07
3744.06,-5.925616516333101e-07
3744.96,-5.721479667027036e-07
3745.86,-5.435309107661838e-07
3746.76,-5.115351443292539e-07
3747.67,-4.803127687060669e-07
3748.57,-4.5030292348064976e-07
3749.47,-4.2536968895232887e-07
3750.37,-4.179755890445209e-07
3751.27,-4.273689151386508e-07
3752.17,-4.512346446104048e-07
3753.07,-4.932063786202429e-07
3753.97,-5.334182463260229e-07
3754.87,-5.762671743326278e-07
3755.77,-6.089719225972882e-07
3756.67,-6.288515661796176e-07
3757.57,-6.392679099307257e-07
3758.47,-6.431719930296939e-07
3759.37,-6.453300872040245e-07
3760.27,-6.468279203686529e-07
3761.17,-6.538884656402743e-07
3762.07,-6.59299366915376e-07
3762.97,-6.608163339197048e-07
3763.87,-6.582829183729724e-07
3764.77,-6.473409467209362e-07
3765.67,-6.32597513191683e-07
3766.57,-6.102117033818729e-07
3767.47,-5.781453411078718e-07
3768.37,-5.477792629904389e-07
3769.27,-5.17823061646436e-07
3770.17,-4.947194011451862e-07
3771.07,-4.8546987190565e-07
3771.97,-4.897849975144867e-07
3772.87,-5.085315024801233e-07
3773.77,-5.382339587694353e-07
3774.67,-5.731286713436509e-07
3775.57,-6.134754444421767e-07
3776.47,-6.487780017218385e-07
3777.37,-6.844036270939099e-07
3778.27,-7.213246745727851e-07
3779.17,-7.523978676765263e-07
3780.07,-7.78284422351132e-07
3780.97,-8.076412217721602e-07
3781.87,-8.249645089291706e-07
3782.77,-8.353904779101698e-07
3783.67,-8.43590014034675e-07
3784.57,-8.378539330511773e-07
3785.47,-8.264668562256355e-07
3786.38,-8.17173252863305e-07
3787.28,-7.997402913928944e-07
3788.18,-7.7901995440925e-07
3789.08,-7.619935001784621e-07
3789.98,-7.40489930925951e-07
3790.88,-7.24612019533028e-07
3791.78,-7.036564521765161e-07
3792.68,-6.7320277179538e-07
3793.58,-6.409940822374863e-07
3794.48,-6.017683496259895e-07
3795.38,-5.57437428702826e-07
3796.28,-5.176752534255645e-07
3797.18,-4.862047301387349e-07
3798.08,-4.6506725718696783e-07
3798.98,-4.630912950856078e-07
3799.88,-4.816315776407148e-07
3800.78,-5.158754741685702e-07
3801.68,-5.645662258928474e-07
3802.58,-6.121666221634417e-07
3803.48,-6.588733690283442e-07
3804.38,-7.064911217585864e-07
3805.28,-7.410959242564873e-07
3806.18,-7.693371126128274e-07
3807.08,-7.958791418294175e-07
3807.98,-8.237936374537198e-07
3808.88,-8.428820055653737e-07
3809.78,-8.736448218182269e-07
3810.68,-8.886313653743587e-07
3811.58,-9.048682355507141e-07
3812.48,-9.030762474921472e-07
3813.38,-9.070708943395314e-07
3814.28,-8.985104710495035e-07
3815.18,-8.991462522980183e-07
3816.08,-8.965196969787258e-07
3816.98,-9.048089136479786e-07
3817.88,-9.069332607537776e-07
3818.78,-9.072198173072818e-07
3819.68,-9.054060712215125e-07
3820.58,-8.948697062492701e-07
3821.48,-8.835891229302473e-07
3822.38,-8.68889044722662e-07
3823.28,-8.521469427748839e-07
3824.18,-8.330466274207832e-07
3825.09,-8.093209485877988e-07
3825.99,-7.827914790833658e-07
3826.89,-7.61162436152783e-07
3827.79,-7.343062495378718e-07
3828.69,-7.08060310222235e-07
3829.59,-6.816486422886593e-07
3830.49,-6.505000073162703e-07
3831.39,-6.098138436411521e-07
3832.29,-5.705418554185331e-07
3833.19,-5.30395746368769e-07
3834.09,-4.940742764530531e-07
3834.99,-4.64767400255186e-07
3835.89,-4.502618566085183e-07
3836.79,-4.502116107267453e-07
3837.69,-4.657526042036394e-07
3838.59,-4.959894419017244e-07
3839.49,-5.356397913119742e-07
3840.39,-5.811432189615962e-07
3841.29,-6.319143891630555e-07
3842.19,-6.837001566196287e-07
3843.09,-7.330193820288787e-07
3843.99,-7.81026110194999e-07
3844.89,-8.206772651954553e-07
3845.79,-8.562348550042784e-07
3846.69,-8.892226361673239e-07
3847.59,-9.140553657572489e-07
3848.49,-9.346387037940908e-07
3849.39,-9.54896668320697e-07
3850.29,-9.73708904330637e-07
3851.19,-9.944849859158783e-07
3852.09,-1.0094862050647557e-06
3852.99,-1.025858532199715e-06
3853.89,-1.0359500942120307e-06
3854.79,-1.040006758292138e-06
3855.69,-1.0425154181824687e-06
3856.59,-1.0450825620684964e-06
3857.49,-1.0464711070678255e-06
3858.39,-1.0462998864971756e-06
3859.29,-1.048391811565553e-06
3860.19,-1.0513512605317262e-06
3861.09,-1.0594510870643668e-06
3861.99,-1.0751985480006968e-06
3862.9,-1.084549186559509e-06
3863.8,-1.0956422400337162e-06
3864.7,-1.1069774176264957e-06
3865.6,-1.10289771801348e-06
3866.5,-1.1139391327492016e-06
3867.4,-1.108820166019166e-06
3868.3,-1.1086528474317393e-06
3869.2,-1.1028576455546893e-06
3870.1,-1.0987429032158139e-06
3871.0,-1.084049962659107e-06
3871.9,-1.0699241603312603e-06
3872.8,-1.053074635487982e-06
3873.7,-1.045689958392402e-06
3874.6,-1.0294298463799732e-06
3875.5,-1.0178116997300929e-06
3876.4,-1.0068818284506586e-06
3877.3,-9.884169428527798e-07
3878.2,-9.571948509241916e-07
3879.1,-9.339217709416507e-07
3880.0,-9.086535605891671e-07
3880.9,-8.832136625666663e-07
3881.8,-8.639878883904017e-07
3882.7,-8.36987413725635e-07
3883.6,-8.034650116608627e-07
3884.5,-7.638992058974373e-07
3885.4,-7.201657412139835e-07
3886.3,-6.71356153807968e-07
3887.2,-6.231013612621519e-07
3888.1,-5.846986496118707e-07
3889.0,-5.583695689780866e-07
3889.9,-5.506286657442836e-07
3890.8,-5.649193645558605e-07
3891.7,-5.97657448629528e-07
3892.6,-6.422449415274916e-07
3893.5,-6.894188428824431e-07
3894.4,-7.324693395453991e-07
3895.3,-7.769213472531179e-07
3896.2,-8.183652922613232e-07
3897.1,-8.546371491005204e-07
3898.0,-8.884413775870661e-07
3898.9,-9.153389076563697e-07
3899.8,-9.442327218874752e-07
3900.7,-9.643697130915767e-07
3901.6,-9.918494453646418e-07
3902.51,-1.016838810460255e-06
3903.41,-1.0330744276354407e-06
3904.31,-1.0496335339937787e-06
3905.21,-1.0639399945563517e-06
3906.11,-1.0794261161020114e-06
3907.01,-1.0936849152839344e-06
3907.91,-1.1226329764849128e-06
3908.81,-1.1505553801956299e-06
3909.71,-1.1735306428024975e-06
3910.61,-1.1920024494689533e-06
3911.51,-1.2128847360696132e-06
3912.41,-1.2239282739656629e-06
3913.31,-1.2341863289229501e-06
3914.21,-1.2304996597146149e-06
3915.11,-1.229239926919062e-06
3916.01,-1.2318101341406616e-06
3916.91,-1.2281613906067253e-06
3917.81,-1.2284625065900788e-06
3918.71,-1.2234572589827253e-06
3919.61,-1.2279536126270153e-06
3920.51,-1.2231083376901458e-06
3921.41,-1.2278462981778127e-06
3922.31,-1.2375151963270344e-06
3923.21,-1.2365308947143293e-06
3924.11,-1.235014320969282e-06
3925.01,-1.2359032569950806e-06
3925.91,-1.2293171775415598e-06
3926.81,-1.211280639712427e-06
3927.71,-1.1868269900570437e-06
3928.61,-1.148903244887861e-06
3929.51,-1.0952726895520976e-06
3930.41,-1.0340509993972593e-06
3931.31,-9.665747065457435e-07
3932.21,-8.94780392456526e-07
3933.11,-8.345206617053049e-07
3934.01,-7.944054691778084e-07
3934.91,-7.884475481382791e-07
3935.81,-8.14324517611543e-07
3936.71,-8.707775041999118e-07
3937.61,-9.363331738424047e-07
3938.51,-1.0137177789463328e-06
3939.42,-1.0805139058577935e-06
3940.32,-1.1337748421458583e-06
3941.22,-1.1695001295653478e-06
3942.12,-1.197129799815333e-06
3943.02,-1.2079025740085763e-06
3943.92,-1.2155043471010163e-06
3944.82,-1.2220967985266655e-06
3945.72,-1.229489400358436e-06
3946.62,-1.228245355451234e-06
3947.52,-1.2348727506103892e-06
3948.42,-1.2304145650221028e-06
3949.32,-1.2368755122666363e-06
3950.22,-1.2339262088150076e-06
3951.12,-1.225733059404421e-06
3952.02,-1.2250154810355325e-06
3952.92,-1.2134937711651287e-06
3953.82,-1.2107407048705324e-06
3954.72,-1.197764253715364e-06
3955.62,-1.1820603928427651e-06
3956.52,-1.163190077984053e-06
3957.42,-1.1491841675985812e-06
3958.32,-1.1266608799693278e-06
3959.22,-1.0996510359823598e-06
3960.12,-1.0680768509134978e-06
3961.02,-1.0322303252876793e-06
3961.92,-9.843757363340553e-07
3962.82,-9.338071379893657e-07
3963.72,-8.804529461477296e-07
3964.62,-8.190963276824962e-07
3965.52,-7.549216467513247e-07
3966.42,-6.810838222891262e-07
3967.32,-6.118505914934379e-07
3968.22,-5.525956493844e-07
3969.12,-5.06143088059987e-07
3970.02,-4.802445022947481e-07
3970.92,-4.847018914623275e-07
3971.82,-5.105125923285667e-07
3972.72,-5.583369866118659e-07
3973.62,-6.247665885028787e-07
3974.52,-6.948240984203407e-07
3975.42,-7.654155331878894e-07
3976.32,-8.334696582010595e-07
3977.22,-8.948159377969295e-07
3978.13,-9.524093213485398e-07
3979.03,-1.0084861541787751e-06
3979.93,-1.0509036346451545e-06
3980.83,-1.0929794592575966e-06
3981.73,-1.1276079933300734e-06
3982.63,-1.1548889643820107e-06
3983.53,-1.1755584868045187e-06
3984.43,-1.19640421711537e-06
3985.33,-1.2229720727466647e-06
3986.23,-1.2457102861713565e-06
3987.13,-1.2695246860099944e-06
3988.03,-1.2908366618506092e-06
3988.93,-1.3112382530760201e-06
3989.83,-1.3339966035163946e-06
3990.73,-1.3539837410003635e-06
3991.63,-1.3735037055209024e-06
3992.53,-1.382642840514171e-06
3993.43,-1.3999222209617545e-06
3994.33,-1.395434386317167e-06
3995.23,-1.4050810143399927e-06
3996.13,-1.4137146774202506e-06
3997.03,-1.403588464830381e-06
3997.93,-1.4069864044995411e-06
3998.83,-1.4214913000787462e-06
3999.73,-1.4287506667093737e-06
4000.63,-1.4525545546974261e-06
4001.53,-1.458954078362742e-06
4002.43,-1.4760655251424247e-06
4003.33,-1.4792403831614178e-06
4004.23,-1.4776476769259046e-06
4005.13,-1.4674071102948042e-06
4006.03,-1.4634326665710746e-06
4006.93,-1.4647629005507883e-06
4007.83,-1.4790398559244062e-06
4008.73,-1.4923631171904651e-06
4009.63,-1.5086156198047966e-06
4010.53,-1.5267528218318594e-06
4011.43,-1.5290844638686827e-06
4012.33,-1.5440479416168932e-06
4013.23,-1.5533534022654847e-06
4014.13,-1.555521899670157e-06
4015.03,-1.5531814900166952e-06
4015.93,-1.559802825442948e-06
4016.84,-1.5641981219889006e-06
4017.74,-1.5679150043620637e-06
4018.64,-1.5834424271624747e-06
4019.54,-1.5859197182304695e-06
4020.44,-1.589403924417259e-06
4021.34,-1.6002572075510701e-06
4022.24,-1.603093632823485e-06
4023.14,-1.5904359984390263e-06
4024.04,-1.6015935614790724e-06
4024.94,-1.59771024080872e-06
4025.84,-1.5973172969132002e-06
4026.74,-1.6027875366487284e-06
4027.64,-1.6065815772080776e-06
4028.54,-1.6026775123358273e-06
4029.44,-1.5982204959925862e-06
4030.34,-1.5795212600942308e-06
4031.24,-1.568236673546079e-06
4032.14,-1.5506732292109853e-06
4033.04,-1.5442181366237456e-06
4033.94,-1.5493891707043647e-06
4034.84,-1.5652748617043105e-06
4035.74,-1.586522196008843e-06
4036.64,-1.607341610425952e-06
4037.54,-1.634163814467238e-06
4038.44,-1.648512204002573e-06
4039.34,-1.6505463035539975e-06
4040.24,-1.6561549399836982e-06
4041.14,-1.652698058903828e-06
4042.04,-1.644410930677511e-06
4042.94,-1.6256917078684574e-06
4043.84,-1.6165874476545468e-06
4044.74,-1.5982673030992198e-06
4045.64,-1.5874420118769185e-06
4046.54,-1.578250704840588e-06
4047.44,-1.584780566004218e-06
4048.34,-1.5988253334034576e-06
4049.24,-1.6240287852905115e-06
4050.14,-1.637804916649344e-06
4051.04,-1.6488248121450404e-06
4051.94,-1.6492611192145557e-06
4052.84,-1.6467614580224476e-06
4053.74,-1.6422245039848306e-06
4054.65,-1.6249466501940012e-06
4055.55,-1.6209985641666125e-06
4056.45,-1.604608038998582e-06
4057.35,-1.6087776903198449e-06
4058.25,-1.6190808627508567e-06
4059.15,-1.6196798173522965e-06
4060.05,-1.6246541552383973e-06
4060.95,-1.6285081867022661e-06
4061.85,-1.6269217165581583e-06
4062.75,-1.6205120402855478e-06
4063.65,-1.6064239880118146e-06
4064.55,-1.5967020554582307e-06
4065.45,-1.5978332635546738e-06
4066.35,-1.5939816735082162e-06
4067.25,-1.6009536064969054e-06
4068.15,-1.614150281808035e-06
4069.05,-1.619088356331514e-06
4069.95,-1.6275426633738993e-06
4070.85,-1.616243695843946e-06
4071.75,-1.6130915727552857e-06
4072.65,-1.6067696329775465e-06
4073.55,-1.592879728444909e-06
4074.45,-1.5844969417322946e-06
4075.35,-1.5742170443674347e-06
4076.25,-1.559723342181e-06
4077.15,-1.5392657281857941e-06
4078.05,-1.528667934956892e-06
4078.95,-1.5168826431989285e-06
4079.85,-1.5199360808896966e-06
4080.75,-1.533308334845137e-06
4081.65,-1.5395857209928002e-06
4082.55,-1.5423820516606498e-06
4083.45,-1.5404449640929013e-06
4084.35,-1.5331727803365731e-06
4085.25,-1.5153566798568308e-06
4086.15,-1.5081774430685921e-06
4087.05,-1.5048614005876792e-06
4087.95,-1.4975739248850833e-06
4088.85,-1.4975377174734124e-06
4089.75,-1.4827179610045315e-06
4090.65,-1.4674174388850038e-06
4091.55,-1.4458101710245391e-06
4092.45,-1.4132220669625416e-06
4093.36,-1.3813827298762678e-06
4094.26,-1.342337860739005e-06
4095.16,-1.3013410061176332e-06
4096.06,-1.2516338223238909e-06
4096.96,-1.1982348433011934e-06
4097.86,-1.1373372600983322e-06
4098.76,-1.0687641194491786e-06
4099.66,-1.0082937753874065e-06
4100.56,-9.475956395546718e-07
4101.46,-9.029643002403866e-07
4102.36,-8.779032719469508e-07
4103.26,-8.812540458851207e-07
4104.16,-9.057707932387498e-07
4105.06,-9.550641730513881e-07
4105.96,-1.0101970077177695e-06
4106.86,-1.0803794460087296e-06
4107.76,-1.1433470771890911e-06
4108.66,-1.2008089909875964e-06
4109.56,-1.2462426881806938e-06
4110.46,-1.2865663598486761e-06
4111.36,-1.328505758499328e-06
4112.26,-1.3657684257118463e-06
4113.16,-1.407074235591482e-06
4114.06,-1.4439178439584858e-06
4114.96,-1.4706455254218735e-06
4115.86,-1.502548682988832e-06
4116.76,-1.5223122106793489e-06
4117.66,-1.5466348209451747e-06
4118.56,-1.556624226021803e-06
4119.46,-1.5670201358027948e-06
4120.36,-1.577286803494216e-06
4121.26,-1.586347846578175e-06
4122.16,-1.5931214469625391e-06
4123.06,-1.6136234290381936e-06
4123.96,-1.6189017931738231e-06
4124.86,-1.6430369692706869e-06
4125.76,-1.6528470740628246e-06
4126.66,-1.6577242878643284e-06
4127.56,-1.6662555909061038e-06
4128.46,-1.6635504145080008e-06
4129.36,-1.6595149270213611e-06
4130.26,-1.655311446031059e-06
4131.17,-1.6538457253064147e-06
4132.06,-1.6603637675431812e-06
4132.97,-1.6596777133325232e-06
4133.87,-1.6803183951978912e-06
4134.77,-1.6895746892733804e-06
4135.67,-1.711163948539416e-06
4136.57,-1.7290369309413395e-06
4137.47,-1.7549719980363748e-06
4138.37,-1.7724692056934608e-06
4139.27,-1.7993877534663973e-06
4140.17,-1.8060117982107604e-06
4141.07,-1.794160358484712e-06
4141.97,-1.792799099125442e-06
4142.87,-1.777410509560439e-06
4143.77,-1.7684053014040452e-06
4144.67,-1.7650930970970436e-06
4145.57,-1.771312611310979e-06
4146.47,-1.7782622484274775e-06
4147.37,-1.7922428536230415e-06
4148.27,-1.8069751385408206e-06
4149.17,-1.8103132392398032e-06
4150.07,-1.8135774666626177e-06
4150.97,-1.8134822335384327e-06
4151.87,-1.8092926157751554e-06
4152.77,-1.8083836379399043e-06
4153.67,-1.8036090813398635e-06
4154.57,-1.7960817082669308e-06
4155.47,-1.8001450793280333e-06
4156.37,-1.7953346746250605e-06
4157.27,-1.80950860853989e-06
4158.17,-1.8186165306992114e-06
4159.07,-1.8287179720383229e-06
4159.97,-1.8498801022044823e-06
4160.87,-1.8580922672478305e-06
4161.77,-1.8694961775627116e-06
4162.67,-1.8806009200428764e-06
4163.57,-1.8822692637210886e-06
4164.47,-1.8832043280217671e-06
4165.37,-1.8874105375369822e-06
4166.27,-1.8818807241751718e-06
4167.17,-1.884615255714504e-06
4168.07,-1.8737266174848182e-06
4168.98,-1.877054849447247e-06
4169.88,-1.8593744319286965e-06
4170.78,-1.8463437315275765e-06
4171.68,-1.835670208596399e-06
4172.58,-1.8131518944614028e-06
4173.48,-1.8019899901798697e-06
4174.38,-1.795270153154155e-06
4175.28,-1.7979030044614414e-06
4176.18,-1.79771664799133e-06
4177.08,-1.8042628721293077e-06
4177.98,-1.8173178074185428e-06
4178.88,-1.8261521515907298e-06
4179.78,-1.8355910910937746e-06
4180.68,-1.8438817189036624e-06
4181.58,-1.8539486692697662e-06
4182.48,-1.8683964273514848e-06
4183.38,-1.8747402148294481e-06
4184.28,-1.8822739931521391e-06
4185.18,-1.882085679671907e-06
4186.08,-1.8888010418792228e-06
4186.98,-1.8959528612491574e-06
4187.88,-1.887751718229582e-06
4188.78,-1.8987204699027905e-06
4189.68,-1.909884273183699e-06
4190.58,-1.9200570493169068e-06
4191.48,-1.9211713382432894e-06
4192.38,-1.9378389706128584e-06
4193.28,-1.942122583502255e-06
4194.18,-1.947607574867051e-06
4195.08,-1.9404770275715343e-06
4195.98,-1.9338380681453594e-06
4196.88,-1.9116969544084317e-06
4197.78,-1.8986605511921726e-06
4198.68,-1.8872173809259771e-06
4199.58,-1.8836421693664866e-06
4200.48,-1.884526205497508e-06
4201.38,-1.879383582688837e-06
4202.28,-1.8846557158433004e-06
4203.18,-1.9059071115749326e-06
4204.08,-1.9084564917970985e-06
4204.98,-1.930048183034688e-06
4205.88,-1.9398221699385132e-06
4206.79,-1.9552864329157723e-06
4207.69,-1.9701520523880376e-06
4208.59,-1.984879542919691e-06
4209.49,-1.9907583071893637e-06
4210.39,-2.0013591165155825e-06
4211.29,-2.003776086070811e-06
4212.19,-1.9973653025973952e-06
4213.09,-1.9961883381341e-06
4213.99,-1.9981615946243374e-06
4214.89,-1.9867070570493876e-06
4215.79,-1.9849762489351213e-06
4216.69,-1.9707412746275833e-06
4217.59,-1.9842248641614597e-06
4218.49,-1.99474077711253e-06
4219.39,-1.9998919537776004e-06
4220.29,-2.0257545636198432e-06
4221.19,-2.031042582705059e-06
4222.09,-2.024899982194716e-06
4222.99,-2.0003550135914845e-06
4223.89,-1.981167951867195e-06
4224.79,-1.950442013060515e-06
4225.69,-1.9102720280143364e-06
4226.59,-1.8887421705194005e-06
4227.49,-1.8761819732402868e-06
4228.39,-1.891243610777571e-06
4229.29,-1.9173653690822843e-06
4230.19,-1.9483087048629918e-06
4231.09,-1.987147426797712e-06
4231.99,-1.997113621619698e-06
4232.89,-2.012238180347185e-06
4233.79,-2.0117034452987026e-06
4234.69,-2.007641918684587e-06
4235.59,-1.998140521371093e-06
4236.49,-2.003735153784556e-06
4237.39,-1.9939263353229004e-06
4238.29,-1.9935320345063313e-06
4239.19,-2.0051347854670425e-06
4240.09,-2.0245940234931037e-06
4240.99,-2.0361710511069275e-06
4241.89,-2.0325331516237187e-06
4242.79,-2.059955938173428e-06
4243.69,-2.062007682309267e-06
4244.59,-2.065436419110305e-06
4245.5,-2.060551964505641e-06
4246.4,-2.055438088962041e-06
4247.3,-2.0402809211769718e-06
4248.2,-2.030976421979902e-06
4249.1,-2.0106690872112393e-06
4250.0,-2.017734707028214e-06
4250.9,-2.010482558542638e-06
4251.8,-2.0224684708263678e-06
4252.7,-2.025953085926731e-06
4253.6,-2.0537676673604395e-06
4254.5,-2.059620875378093e-06
4255.4,-2.0687444654516003e-06
4256.3,-2.0733221520907558e-06
4257.2,-2.072402743709376e-06
4258.1,-2.0738142739738426e-06
4259.0,-2.0691445020837352e-06
4259.9,-2.053216283796626e-06
4260.8,-2.058539893823919e-06
4261.7,-2.060398845288833e-06
4262.6,-2.073547512540426e-06
4263.5,-2.083902257949709e-06
4264.4,-2.1080508343112197e-06
4265.3,-2.1255551102433822e-06
4266.2,-2.1370506848197933e-06
4267.1,-2.129920771822591e-06
4268.0,-2.1360423513030336e-06
4268.9,-2.094330541461132e-06
4269.8,-2.0858714822113016e-06
4270.7,-2.0455006364976267e-06
4271.6,-2.0315164750354484e-06
4272.5,-2.011384773069481e-06
4273.4,-1.998555331469259e-06
4274.3,-1.9992767533976357e-06
