wave,flux
3700.85,-0.01601210610851832
3701.75,-0.016101934599464577
3702.65,-0.015886690734107495
3703.55,-0.015446347911233362
3704.45,-0.014890566594743224
3705.35,-0.014500228493391982
3706.25,-0.01431212513819157
3707.15,-0.014310304633730647
3708.05,-0.014675519232352833
3708.96,-0.015115937156445765
3709.86,-0.015664129617036768
3710.76,-0.016352172323905834
3711.66,-0.017200824139675133
3712.56,-0.018084909755315647
3713.46,-0.019055876715409575
3714.36,-0.020019393120012958
3715.26,-0.02082038717571531
3716.16,-0.02139217709630968
3717.06,-0.021442722872300923
3717.96,-0.021199468130707493
3718.86,-0.020349637402927653
3719.76,-0.01938000257801192
3720.66,-0.018465730100009667
3721.56,-0.017801314503436413
3722.46,-0.017839011003302683
3723.36,-0.01853109636472009
3724.26,-0.019763318094658505
3725.16,-0.021276006727684937
3726.06,-0.022659170823890677
3726.96,-0.0237171903068702
3727.86,-0.0244348024221114
3728.76,-0.025024646350957667
3729.66,-0.02536014072500192
3730.56,-0.025291655903744985
3731.46,-0.02491312460079888
3732.36,-0.024102172853015084
3733.26,-0.02293613849028693
3734.16,-0.021652061793620787
3735.06,-0.02075436870291802
3735.96,-0.020598427788465136
3736.86,-0.021227178482250288
3737.76,-0.022527128981293252
3738.66,-0.024702257103707683
3739.56,-0.027060906129622777
3740.46,-0.029173292754546803
3741.36,-0.030984201105623943
3742.26,-0.0318781349965794
3743.16,-0.032154404717657875
3744.06,-0.031917978288662614
3744.96,-0.031180336958601826
3745.86,-0.03022598275684163
3746.76,-0.029244904154473752
3747.67,-0.028408254567126968
3748.57,-0.027705206411524606
3749.47,-0.02745979593976861
3750.37,-0.028077858511497317
3751.27,-0.03005990635957525
3752.17,-0.03268584693984524
3753.07,-0.036123412532683405
3753.97,-0.03951627076750643
3754.87,-0.042395568591119766
3755.77,-0.044561691662499237
3756.67,-0.04524025202711621
3757.57,-0.045186015873744885
3758.47,-0.04482165665658215
3759.37,-0.04428537011226064
3760.27,-0.0446837063384366
3761.17,-0.045690371983822496
3762.07,-0.047322842098647226
3762.97,-0.049371806117594584
3763.87,-0.05089144935804302
3764.77,-0.052354042783691955
3765.67,-0.05342208524205314
3766.57,-0.053848822369247526
3767.47,-0.053999687192467005
3768.37,-0.05433277764662509
3769.27,-0.054450999608093735
3770.17,-0.05487172558013889
3771.07,-0.056137380475731274
3771.97,-0.05825617158481726
3772.87,-0.06114450126282583
3773.77,-0.06447632824829237
3774.67,-0.06795625479051937
3775.57,-0.0714432927922717
3776.47,-0.07400547593549615
3777.37,-0.07719685860326173
3778.27,-0.08013511438489716
3779.17,-0.08336070301329639
3780.07,-0.08726124207446888
3780.97,-0.09054941001692636
3781.87,-0.09286379920386408
3782.77,-0.09597393425346519
3783.67,-0.09786638815702725
3784.57,-0.09878809864059003
3785.47,-0.09873222207082137
3786.38,-0.09894129236750801
3787.28,-0.09781266787180762
3788.18,-0.0974703030063884
3789.08,-0.09773459808599512
3789.98,-0.0985631077788805
3790.88,-0.10004688629757154
3791.78,-0.101986923353406
3792.68,-0.10335672367557505
3793.58,-0.10287221944959302
3794.48,-0.10242016642753328
3795.38,-0.10115357138890549
3796.28,-0.09916768779013768
3797.18,-0.09815640651125723
3798.08,-0.09839808544933948
3798.98,-0.10061740767525541
3799.88,-0.10588007487754986
3800.78,-0.1133321863967293
3801.68,-0.12404395442867962
3802.58,-0.13598602173313246
3803.48,-0.1462696312562898
3804.38,-0.15499071777200776
3805.28,-0.16304852242552745
3806.18,-0.1679151943009337
3807.08,-0.17214945663464185
3807.98,-0.17771078129573556
3808.88,-0.18270633094578384
3809.78,-0.1887136242606626
3810.68,-0.19415792788025543
3811.58,-0.198618268562423
3812.48,-0.199902847319461
3813.38,-0.19949715677378133
3814.28,-0.19974605235441645
3815.18,-0.19933290874821494
3816.08,-0.20111850044175075
3816.98,-0.2057934763419187
3817.88,-0.2106603561762469
3818.78,-0.2162611106950658
3819.68,-0.2202455179854764
3820.58,-0.22462302289457972
3821.48,-0.22889139255137328
3822.38,-0.23155023615487172
3823.28,-0.23785256926080792
3824.18,-0.24153183784427826
3825.09,-0.2426458440568177
3825.99,-0.24453117955960418
3826.89,-0.24588320105154582
3827.79,-0.24896392785578117
3828.69,-0.25498994571657874
3829.59,-0.2603067668985967
3830.49,-0.26356498223351127
3831.39,-0.26689919861572264
3832.29,-0.2668623005525441
3833.19,-0.2629939568628154
3834.09,-0.2613249673522757
3834.99,-0.2635180836114764
3835.89,-0.26937757084674224
3836.79,-0.28014958674421025
3837.69,-0.29648424070132906
3838.59,-0.31607268012062595
3839.49,-0.34163127217671124
3840.39,-0.37408285309422323
3841.29,-0.41225621636215964
3842.19,-0.46021997594220104
3843.09,-0.5150714795854756
3843.99,-0.5635559352143059
3844.89,-0.6198376680814609
3845.79,-0.6664077090296212
3846.69,-0.7167982068062393
3847.59,-0.7634848280049579
3848.49,-0.8107573794495819
3849.39,-0.8502959461901951
3850.29,-0.9002890418729972
3851.19,-0.9484808651592365
3852.09,-1.0079301206564555
3852.99,-1.0790202022754327
3853.89,-1.1479771477662915
3854.79,-1.2196606127152234
3855.69,-1.2890946316487142
3856.59,-1.3516496502185653
3857.49,-1.4225263414538643
3858.39,-1.509445788683724
3859.29,-1.6170968969896322
3860.19,-1.7602727602438266
3861.09,-1.9631348365970303
3861.99,-2.249934999299458
3862.9,-2.6047623686766794
3863.8,-3.054238919186213
3864.7,-3.6073380353683038
3865.6,-4.314942907694805
3866.5,-5.261798042242044
3867.4,-6.644299604768079
3868.3,-8.912512764242777
3869.2,-13.373220092189328
3870.1,-26.332417895890217
3871.0,-2379.2541757863632
3871.9,26.363507149170484
3872.8,13.018211603307442
3873.7,8.647810964034832
3874.6,6.542634656340408
3875.5,5.362384505442183
3876.4,4.530555725640229
3877.3,3.933196605179357
3878.2,3.44620839551767
3879.1,3.076534949348624
3880.0,2.800262299627408
3880.9,2.575261954328755
3881.8,2.3805811795748375
3882.7,2.214390136060764
3883.6,2.063102507951473
3884.5,1.9135762683772148
3885.4,1.7573650543090407
3886.3,1.60783243782558
3887.2,1.4683050169528185
3888.1,1.3649159685573415
3889.0,1.2772920409432207
3889.9,1.2339849464982302
3890.8,1.2172958193730221
3891.7,1.2316535747032364
3892.6,1.248763034962444
3893.5,1.2552858480496216
3894.4,1.2594233044098406
3895.3,1.2572966667808454
3896.2,1.2466125651539253
3897.1,1.2295252271927224
3898.0,1.2200060585017913
3898.9,1.2048378511200384
3899.8,1.1915842838117008
3900.7,1.1694218632747178
3901.6,1.1518472151263748
3902.51,1.1288336096674707
3903.41,1.1067626697623931
3904.31,1.0776673712309983
3905.21,1.0581100120880853
3906.11,1.0349976976918038
3907.01,1.0277060909050932
3907.91,1.0321090238583457
3908.81,1.047490902111617
3909.71,1.0580311843527417
3910.61,1.0699526924861587
3911.51,1.0761361384601995
3912.41,1.0747782940817807
3913.31,1.0647936628834969
3914.21,1.0474330038900503
3915.11,1.0309711618959052
3916.01,1.0060124250374738
3916.91,0.9846119378774562
3917.81,0.9608306585625508
3918.71,0.932151086713083
3919.61,0.9113612190281707
3920.51,0.8831955571410768
3921.41,0.8639648617177799
3922.31,0.8508771489481327
3923.21,0.8348275363889677
3924.11,0.8193350846222975
3925.01,0.7996724725546861
3925.91,0.7719204846874016
3926.81,0.7309028419519572
3927.71,0.6789282114583844
3928.61,0.6163419632786065
3929.51,0.5502096794832818
3930.41,0.47971819895176726
3931.31,0.4130837389006912
3932.21,0.3518305897571823
3933.11,0.30394074914832586
3934.01,0.2777326981063026
3934.91,0.27103306651314957
3935.81,0.2897863416173748
3936.71,0.3288145450413459
3937.61,0.3833057052288271
3938.51,0.4448008843352472
3939.42,0.5102563496933128
3940.32,0.5694220052159512
3941.22,0.6166251297586353
3942.12,0.6548841129746176
3943.02,0.6833727372545669
3943.92,0.7070150979025652
3944.82,0.7292909102567721
3945.72,0.7484208173070411
3946.62,0.7679551210848032
3947.52,0.7865566967928528
3948.42,0.7990288182091703
3949.32,0.8142594915388144
3950.22,0.8242828595606195
3951.12,0.8307487249836611
3952.02,0.8366776497044539
3952.92,0.8396094579203356
3953.82,0.8462888174497483
3954.72,0.8423587245722233
3955.62,0.8391354541486675
3956.52,0.8381844739944018
3957.42,0.832244753140461
3958.32,0.820393858147125
3959.22,0.8101766380514
3960.12,0.7866197112737261
3961.02,0.7605438319064209
3961.92,0.7215386129788641
3962.82,0.6751824709849165
3963.72,0.6248937855648434
3964.62,0.5681781168178156
3965.52,0.5066909838862077
3966.42,0.44573498668829287
3967.32,0.3876707860657616
3968.22,0.3425644727398489
3969.12,0.3112533055680952
3970.02,0.30528538344519845
3970.92,0.32198267582698453
3971.82,0.36223225220819355
3972.72,0.41602665856110604
3973.62,0.48206009586112625
3974.52,0.5474016835683796
3975.42,0.6117089040863354
3976.32,0.666975777190209
3977.22,0.7200800927211821
3978.13,0.7662438137446743
3979.03,0.805705061675194
3979.93,0.833774698660314
3980.83,0.8577220282862785
3981.73,0.8698747259078432
3982.63,0.8783829317263915
3983.53,0.8895973602138504
3984.43,0.8914424331528633
3985.33,0.9002929749097857
3986.23,0.9095018646234115
3987.13,0.9182851281177594
3988.03,0.9296288052233309
3988.93,0.939713640345709
3989.83,0.9484402674678866
3990.73,0.9551200855170958
3991.63,0.963770592936505
3992.53,0.9728725817201176
3993.43,0.972856830735512
3994.33,0.9697994326346556
3995.23,0.9627133324610234
3996.13,0.9518885360702959
3997.03,0.945821985671574
3997.93,0.9410277884890027
3998.83,0.943212644735397
3999.73,0.9452489784779289
4000.63,0.961559219362445
4001.53,0.977533177120636
4002.43,0.9853373310697366
4003.33,0.9854051687747656
4004.23,0.9765935870657931
4005.13,0.9703343265071072
4006.03,0.9613012142042685
4006.93,0.9527975073662016
4007.83,0.9607195760993856
4008.73,0.9704171080935381
4009.63,0.9860406488202658
4010.53,0.9961304032087701
4011.43,1.0014715335906126
4012.33,1.0131351134224655
4013.23,1.0125299218014474
4014.13,1.0189381206770185
4015.03,1.017521398941201
4015.93,1.0192103483075527
4016.84,1.0197524706029897
4017.74,1.0212708830048944
4018.64,1.0226295443054967
4019.54,1.0222418776296243
4020.44,1.025608097160468
4021.34,1.0295577165414076
4022.24,1.030471650267819
4023.14,1.0248298997834573
4024.04,1.029138504101767
4024.94,1.027435124588258
4025.84,1.0345460142210003
4026.74,1.0383208150453354
4027.64,1.0407939087849352
4028.54,1.039780675347565
4029.44,1.0267983003375154
4030.34,1.013353983412603
4031.24,0.9903699219659612
4032.14,0.9785341386218122
4033.04,0.9650478375929461
4033.94,0.9629600144164995
4034.84,0.9736101300955572
4035.74,0.9919362638337177
4036.64,1.0202696532027224
4037.54,1.0337540218501586
4038.44,1.0547635016170482
4039.34,1.0634050900524517
4040.24,1.0669239848310004
4041.14,1.063337137304583
4042.04,1.050912406796116
4042.94,1.0279667022372847
4043.84,1.0070472963156172
4044.74,0.9838424438215752
4045.64,0.9675207062669183
4046.54,0.9563960691056165
4047.44,0.958786263610958
4048.34,0.973447241695326
4049.24,0.9961616149973994
4050.14,1.017616368149044
4051.04,1.0331614438194516
4051.94,1.0368619563697392
4052.84,1.0453476241880046
4053.74,1.0411091231983833
4054.65,1.0287017341955393
4055.55,1.0247952880262865
4056.45,1.0161373223294075
4057.35,1.0170080099385914
4058.25,1.0172274872317693
4059.15,1.0149193288592282
4060.05,1.0150217172678995
4060.95,1.0111692371543581
4061.85,1.0091353098445484
4062.75,0.9922572814265338
4063.65,0.9818889711244118
4064.55,0.9657573196202714
4065.45,0.9638109856194249
4066.35,0.9644184758192087
4067.25,0.9749569806205601
4068.15,0.9919232351224242
4069.05,0.9989394889738764
4069.95,1.0063858964636776
4070.85,1.0064034616996198
4071.75,1.0062685705908019
4072.65,1.000484802502286
4073.55,0.9962215884225161
4074.45,0.9833277970212773
4075.35,0.9749498823754688
4076.25,0.9610890752773131
4077.15,0.9488037462517366
4078.05,0.9370645438407503
4078.95,0.9358017925938555
4079.85,0.9454905491741001
4080.75,0.9657730499322665
4081.65,0.9772414488232172
4082.55,0.9961185623542907
4083.45,1.008094514021636
4084.35,1.0133738375921602
4085.25,1.0177202448318787
4086.15,1.024205393021315
4087.05,1.0370651519391483
4087.95,1.0514216145485846
4088.85,1.066542653786852
4089.75,1.0745946116989098
4090.65,1.0794799000049955
4091.55,1.0777507437978704
4092.45,1.0721381245342008
4093.36,1.0634675544249799
4094.26,1.0430192039398347
4095.16,1.0304012359319352
4096.06,1.011396915337615
4096.96,0.9851917255845419
4097.86,0.9577538035500615
4098.76,0.9231779826458253
4099.66,0.8881039743980574
4100.56,0.8497269610408331
4101.46,0.8206220778604091
4102.36,0.8038211763235129
4103.26,0.8071333325818567
4104.16,0.8184122037533297
4105.06,0.8475410859756362
4105.96,0.8826786592774338
4106.86,0.9142208507522551
4107.76,0.9431859547367274
4108.66,0.9658674006273935
4109.56,0.974134437090812
4110.46,0.9859141286358013
4111.36,0.9913375683388006
4112.26,1.002678045684042
4113.16,1.0125252893273142
4114.06,1.019486402415003
4114.96,1.0292831714626438
4115.86,1.0347082709489577
4116.76,1.0420080879695215
4117.66,1.0334238481604328
4118.56,1.0264362715662052
4119.46,1.0202277720243542
4120.36,1.0144619961444654
4121.26,1.0104810336717318
4122.16,1.0113003785892452
4123.06,1.0129416457277678
4123.96,1.0136793023803699
4124.86,1.0241415880921052
4125.76,1.0236472311797546
4126.66,1.0245009117615766
4127.56,1.0226837358940621
4128.46,1.0147085902482558
4129.36,1.0063640895713954
4130.26,1.0027147004647294
4131.17,0.992814959388673
4132.06,0.9812146268543582
4132.97,0.9763561306034133
4133.87,0.9733250436814046
4134.77,0.9720221412676116
4135.67,0.9812278746115081
4136.57,0.9984545172285865
4137.47,1.0191188474777912
4138.37,1.036541378449303
4139.27,1.0437148451148122
4140.17,1.0438863223395956
4141.07,1.0347714492461844
4141.97,1.0171844070521778
4142.87,1.0000872807932601
4143.77,0.9882468833637235
4144.67,0.9828509546202332
4145.57,0.9802298498295801
4146.47,0.9869085457749472
4147.37,1.0010273284388602
4148.27,1.0090088251882399
4149.17,1.015331907572304
4150.07,1.0193307388656128
4150.97,1.020195342580494
4151.87,1.0153548841735005
4152.77,1.0107630603582671
4153.67,1.0068951851863417
4154.57,1.0070382041749504
4155.47,0.9995705993736791
4156.37,0.999923636709967
4157.27,1.007811411124414
4158.17,1.0150430616356623
4159.07,1.0227610713882156
4159.97,1.0300145961985934
4160.87,1.039898517538481
4161.77,1.0483166111366466
4162.67,1.0551269920172839
4163.57,1.0518463046544073
4164.47,1.0553425216439638
4165.37,1.058801489173662
4166.27,1.0496870634997386
4167.17,1.0473504053965255
4168.07,1.0388241349866694
4168.98,1.0316415403909578
4169.88,1.0175972785373446
4170.78,1.0099494281252683
4171.68,0.9899498149974575
4172.58,0.9732931249367107
4173.48,0.9635592894126461
4174.38,0.9569332196099128
4175.28,0.9550877331455573
4176.18,0.9629935361612885
4177.08,0.968474907703141
4177.98,0.9812785919916467
4178.88,0.9881695351426372
4179.78,0.9954067015449214
4180.68,1.0086341478237777
4181.58,1.0096306507967006
4182.48,1.0121674748134397
4183.38,1.0123201169805947
4184.28,1.015401365898734
4185.18,1.0149000901560778
4186.08,1.0106215495762012
4186.98,1.005101872545891
4187.88,1.004187628654074
4188.78,1.0004989871736976
4189.68,1.0027153087851908
4190.58,1.0100743535786694
4191.48,1.0212869077251494
4192.38,1.0270385314221593
4193.28,1.0301112280133322
4194.18,1.0348752303311568
4195.08,1.0318596864746283
4195.98,1.0244234739772486
4196.88,1.0132827150283006
4197.78,1.0019941161790844
4198.68,0.9869454095680584
4199.58,0.9761779121412041
4200.48,0.9670927307731545
4201.38,0.9664434565915758
4202.28,0.9657494538990188
4203.18,0.9717666394174539
4204.08,0.9765876692159673
4204.98,0.9906904082762926
4205.88,0.997657844761636
4206.79,1.0138757028138834
4207.69,1.0236730535715193
4208.59,1.0380806635933748
4209.49,1.0428718114308675
4210.39,1.0494616936879901
4211.29,1.0533488963304305
4212.19,1.0440560375128858
4213.09,1.0441175034905943
4213.99,1.038796227813176
4214.89,1.0277429452584121
4215.79,1.018235676112456
4216.69,1.0127550008041653
4217.59,1.0159245122376421
4218.49,1.0175917725283339
4219.39,1.0232038470464466
4220.29,1.0347633580745643
4221.19,1.0366888120601092
4222.09,1.0347670101833373
4222.99,1.017189981725335
4223.89,0.9943753601665626
4224.79,0.9589446010571239
4225.69,0.9275322304654958
4226.59,0.9040043194706427
4227.49,0.8918422253778749
4228.39,0.9006022229521898
4229.29,0.9201842684759203
4230.19,0.9472765469415473
4231.09,0.9852194745812266
4231.99,1.0049675054628817
4232.89,1.0134565691108437
4233.79,1.0208235926604445
4234.69,1.0177906191128983
4235.59,1.0118552522016808
4236.49,1.004339346750596
4237.39,0.999222449292205
4238.29,1.0034406491780505
4239.19,1.011940555743034
4240.09,1.0169506155805512
4240.99,1.0219612835204162
4241.89,1.038748546906999
4242.79,1.0449499650250016
4243.69,1.0525336965899426
4244.59,1.0523735009408033
4245.5,1.0497953542345344
4246.4,1.0481425532396331
4247.3,1.0312670971146425
4248.2,1.0258383416565267
4249.1,1.0094217137065273
4250.0,1.003027716966771
4250.9,1.0058273924256933
4251.8,1.0061981480290543
4252.7,1.013348305647664
4253.6,1.0213899713869192
4254.5,1.0295309902993401
4255.4,1.0347455729925361
4256.3,1.0346985313469714
4257.2,1.0340487634512632
4258.1,1.0330927495485989
4259.0,1.03188071253246
4259.9,1.0250451825607367
4260.8,1.0198866406114901
4261.7,1.0192415310861154
4262.6,1.030224351654072
4263.5,1.0415545642015671
4264.4,1.0626372079469266
4265.3,1.0677445335884495
4266.2,1.083252737220879
4267.1,1.0814759711153186
4268.0,1.0696731498579384
4268.9,1.0526213779913922
4269.8,1.0319611991193547
4270.7,1.0086872084190441
4271.6,0.984494648441608
4272.5,0.9730011989991008
4273.4,0.9634390861686892
4274.3,0.9610995047031252
4275.2,0.9746731406814318
4276.1,0.9865941273494476
4277.0,1.0053502794613995
4277.9,1.0237529137113324
4278.8,1.038103864691733
4279.7,1.0383577031054314
4280.6,1.0434975347748892
4281.5,1.0381323404911753
4282.4,1.0326030388847192
4283.31,1.03006092265268
4284.21,1.0199068588031068
4285.11,1.0125880264797136
4286.01,1.0042063654398676
4286.91,0.9911107294610881
4287.81,0.9724014609186121
4288.71,0.9595790940487195
4289.61,0.9474956053509062
4290.51,0.9405983783605354
4291.41,0.9400411761524614
4292.31,0.9447214641587853
4293.21,0.9541399022346082
4294.11,0.9621953975569812
4295.01,0.9661873572887247
4295.91,0.9586173897305494
4296.81,0.9479366929769419
4297.71,0.9226506455982934
4298.61,0.8973070822191523
4299.51,0.8673600450773714
4300.41,0.8432550747935299
4301.31,0.827688620976731
4302.21,0.8150620786805414
4303.11,0.8137157159126561
4304.01,0.8140556689681443
4304.91,0.8175299609620139
4305.81,0.8105096503036767
4306.71,0.8094694449560651
4307.61,0.8043775102640546
4308.51,0.8002244787627945
4309.41,0.799901528498594
4310.31,0.8038035787829179
4311.21,0.8194012351917193
4312.11,0.8413532048895661
4313.01,0.8684579448549252
4313.91,0.9060343064267685
4314.81,0.9471535810545738
4315.71,0.9965840542068571
4316.61,1.0412900877741922
4317.51,1.078291163044082
4318.41,1.1094828197036135
4319.31,1.1232524065199145
4320.21,1.1228475997081895
4321.12,1.1124996364319455
4322.02,1.0894059432338166
4322.92,1.0706814652609289
4323.82,1.0328873590351468
4324.72,1.0049209032517534
4325.62,0.9885999191191374
4326.52,0.9836074355102606
4327.42,0.9915094380682447
4328.32,1.0105531577858027
4329.22,1.0384484414046766
4330.12,1.0603744249345888
4331.02,1.0829492598105972
4331.92,1.0922241370629933
4332.82,1.0980240440684776
4333.72,1.0986826787923354
4334.62,1.0871767572313065
4335.52,1.0694286795720902
4336.42,1.0404420588837524
4337.32,1.004069933567481
4338.22,0.9611641355823165
4339.12,0.9199253964169567
4340.02,0.8819675582486196
4340.92,0.860107661506334
4341.82,0.8575855811428665
4342.72,0.8678102234354614
4343.62,0.8970977908872194
4344.52,0.9342296046166022
4345.42,0.9719229796249956
4346.32,1.0052069240422261
4347.22,1.0334586126585634
4348.12,1.0452650277265343
4349.02,1.0536857870427143
4349.92,1.0533907591292708
4350.82,1.0474590210388712
4351.72,1.0352269436926653
4352.62,1.0258600794915644
4353.52,1.0213344771351656
4354.42,1.017868748656732
4355.32,1.0327408118420278
4356.22,1.0400012999562087
4357.12,1.0492118691008627
4358.02,1.055458126106219
4358.92,1.068362956223963
