wave,flux
3700.85,-6.865616749636152e-05
3701.75,-6.764777657063913e-05
3702.65,-6.571640615283267e-05
3703.55,-6.160017542536231e-05
3704.45,-5.78277246965116e-05
3705.35,-5.408948788709943e-05
3706.25,-5.125088258487343e-05
3707.15,-4.9767929983800824e-05
3708.05,-4.9913309898022474e-05
3708.96,-5.156956758075546e-05
3709.86,-5.389016657393761e-05
3710.76,-5.7705763649359714e-05
3711.66,-6.22199025368194e-05
3712.56,-6.662428542967789e-05
3713.46,-7.08629398488452e-05
3714.36,-7.405549940938548e-05
3715.26,-7.533344461944228e-05
3716.16,-7.40243150683475e-05
3717.06,-7.141752766240114e-05
3717.96,-6.706707989580301e-05
3718.86,-6.106885729383045e-05
3719.76,-5.529850223803551e-05
3720.66,-5.055981890555123e-05
3721.56,-4.795093031276595e-05
3722.46,-4.8058057555188344e-05
3723.36,-5.086987118035907e-05
3724.26,-5.5029887930662256e-05
3725.16,-5.984146441299114e-05
3726.06,-6.369469288034665e-05
3726.96,-6.554169572250374e-05
3727.86,-6.676555980844415e-05
3728.76,-6.685036246369675e-05
3729.66,-6.644536833436831e-05
3730.56,-6.531097668514259e-05
3731.46,-6.292393257833731e-05
3732.36,-5.9165140265528725e-05
3733.26,-5.420165276669994e-05
3734.16,-4.907563729220568e-05
3735.06,-4.510229018751602e-05
3735.96,-4.333759635198988e-05
3736.86,-4.3683583042230566e-05
3737.76,-4.6648332783745904e-05
3738.66,-5.205361066830844e-05
3739.56,-5.767687554845631e-05
3740.46,-6.317981961127796e-05
3741.36,-6.648194196399491e-05
3742.26,-6.756219190846006e-05
3743.16,-6.604776048467867e-05
3744.06,-6.295489062871213e-05
3744.96,-5.911627731544483e-05
3745.86,-5.525227161364923e-05
3746.76,-5.200193740214823e-05
3747.67,-4.943292221900688e-05
3748.57,-4.834857320411248e-05
3749.47,-4.869202705709747e-05
3750.37,-5.150850598585717e-05
3751.27,-5.662081023939338e-05
3752.17,-6.322477763684536e-05
3753.07,-7.046608363561795e-05
3753.97,-7.678276657766922e-05
3754.87,-8.18685695263396e-05
3755.77,-8.339537121461864e-05
3756.67,-8.216240842696212e-05
3757.57,-7.93413663730258e-05
3758.47,-7.533563783256015e-05
3759.37,-7.234484794622102e-05
3760.27,-7.120533504183948e-05
3761.17,-7.179790906768279e-05
3762.07,-7.307926083422313e-05
3762.97,-7.497158148499623e-05
3763.87,-7.621789958060931e-05
3764.77,-7.719104376420296e-05
3765.67,-7.79316190293146e-05
3766.57,-7.897712162712097e-05
3767.47,-7.95261448643389e-05
3768.37,-8.117866726463406e-05
3769.27,-8.305380540937872e-05
3770.17,-8.597026374918407e-05
3771.07,-8.899742224067461e-05
3771.97,-9.274666936051288e-05
3772.87,-9.616054644102298e-05
3773.77,-9.952714332106645e-05
3774.67,-0.00010157488324556562
3775.57,-0.0001036039603956692
3776.47,-0.00010466259886262482
3777.37,-0.00010665667474006013
3778.27,-0.0001073134073827796
3779.17,-0.00011025166958018409
3780.07,-0.00011289872750282736
3780.97,-0.000115239680438562
3781.87,-0.00011709338574146714
3782.77,-0.00011893466054675364
3783.67,-0.00011924463363705609
3784.57,-0.00011760752316822382
3785.47,-0.00011394832896513703
3786.38,-0.00010919754826508938
3787.28,-0.00010447830247515392
3788.18,-0.00010000863273199013
3789.08,-9.695740728940922e-05
3789.98,-9.570110449131386e-05
3790.88,-9.570622242559748e-05
3791.78,-9.615093843742279e-05
3792.68,-9.627671084202753e-05
3793.58,-9.555578141836997e-05
3794.48,-9.434167834551347e-05
3795.38,-9.190486366201995e-05
3796.28,-8.970585565782896e-05
3797.18,-8.732570397056844e-05
3798.08,-8.70132948700106e-05
3798.98,-8.736538418714358e-05
3799.88,-9.033460295997486e-05
3800.78,-9.568261584944643e-05
3801.68,-0.00010324961021938952
3802.58,-0.00011025127886788249
3803.48,-0.000116947170333781
3804.38,-0.0001222229971722937
3805.28,-0.00012417639876836852
3806.18,-0.00012463926249704112
3807.08,-0.00012465533046495135
3807.98,-0.00012436671810512522
3808.88,-0.00012511877641859816
3809.78,-0.00012638122512318196
3810.68,-0.00012777297577836773
3811.58,-0.0001268838215230469
3812.48,-0.00012370234502807735
3813.38,-0.00011933869624373395
3814.28,-0.00011340822522758495
3815.18,-0.00010780557745669203
3816.08,-0.00010391406023202863
3816.98,-0.00010132333300732134
3817.88,-0.00010012878270532213
3818.78,-9.923904567704911e-05
3819.68,-9.776406434134022e-05
3820.58,-9.573899852997197e-05
3821.48,-9.418507361455984e-05
3822.38,-9.322958581469386e-05
3823.28,-9.231473483318331e-05
3824.18,-9.02962383262097e-05
3825.09,-8.765663038340863e-05
3825.99,-8.496528783705382e-05
3826.89,-8.22453942790746e-05
3827.79,-8.127577630163654e-05
3828.69,-8.143004447717036e-05
3829.59,-8.23290216216475e-05
3830.49,-8.260691925963831e-05
3831.39,-8.225850161381789e-05
3832.29,-8.141905205258849e-05
3833.19,-7.981506494140195e-05
3834.09,-7.92794425239524e-05
3834.99,-7.907383451595813e-05
3835.89,-8.029185893277611e-05
3836.79,-8.094871185841092e-05
3837.69,-8.184105585645091e-05
3838.59,-8.257906411107258e-05
3839.49,-8.44606516889689e-05
3840.39,-8.80326617927027e-05
3841.29,-9.439554723091537e-05
3842.19,-0.00010203468334893024
3843.09,-0.0001121395286994423
3843.99,-0.00012153485442311446
3844.89,-0.00012945228011929352
3845.79,-0.00013531682149302824
3846.69,-0.00013932750573345838
3847.59,-0.0001412285914448411
3848.49,-0.00014141233670748228
3849.39,-0.00014135245424489652
3850.29,-0.00014061006075235768
3851.19,-0.00014053926963659562
3852.09,-0.0001406207705172223
3852.99,-0.00014144734781117337
3853.89,-0.00014151744921791313
3854.79,-0.00013905915732718963
3855.69,-0.00013649399519072538
3856.59,-0.00013203739881753975
3857.49,-0.00012753471404813226
3858.39,-0.00012309635001762494
3859.29,-0.00012007927233998276
3860.19,-0.00011922729775435222
3861.09,-0.00012240743108032714
3861.99,-0.00012961833346284346
3862.9,-0.00013765631964885385
3863.8,-0.00014587182607071625
3864.7,-0.0001518417451467925
3865.6,-0.00015623119616209357
3866.5,-0.00015672495726299553
3867.4,-0.00015638413807796765
3868.3,-0.00015443098696458883
3869.2,-0.00015174806291490852
3870.1,-0.0001482861567821109
3871.0,-0.00014451424672572171
3871.9,-0.00014204646615736542
3872.8,-0.00014140645850943247
3873.7,-0.00014471417016351015
3874.6,-0.00014892633318408323
3875.5,-0.00015337137521151018
3876.4,-0.00015705959669220167
3877.3,-0.0001571256129166389
3878.2,-0.0001561077239027137
3879.1,-0.00015415716861864122
3880.0,-0.00015352186880728086
3880.9,-0.0001533255981468131
3881.8,-0.00015450613895624877
3882.7,-0.00015669724219123193
3883.6,-0.00015802276774381482
3884.5,-0.00015794201807097286
3885.4,-0.00015704266809189204
3886.3,-0.00015514211252336884
3887.2,-0.000152784300073763
3888.1,-0.0001522853859693084
3889.0,-0.00015464729190034808
3889.9,-0.00016024255827617093
3890.8,-0.00016990258132792483
3891.7,-0.0001797827129778753
3892.6,-0.00019046718768902507
3893.5,-0.00019766539328409182
3894.4,-0.00020209590209326135
3895.3,-0.0002066464161028247
3896.2,-0.00020732345352343694
3897.1,-0.0002103882697375708
3898.0,-0.00021232840022452482
3898.9,-0.00021358048896936508
3899.8,-0.00021538966733694007
3900.7,-0.00021547371691451586
3901.6,-0.0002171592911559971
3902.51,-0.00021695956148806117
3903.41,-0.00021511872423108703
3904.31,-0.00021337676113414016
3905.21,-0.00021281524801888127
3906.11,-0.00021303950238694516
3907.01,-0.0002178059210327769
3907.91,-0.0002256478824010968
3908.81,-0.00023491559525909994
3909.71,-0.0002456057465991765
3910.61,-0.00025580153973887284
3911.51,-0.00026241228812892134
3912.41,-0.0002695073725392383
3913.31,-0.0002712581290202358
3914.21,-0.0002730417702814859
3915.11,-0.00027260934015058087
3916.01,-0.00026965240710775067
3916.91,-0.00026626411576866776
3917.81,-0.00025970383916209665
3918.71,-0.00025289341061071065
3919.61,-0.00024483619603672804
3920.51,-0.00023732439018304713
3921.41,-0.00023091936769219026
3922.31,-0.00022497810614795777
3923.21,-0.00022269790373661023
3924.11,-0.00022182529652225097
3925.01,-0.00021823233301059963
3925.91,-0.0002111433584100892
3926.81,-0.00020234015481360144
3927.71,-0.0001867741047002921
3928.61,-0.00017028017155044705
3929.51,-0.00015126177425083906
3930.41,-0.00013303301249713596
3931.31,-0.00011576200958839367
3932.21,-0.00010115613729934044
3933.11,-9.046659288887623e-05
3934.01,-8.531357960370237e-05
3934.91,-8.52591680127159e-05
3935.81,-9.165332075625104e-05
3936.71,-0.00010323918022470435
3937.61,-0.00012013132552784157
3938.51,-0.00013948664823182187
3939.42,-0.0001604478181027533
3940.32,-0.00017954509450327614
3941.22,-0.00019601559740277353
3942.12,-0.0002099831637256708
3943.02,-0.0002211587728327714
3943.92,-0.00023176410482531068
3944.82,-0.00024207099246995723
3945.72,-0.0002543361289544862
3946.62,-0.00026878473463190137
3947.52,-0.0002838143015979034
3948.42,-0.00029879526609721195
3949.32,-0.0003103027389177229
3950.22,-0.00032122586718834497
3951.12,-0.00032935247082017613
3952.02,-0.00033623331456800637
3952.92,-0.0003423387034047003
3953.82,-0.00034669677820902046
3954.72,-0.0003504381300055463
3955.62,-0.0003504273264516995
3956.52,-0.0003508538408564212
3957.42,-0.0003472852389402107
3958.32,-0.00034287576821756527
3959.22,-0.0003341500831690045
3960.12,-0.0003217439523426906
3961.02,-0.0003047462349544563
3961.92,-0.0002861871305301235
3962.82,-0.0002626802532103189
3963.72,-0.00024067659305776557
3964.62,-0.00021853468438758612
3965.52,-0.0001968259338709107
3966.42,-0.00017574569178930172
3967.32,-0.00015623020991997053
3968.22,-0.00014079964593691403
3969.12,-0.00013181111112786382
3970.02,-0.00013220697561673776
3970.92,-0.00014185603958336403
3971.82,-0.00016119794750599396
3972.72,-0.00018628864602331696
3973.62,-0.0002158609952708265
3974.52,-0.00024726221105605343
3975.42,-0.00028123295708205767
3976.32,-0.0003131595845414716
3977.22,-0.00034420518851915573
3978.13,-0.0003727837621621968
3979.03,-0.0003993954955360627
3979.93,-0.00042102974106049515
3980.83,-0.00043874793815570304
3981.73,-0.0004508855596166366
3982.63,-0.00046081931288980815
3983.53,-0.0004666802165761813
3984.43,-0.0004739522452215657
3985.33,-0.00048101942855557466
3986.23,-0.0004911831841442806
3987.13,-0.0004994640016401863
3988.03,-0.0005125696238473683
3988.93,-0.0005206745669546762
3989.83,-0.0005334201997835504
3990.73,-0.0005404108706971823
3991.63,-0.000548748729249899
3992.53,-0.0005553472808345326
3993.43,-0.0005600229295539997
3994.33,-0.0005643389212482082
3995.23,-0.0005623960107954872
3996.13,-0.0005597996157295632
3997.03,-0.0005603122084532902
3997.93,-0.0005613761487225304
3998.83,-0.0005686348085104063
3999.73,-0.0005809605680309828
4000.63,-0.0005955199936509553
4001.53,-0.0006092467643424869
4002.43,-0.000619577577203649
4003.33,-0.0006224946664238769
4004.23,-0.0006166162127554429
4005.13,-0.0006097190327806034
4006.03,-0.0006049953001380495
4006.93,-0.0006030363992195192
4007.83,-0.0006074817198651728
4008.73,-0.0006215103937884464
4009.63,-0.0006376004610453301
4010.53,-0.0006555099011632139
4011.43,-0.0006679139241972268
4012.33,-0.0006830780605997614
4013.23,-0.0006931405327886139
4014.13,-0.0007025598208053134
4015.03,-0.0007090557210321527
4015.93,-0.0007149678074374861
4016.84,-0.0007160377295514971
4017.74,-0.0007226736093304797
4018.64,-0.000731518798702437
4019.54,-0.000733726612348661
4020.44,-0.000742768947522632
4021.34,-0.0007466082875476042
4022.24,-0.0007507770409357001
4023.14,-0.0007552198026453505
4024.04,-0.0007623011990878743
4024.94,-0.0007660730857036036
4025.84,-0.0007737676037464515
4026.74,-0.0007847663230474
4027.64,-0.0007926942906784064
4028.54,-0.0007970393375013574
4029.44,-0.0007888750506790562
4030.34,-0.0007748454793118057
4031.24,-0.0007543750724636185
4032.14,-0.0007322808724137687
4033.04,-0.0007190869209176396
4033.94,-0.0007207896687825618
4034.84,-0.0007372211654254044
4035.74,-0.0007620419207241848
4036.64,-0.0007968521391543165
4037.54,-0.0008307304577838039
4038.44,-0.0008612350104974518
4039.34,-0.0008792476301213634
4040.24,-0.0008948087414855334
4041.14,-0.0008925613687633789
4042.04,-0.0008820821063578315
4042.94,-0.0008597002427324882
4043.84,-0.0008320840704164531
4044.74,-0.0008023180685073809
4045.64,-0.0007826197579988814
4046.54,-0.0007690117467692238
4047.44,-0.0007855122797977474
4048.34,-0.0008116658625153523
4049.24,-0.000852092984093745
4050.14,-0.0008907771714186281
4051.04,-0.0009270697048206143
4051.94,-0.0009469105831907846
4052.84,-0.0009566605865443331
4053.74,-0.000958514453769072
4054.65,-0.0009466768230624717
4055.55,-0.0009370803833208926
4056.45,-0.0009316698380296091
4057.35,-0.0009295761918523321
4058.25,-0.0009336802399695614
4059.15,-0.0009342447281694314
4060.05,-0.0009408048920735213
4060.95,-0.0009416778400954794
4061.85,-0.0009410379759587117
4062.75,-0.0009318697784281153
4063.65,-0.0009194373099942705
4064.55,-0.0009095750468586004
4065.45,-0.0009142236898668846
4066.35,-0.0009322354393402003
4067.25,-0.0009574338482891049
4068.15,-0.0009852866419426678
4069.05,-0.001011569211787495
4069.95,-0.001030179649520466
4070.85,-0.0010390057305066107
4071.75,-0.0010401568219042198
4072.65,-0.0010458587487704825
4073.55,-0.0010438221769991675
4074.45,-0.001047812493914638
4075.35,-0.0010436548593397497
4076.25,-0.0010454879327335771
4077.15,-0.001040886443786919
4078.05,-0.001035426029977051
4078.95,-0.0010536093329453267
4079.85,-0.0010854930029094007
4080.75,-0.0011240972883835557
4081.65,-0.0011640707351914554
4082.55,-0.0011942808465064056
4083.45,-0.001214318603840787
4084.35,-0.0012345904528386039
4085.25,-0.0012555945989420338
4086.15,-0.0012705568819896167
4087.05,-0.0013037739512980363
4087.95,-0.0013350825854045933
4088.85,-0.0013691285510272595
4089.75,-0.0013961070095532535
4090.65,-0.0014171027875370418
4091.55,-0.001416876030744264
4092.45,-0.0014209909609732977
4093.36,-0.0014086207137153607
4094.26,-0.0013978104296417915
4095.16,-0.0013847439418081396
4096.06,-0.001357492768647856
4096.96,-0.0013304380924741386
4097.86,-0.0013039169008427585
4098.76,-0.0012767306032240079
4099.66,-0.0012466450146246622
4100.56,-0.001216176568691836
4101.46,-0.0011968270516425278
4102.36,-0.0011875940442481903
4103.26,-0.0011960267565255475
4104.16,-0.0012334660319432537
4105.06,-0.001290559810949566
4105.96,-0.001345625413185642
4106.86,-0.0014037955820558647
4107.76,-0.0014457830380205448
4108.66,-0.0014734955879678842
4109.56,-0.0014968514382845428
4110.46,-0.0015098054001413078
4111.36,-0.0015165250890849524
4112.26,-0.0015445760151530023
4113.16,-0.0015630474600851181
4114.06,-0.00159659019163147
4114.96,-0.0016231293899053938
4115.86,-0.0016447878099067241
4116.76,-0.0016642641740609347
4117.66,-0.0016733989499366061
4118.56,-0.0016722185942623941
4119.46,-0.0016762975414468515
4120.36,-0.001665882765370338
4121.26,-0.0016833399911220426
4122.16,-0.0016948348223416278
4123.06,-0.0017039993693669004
4123.96,-0.001728946739923652
4124.86,-0.0017462644786711392
4125.76,-0.0017711902737680741
4126.66,-0.0017739463317291366
4127.56,-0.0017791731656142638
4128.46,-0.0017734159170770245
4129.36,-0.0017596874463492952
4130.26,-0.0017385230875732016
4131.17,-0.001732212910446012
4132.06,-0.0017117983701916632
4132.97,-0.0017061857377352724
4133.87,-0.0017154256723942547
4134.77,-0.001736294725416863
4135.67,-0.0017886398936663359
4136.57,-0.001846515433786844
4137.47,-0.0018988092323288578
4138.37,-0.001968630591880679
4139.27,-0.001987031273435564
4140.17,-0.0020053049108012624
4141.07,-0.001984645271201222
4141.97,-0.001953637650426714
4142.87,-0.0019187200341730364
4143.77,-0.001875805675038488
4144.67,-0.001864881852469015
4145.57,-0.0018879936019713759
4146.47,-0.0019192296266370968
4147.37,-0.001965212078570635
4148.27,-0.0020194582783694334
4149.17,-0.002063212353474814
4150.07,-0.002088453200526038
4150.97,-0.002099511031610548
4151.87,-0.002102056768391916
4152.77,-0.00210730069169851
4153.67,-0.0021099052356260153
4154.57,-0.002107175083452955
4155.47,-0.0021285340584227667
4156.37,-0.0021492257841370507
4157.27,-0.00218306929508005
4158.17,-0.0022343546527427752
4159.07,-0.0022892494031620477
4159.97,-0.0023489347015193318
4160.87,-0.002401835186172803
4161.77,-0.002448716651702819
4162.67,-0.00247944848611512
4163.57,-0.0025126231776648827
4164.47,-0.0025366250796449246
4165.37,-0.002530409391580504
4166.27,-0.0025307629582314063
4167.17,-0.002514143465660505
4168.07,-0.0025109456055043243
4168.98,-0.0025185291817279064
4169.88,-0.002496591107389154
4170.78,-0.0024810435565692296
4171.68,-0.0024471822478608026
4172.58,-0.0024379127079012805
4173.48,-0.002408901812296202
4174.38,-0.002402460905589445
4175.28,-0.002415981168599876
4176.18,-0.0024482471989378213
4177.08,-0.0024947919974689205
4177.98,-0.002555308243752108
4178.88,-0.0025912493243110913
4179.78,-0.0026468944480627686
4180.68,-0.002696451649401567
4181.58,-0.002722189906535813
4182.48,-0.002757614107415106
4183.38,-0.002782156132091722
4184.28,-0.0028060307143895507
4185.18,-0.002828069635449212
4186.08,-0.0028561001876460895
4186.98,-0.002869484008188103
4187.88,-0.002871391046241543
4188.78,-0.0028933398646769173
4189.68,-0.002923619400038811
4190.58,-0.0029677372242201006
4191.48,-0.003026514671109242
4192.38,-0.003070640488004902
4193.28,-0.003124709671031308
4194.18,-0.0031518301142111084
4195.08,-0.003154344639747767
4195.98,-0.0031278431204667615
4196.88,-0.003092807213759557
4197.78,-0.0030495465114772783
4198.68,-0.0030027973216152784
4199.58,-0.0029906998386072772
4200.48,-0.0029895774262490883
4201.38,-0.0030114152336922053
4202.28,-0.00305946906288213
4203.18,-0.0031197792568827005
4204.08,-0.003215832635031168
4204.98,-0.0033116521160591558
4205.88,-0.0034138728672062917
4206.79,-0.003510377933273088
4207.69,-0.003611640758526497
4208.59,-0.0036981792533218706
4209.49,-0.0037592819106328458
4210.39,-0.003810489441112297
4211.29,-0.0038366697414377446
4212.19,-0.003850711124572104
4213.09,-0.0038745454313715193
4213.99,-0.003842027879059398
4214.89,-0.0038250132335420194
4215.79,-0.0038327219880084067
4216.69,-0.003834808788122386
4217.59,-0.003901344297706208
4218.49,-0.003971895354922766
4219.39,-0.004082731254833205
4220.29,-0.004167608670540264
4221.19,-0.0041983275303708245
4222.09,-0.004174777955845156
4222.99,-0.004099795588704063
4223.89,-0.00393497468625718
4224.79,-0.0037475432073814244
4225.69,-0.0035706748813334127
4226.59,-0.0034326298027245886
4227.49,-0.003367629167578375
4228.39,-0.0034464132017935673
4229.29,-0.0036274845196511045
4230.19,-0.003848410120843546
4231.09,-0.004078904056279003
4231.99,-0.004304991031586452
4232.89,-0.004417786130738139
4233.79,-0.0044792340385778765
4234.69,-0.0044988925078237735
4235.59,-0.0044899756131935855
4236.49,-0.004508384978241967
4237.39,-0.004528694713561892
4238.29,-0.00457958705846047
4239.19,-0.0046561620457823355
4240.09,-0.004754102813649243
4240.99,-0.0048708648159709565
4241.89,-0.004993661626995754
4242.79,-0.005140343387868763
4243.69,-0.0052440187000202185
4244.59,-0.00534077478133427
4245.5,-0.005401034173736075
4246.4,-0.005397463844425362
4247.3,-0.005353984345121763
4248.2,-0.005302320143513126
4249.1,-0.005217980603847613
4250.0,-0.005158819994521332
4250.9,-0.00511871196084257
4251.8,-0.005159666744382985
4252.7,-0.0052005755867093545
4253.6,-0.005272945365531017
4254.5,-0.005327712740539736
4255.4,-0.005424990711310007
4256.3,-0.00548813766065861
4257.2,-0.005579269752950697
4258.1,-0.005643290659070989
4259.0,-0.005639268342678093
4259.9,-0.005673000083065547
4260.8,-0.005688143920388688
4261.7,-0.005754892233345177
4262.6,-0.005892366144608056
4263.5,-0.0060841225782829154
4264.4,-0.006355021434610865
4265.3,-0.006537443647827852
4266.2,-0.006661681122123767
4267.1,-0.006704556972034513
4268.0,-0.006687577760645984
4268.9,-0.006547347339485898
4269.8,-0.006361840559721067
4270.7,-0.00615634569224041
4271.6,-0.0059308775185044574
4272.5,-0.005807733244732956
4273.4,-0.00576308925984756
4274.3,-0.005812632480959786
4275.2,-0.005968243767196293
4276.1,-0.0062202360675520435
4277.0,-0.0065402241987683974
4277.9,-0.00677844026589706
4278.8,-0.007050548155421323
4279.7,-0.007201852232670335
4280.6,-0.007318075618671006
4281.5,-0.0073447821683876756
4282.4,-0.007390205573752325
4283.31,-0.007397070118055485
