wave,flux
3700.85,-6.879231456700022e-05
3701.75,-6.85382734102366e-05
3702.65,-6.659975269186863e-05
3703.55,-6.415834222370145e-05
3704.45,-6.134146844663018e-05
3705.35,-5.8404053873517435e-05
3706.25,-5.702896543754482e-05
3707.15,-5.641089584578491e-05
3708.05,-5.711894094277974e-05
3708.96,-5.8445399805511316e-05
3709.86,-6.0028129016175004e-05
3710.76,-6.181179761030072e-05
3711.66,-6.405573529697673e-05
3712.56,-6.703518705516725e-05
3713.46,-7.007315914778598e-05
3714.36,-7.329500265844739e-05
3715.26,-7.530317678222843e-05
3716.16,-7.689453566113754e-05
3717.06,-7.618268055023747e-05
3717.96,-7.436466801266153e-05
3718.86,-7.06753737406766e-05
3719.76,-6.658299064382387e-05
3720.66,-6.244626773804436e-05
3721.56,-5.9477521290321076e-05
3722.46,-5.879654005679546e-05
3723.36,-6.052724485107727e-05
3724.26,-6.399669547405348e-05
3725.16,-6.8251351365915e-05
3726.06,-7.17726727092709e-05
3726.96,-7.421892041336799e-05
3727.86,-7.534292824098001e-05
3728.76,-7.644343050828229e-05
3729.66,-7.605197990464353e-05
3730.56,-7.50165338935491e-05
3731.46,-7.239503552502627e-05
3732.36,-6.891486174825198e-05
3733.26,-6.419676343637773e-05
3734.16,-6.005925966556025e-05
3735.06,-5.713412665878024e-05
3735.96,-5.613227838595492e-05
3736.86,-5.7575693751230674e-05
3737.76,-6.11852416096918e-05
3738.66,-6.636568880395575e-05
3739.56,-7.239640631110434e-05
3740.46,-7.744296529223028e-05
3741.36,-8.087556982353807e-05
3742.26,-8.219476413904443e-05
3743.16,-8.180693800963212e-05
3744.06,-8.015275324377337e-05
3744.96,-7.7005747493492e-05
3745.86,-7.364024115925068e-05
3746.76,-6.981756740172126e-05
3747.67,-6.642124939925664e-05
3748.57,-6.353495810120202e-05
3749.47,-6.193071833675198e-05
3750.37,-6.248298491206388e-05
3751.27,-6.569723954001951e-05
3752.17,-7.120393783192922e-05
3753.07,-7.780664019899572e-05
3753.97,-8.459223907388564e-05
3754.87,-9.036859328896392e-05
3755.77,-9.361630986623233e-05
3756.67,-9.466992439866876e-05
3757.57,-9.356792651513452e-05
3758.47,-9.161371862777664e-05
3759.37,-8.963460838284924e-05
3760.27,-8.864444866615843e-05
3761.17,-8.935420009179343e-05
3762.07,-9.142194534863639e-05
3762.97,-9.329376587497873e-05
3763.87,-9.437257352801066e-05
3764.77,-9.531836027895594e-05
3765.67,-9.534834783045926e-05
3766.57,-9.482311098152995e-05
3767.47,-9.261279890051188e-05
3768.37,-9.027992716022447e-05
3769.27,-8.924702326383555e-05
3770.17,-8.846739799166135e-05
3771.07,-8.881326981007374e-05
3771.97,-9.13469841311461e-05
3772.87,-9.45605207376479e-05
3773.77,-9.843071067629633e-05
3774.67,-0.00010367599779907841
3775.57,-0.00010766015243109483
3776.47,-0.00011088998082549736
3777.37,-0.00011442186677651282
3778.27,-0.0001179565918601818
3779.17,-0.00012156950117193808
3780.07,-0.0001252773983497295
3780.97,-0.0001286967210344155
3781.87,-0.00013081572061269316
3782.77,-0.00013346477429294402
3783.67,-0.00013373514041535228
3784.57,-0.0001329239272222089
3785.47,-0.00013084769378248024
3786.38,-0.0001273562297993595
3787.28,-0.00012409784503143454
3788.18,-0.00012079900418188626
3789.08,-0.0001176926371382249
3789.98,-0.00011707055518793745
3790.88,-0.00011583286658478837
3791.78,-0.00011516856822704172
3792.68,-0.00011318066346793493
3793.58,-0.00011109724378197065
3794.48,-0.00010732777652493487
3795.38,-0.00010327732638275862
3796.28,-9.898691481530277e-05
3797.18,-9.515543588775602e-05
3798.08,-9.299543143208017e-05
3798.98,-9.313759835243846e-05
3799.88,-9.704939952293016e-05
3800.78,-0.00010326674758037546
3801.68,-0.00011134883150389673
3802.58,-0.00012053495412614423
3803.48,-0.0001281769081420684
3804.38,-0.00013484727459142455
3805.28,-0.0001391960300367934
3806.18,-0.00014148775485128208
3807.08,-0.00014354864619373894
3807.98,-0.00014526315022479416
3808.88,-0.0001481566810436462
3809.78,-0.0001511001421091433
3810.68,-0.000152539081113254
3811.58,-0.00015325557701215047
3812.48,-0.00015146353330686713
3813.38,-0.0001485989608458137
3814.28,-0.00014500036789037604
3815.18,-0.0001418413898041659
3816.08,-0.0001401139000724545
3816.98,-0.00014028112164552275
3817.88,-0.0001407388996423712
3818.78,-0.0001417460125195136
3819.68,-0.00014178655232419788
3820.58,-0.00014127824221977868
3821.48,-0.0001402364235776292
3822.38,-0.00013927720104560596
3823.28,-0.0001372723082669164
3824.18,-0.00013628786276791258
3825.09,-0.0001335452645342429
3825.99,-0.0001303426571036686
3826.89,-0.00012722286456273067
3827.79,-0.00012455622064278893
3828.69,-0.00012377851365660486
3829.59,-0.00012170579105673996
3830.49,-0.00012010569519528268
3831.39,-0.00011629705737631052
3832.29,-0.00011258599657367967
3833.19,-0.00010730353986594405
3834.09,-0.0001028093295228162
3834.99,-9.91473116886635e-05
3835.89,-9.838182492425048e-05
3836.79,-9.892820235275898e-05
3837.69,-0.0001014485635565363
3838.59,-0.00010574718719038476
3839.49,-0.00011141240330487596
3840.39,-0.00011904060726400412
3841.29,-0.00012757253505196517
3842.19,-0.00013742020191418196
3843.09,-0.00014682580275335777
3843.99,-0.00015619263232919477
3844.89,-0.0001643482397362794
3845.79,-0.0001709821868497035
3846.69,-0.00017616736342997077
3847.59,-0.0001797233870406143
3848.49,-0.00018300529818722564
3849.39,-0.00018504815810181202
3850.29,-0.0001870704016493145
3851.19,-0.00018944826816792858
3852.09,-0.000191381341910647
3852.99,-0.00019364829440956713
3853.89,-0.00019511530414528276
3854.79,-0.00019451468857848098
3855.69,-0.0001944434622394769
3856.59,-0.00019256388870620688
3857.49,-0.00018949848567627716
3858.39,-0.00018787811829725572
3859.29,-0.00018660525753067697
3860.19,-0.00018760536574966935
3861.09,-0.0001911476431233505
3861.99,-0.00019627833098348208
3862.9,-0.00020276644286560462
3863.8,-0.00020818200730971092
3864.7,-0.00021359505448247608
3865.6,-0.00021631804519155835
3866.5,-0.00021804125390221705
3867.4,-0.00021780271742706774
3868.3,-0.0002179099421924449
3869.2,-0.00021702451481377778
3870.1,-0.00021504282279120413
3871.0,-0.00021159155407025855
3871.9,-0.00020815592726274902
3872.8,-0.00020628252687906266
3873.7,-0.00020574269932003693
3874.6,-0.00020738566854343319
3875.5,-0.00020967616490947315
3876.4,-0.00021189655634068594
3877.3,-0.0002120917698220527
3878.2,-0.0002101643695674481
3879.1,-0.00020967398450884978
3880.0,-0.0002086465630376674
3880.9,-0.0002075145319057227
3881.8,-0.00020764920804206005
3882.7,-0.0002071450854866172
3883.6,-0.00020371027817293557
3884.5,-0.0001993569226289051
3885.4,-0.00019298180722689508
3886.3,-0.00018565670238355125
3887.2,-0.00017726914518590917
3888.1,-0.00017131576694442234
3889.0,-0.00016818154053478866
3889.9,-0.00016941602206629918
3890.8,-0.00017570081436574966
3891.7,-0.0001850637816593493
3892.6,-0.00019640004039036917
3893.5,-0.000207999878175817
3894.4,-0.00021744306568761398
3895.3,-0.00022534060424524705
3896.2,-0.00023207469209625623
3897.1,-0.0002385452688240218
3898.0,-0.00024404135583718905
3898.9,-0.0002492229087092727
3899.8,-0.0002534158324028935
3900.7,-0.00025752497937145543
3901.6,-0.00026107804382376226
3902.51,-0.00026370204546305237
3903.41,-0.0002632077060208769
3904.31,-0.00026483771572317417
3905.21,-0.0002657601122986371
3906.11,-0.00026654231906028463
3907.01,-0.00027119605059697515
3907.91,-0.0002773594964111278
3908.81,-0.0002853294459991159
3909.71,-0.00029504625860367307
3910.61,-0.0003038569212918255
3911.51,-0.0003109817476979838
3912.41,-0.0003151184419744001
3913.31,-0.0003166999337810679
3914.21,-0.00031734171352876543
3915.11,-0.0003167089463602644
3916.01,-0.0003155283901611439
3916.91,-0.00031317586486055547
3917.81,-0.0003103521000461962
3918.71,-0.0003077227138050939
3919.61,-0.00030455419362684395
3920.51,-0.00030173616663741566
3921.41,-0.0002988607361068558
3922.31,-0.00029867096068964455
3923.21,-0.00029769233435918857
3924.11,-0.0002974064508605658
3925.01,-0.0002938371462476802
3925.91,-0.00028757021806710383
3926.81,-0.00027631748753848093
3927.71,-0.0002607681798599761
3928.61,-0.00024164460581130326
3929.51,-0.0002197347180604706
3930.41,-0.00019607770415595947
3931.31,-0.00017191493735510186
3932.21,-0.00015054012534312851
3933.11,-0.0001336737059910691
3934.01,-0.0001233632424592595
3934.91,-0.00012310447740328768
3935.81,-0.00013075083275408008
3936.71,-0.0001475028909721894
3937.61,-0.00017089943201411374
3938.51,-0.00019854500130284865
3939.42,-0.00022636276189081633
3940.32,-0.000251174611557233
3941.22,-0.00027304024360476527
3942.12,-0.00029005518469662713
3943.02,-0.0003029293980095735
3943.92,-0.0003142272534598518
3944.82,-0.0003231360678581014
3945.72,-0.0003331340233442395
3946.62,-0.0003458339187114949
3947.52,-0.00035483419248813215
3948.42,-0.0003646807159365816
3949.32,-0.0003730488228206526
3950.22,-0.0003801752463295918
3951.12,-0.0003849812170347127
3952.02,-0.0003896397408744391
3952.92,-0.0003922062446586266
3953.82,-0.00039707208809578517
3954.72,-0.00039787573982611515
3955.62,-0.00039956584910288246
3956.52,-0.00040035019862113424
3957.42,-0.0003986607120546413
3958.32,-0.0003960513491537066
3959.22,-0.0003899074658602032
3960.12,-0.00038303184411269244
3961.02,-0.0003709074298795578
3961.92,-0.0003538726778491577
3962.82,-0.00033444100579510554
3963.72,-0.0003113204810600255
3964.62,-0.00028807538421510206
3965.52,-0.00025927195503604503
3966.42,-0.00023172263603500877
3967.32,-0.00020469545150502707
3968.22,-0.0001822226557508875
3969.12,-0.00016884061384211382
3970.02,-0.00016553434096496224
3970.92,-0.00017403595940701259
3971.82,-0.00019376256816657945
3972.72,-0.00022161626904699218
3973.62,-0.0002537995546282268
3974.52,-0.0002884746240570913
3975.42,-0.00032206757106055436
3976.32,-0.0003541079598277346
3977.22,-0.0003839932345943544
3978.13,-0.00041199527518826824
3979.03,-0.0004365766732831804
3979.93,-0.0004594629135616898
3980.83,-0.00047389639522318737
3981.73,-0.0004881785486046071
3982.63,-0.0004980701244564433
3983.53,-0.0005036474737726338
3984.43,-0.0005114338387232081
3985.33,-0.0005206699725249157
3986.23,-0.0005289077826472718
3987.13,-0.0005356459215667799
3988.03,-0.0005464229277602841
3988.93,-0.0005589474456007933
3989.83,-0.0005671106153266782
3990.73,-0.0005775503848102043
3991.63,-0.0005865512215964417
3992.53,-0.0005930112546680007
3993.43,-0.000599680412362416
3994.33,-0.0006013608086541994
3995.23,-0.0006060258593917127
3996.13,-0.0006028093207140662
3997.03,-0.0006009537855739503
3997.93,-0.0006064921928686306
3998.83,-0.000612195163764741
3999.73,-0.0006209530421340428
4000.63,-0.0006332242645235177
4001.53,-0.0006482434819177599
4002.43,-0.0006570488693977784
4003.33,-0.000661020431320664
4004.23,-0.0006581696158274705
4005.13,-0.000655299006387743
4006.03,-0.0006509860305688229
4006.93,-0.0006517811953711792
4007.83,-0.0006562067850220057
4008.73,-0.0006696414016173103
4009.63,-0.0006840521863204922
4010.53,-0.0006982233000864988
4011.43,-0.0007092335142703696
4012.33,-0.0007176377956672923
4013.23,-0.0007269591581743064
4014.13,-0.0007367311358857856
4015.03,-0.0007408500024690517
4015.93,-0.0007464508660420264
4016.84,-0.0007548345740528322
4017.74,-0.0007578751670573762
4018.64,-0.000766510181234419
4019.54,-0.0007738108931255744
4020.44,-0.0007840214810740014
4021.34,-0.0007882557918671087
4022.24,-0.0007952609032114558
4023.14,-0.0007980797689314358
4024.04,-0.0008040072902635448
4024.94,-0.0008085841707770293
4025.84,-0.0008116285580108443
4026.74,-0.0008235000344919478
4027.64,-0.0008291160034029371
4028.54,-0.0008359118642976746
4029.44,-0.0008304542673062092
4030.34,-0.000816082419579696
4031.24,-0.0008065285192638166
4032.14,-0.000793204747323987
4033.04,-0.0007893143030085032
4033.94,-0.0007936997648019352
4034.84,-0.0008070219654529492
4035.74,-0.0008298243057943109
4036.64,-0.0008574374902433049
4037.54,-0.0008887242984588697
4038.44,-0.0009095677030767751
4039.34,-0.0009254104086300254
4040.24,-0.0009298044700455241
4041.14,-0.0009313136716044497
4042.04,-0.0009232051678847913
4042.94,-0.0009122861995996058
4043.84,-0.0008966293686882751
4044.74,-0.0008810658671720487
4045.64,-0.0008716671966078181
4046.54,-0.0008717126657055015
4047.44,-0.000877167203547462
4048.34,-0.0009047216725814093
4049.24,-0.000929653199603524
4050.14,-0.0009563847894063228
4051.04,-0.0009792297333238514
4051.94,-0.0009904152447775293
4052.84,-0.0009984466081956126
4053.74,-0.0009874015762629358
4054.65,-0.0009855067269257775
4055.55,-0.0009768426413217578
4056.45,-0.0009762302854795227
4057.35,-0.000973695856586893
4058.25,-0.0009829486454905796
4059.15,-0.000990229530136929
4060.05,-0.00099828850425206
4060.95,-0.0010061371546935321
4061.85,-0.001011122906576172
4062.75,-0.0010096254585946222
4063.65,-0.0010028430894469514
4064.55,-0.0009987948201180604
4065.45,-0.0010032284567083527
4066.35,-0.0010158800548782359
4067.25,-0.0010362868852275633
4068.15,-0.0010553646055009786
4069.05,-0.0010761358733380974
4069.95,-0.001084663697745965
4070.85,-0.0010956676398337591
4071.75,-0.0010985866101676195
4072.65,-0.0011026423042055486
4073.55,-0.0011048094974695753
4074.45,-0.0011006220102939414
4075.35,-0.0010965329603850197
4076.25,-0.0010874253414694778
4077.15,-0.001082983674703614
4078.05,-0.0010781154232164026
4078.95,-0.001083842699629206
4079.85,-0.0011089440742572804
4080.75,-0.001139207349372115
4081.65,-0.0011625816683215697
4082.55,-0.0011871823449029143
4083.45,-0.0012121979381907286
4084.35,-0.0012206597096582417
4085.25,-0.0012340733165489724
4086.15,-0.001248743993568116
4087.05,-0.0012711450701773062
4087.95,-0.0012907222870507334
4088.85,-0.001316240280177049
4089.75,-0.0013327987257685358
4090.65,-0.0013447692148127247
4091.55,-0.0013435711637887749
4092.45,-0.001339460424293172
4093.36,-0.001331913396552391
4094.26,-0.00132134650695863
4095.16,-0.0013007768992274811
4096.06,-0.0012770964307863264
4096.96,-0.0012425847070192749
4097.86,-0.001209608515052489
4098.76,-0.0011661124086720302
4099.66,-0.0011285208677955527
4100.56,-0.0010845365792337722
4101.46,-0.001049840390341783
4102.36,-0.0010351440425301166
4103.26,-0.0010402412460614975
4104.16,-0.001072262638587547
4105.06,-0.0011332277182694727
4105.96,-0.001192688355268908
4106.86,-0.0012560200501367013
4107.76,-0.0013107154380130157
4108.66,-0.0013601552388570772
4109.56,-0.0013910142581758818
4110.46,-0.001415564410163041
4111.36,-0.0014477145474138396
4112.26,-0.0014769460396609174
4113.16,-0.0015063254721402926
4114.06,-0.0015431067990870546
4114.96,-0.0015724361817090996
4115.86,-0.0015963330497202914
4116.76,-0.0016188318402832668
4117.66,-0.0016337751077172362
4118.56,-0.0016267377435462116
4119.46,-0.001629383258221352
4120.36,-0.0016351551659307595
4121.26,-0.0016472101771454026
4122.16,-0.001661862313421186
4123.06,-0.0016652298435823575
4123.96,-0.0016939214338092866
4124.86,-0.0017110344205578183
4125.76,-0.0017220820041416616
4126.66,-0.0017408767950341025
4127.56,-0.0017455808641140917
4128.46,-0.00174761342979937
4129.36,-0.001748255114876492
4130.26,-0.0017524596820984
4131.17,-0.0017410263735167758
4132.06,-0.0017487617091455855
4132.97,-0.001749245690910269
4133.87,-0.0017640210746518055
4134.77,-0.0017823465628818167
4135.67,-0.0018285095872470302
4136.57,-0.0018764068498657895
4137.47,-0.0019243080390054681
4138.37,-0.001973983091899818
4139.27,-0.0020066013700109505
4140.17,-0.002030449535392036
4141.07,-0.0020228484615126175
4141.97,-0.0020095844269244485
4142.87,-0.0019898016034324306
4143.77,-0.0019721016693585217
4144.67,-0.001969714292107447
4145.57,-0.0019833030614542706
4146.47,-0.0020121617603945196
4147.37,-0.0020469837251302983
4148.27,-0.0020858512405744923
4149.17,-0.002106097896991627
4150.07,-0.0021230007810847775
4150.97,-0.002134097335687281
4151.87,-0.002137679485623827
4152.77,-0.0021458435611333877
4153.67,-0.0021492753709394896
4154.57,-0.002154814592134905
4155.47,-0.002169809979266191
4156.37,-0.0021857022104281223
4157.27,-0.00220753857624079
4158.17,-0.002251003939647069
4159.07,-0.0022844622905029426
4159.97,-0.002336595278053446
4160.87,-0.002379225103078117
4161.77,-0.0024181151646908376
4162.67,-0.00245281015825416
4163.57,-0.0024769878729911875
4164.47,-0.0025179605720220054
4165.37,-0.0025096068336115506
4166.27,-0.002530341816726667
4167.17,-0.002526366694931886
4168.07,-0.002533656126647338
4168.98,-0.002515710436763317
4169.88,-0.002511473319466133
4170.78,-0.0024898662040501677
4171.68,-0.0024932412168887593
4172.58,-0.0024625917519333915
4173.48,-0.0024376094609843196
4174.38,-0.0024287221020558823
4175.28,-0.002451690211403723
4176.18,-0.0024765234897729674
4177.08,-0.002517752596727884
4177.98,-0.002557532468618365
4178.88,-0.0025944660991055407
4179.78,-0.002650942719006041
4180.68,-0.0026829895605896764
4181.58,-0.0027298843832546235
4182.48,-0.0027675223819163173
4183.38,-0.0027899225813774768
4184.28,-0.0028233100860781007
4185.18,-0.002847206697059962
4186.08,-0.002868608338952074
4186.98,-0.002880504469624948
4187.88,-0.0029000607368125275
4188.78,-0.0029358848502666272
4189.68,-0.0029597871968364505
4190.58,-0.0030041578276963263
4191.48,-0.003046921104794204
4192.38,-0.0030956724945853213
4193.28,-0.003144270192332469
4194.18,-0.0031781914284410126
4195.08,-0.0031942455713552835
4195.98,-0.0031661442822848774
4196.88,-0.003155583093876281
4197.78,-0.0031286429888101788
4198.68,-0.003099849637734544
4199.58,-0.003095673139925989
4200.48,-0.0031170336642503335
4201.38,-0.0031284417011454013
4202.28,-0.003166571983951877
4203.18,-0.0032173170876561297
4204.08,-0.0032853521270412617
4204.98,-0.00333892113338364
4205.88,-0.0034056494672109238
4206.79,-0.003484696190927421
4207.69,-0.003546866425876046
4208.59,-0.00362861941330274
4209.49,-0.003688827847660178
4210.39,-0.0037349630288564394
4211.29,-0.0037602592399716573
4212.19,-0.003792290464593601
4213.09,-0.0038106828224280967
4213.99,-0.0038125235609855375
4214.89,-0.003803879592935245
4215.79,-0.0038106964913197463
4216.69,-0.0038331420250498453
4217.59,-0.0038853322617177473
4218.49,-0.003944789410069557
4219.39,-0.004012437395445195
4220.29,-0.004099593565881359
4221.19,-0.004137465182739108
4222.09,-0.004156342724906865
4222.99,-0.004100824485907409
4223.89,-0.0040183956631337486
4224.79,-0.003906576239905639
4225.69,-0.0037974912359182433
4226.59,-0.0037249984233403578
4227.49,-0.0037091315755143506
4228.39,-0.0037717287642321513
4229.29,-0.0039000582456000755
4230.19,-0.004088643596362339
4231.09,-0.004239113554121426
4231.99,-0.0043842944802708755
4232.89,-0.004474596332971311
4233.79,-0.004516574177411079
4234.69,-0.004529140700605767
4235.59,-0.004513195964793724
4236.49,-0.004522752787818687
4237.39,-0.0045483503932229104
4238.29,-0.004573749075781434
4239.19,-0.00462729181534805
4240.09,-0.004693217174507593
4240.99,-0.004798288027249943
4241.89,-0.004886995183405987
4242.79,-0.005003092778184402
4243.69,-0.005079986411061415
4244.59,-0.005141734799864802
4245.5,-0.005208757108576104
4246.4,-0.005201740065063524
4247.3,-0.005194174088352067
4248.2,-0.005155936812292327
4249.1,-0.005143404668837645
4250.0,-0.005154555213310109
4250.9,-0.005154663627558848
4251.8,-0.005198964301739563
4252.7,-0.005277827772875866
4253.6,-0.005351931757228779
4254.5,-0.005418209596327086
4255.4,-0.005512733694257033
4256.3,-0.005572170870813285
4257.2,-0.00563336919410991
4258.1,-0.005647735384766284
4259.0,-0.005661439896678747
4259.9,-0.005674023697065071
4260.8,-0.005702360039613248
4261.7,-0.005785013456052544
4262.6,-0.005872266046260552
4263.5,-0.006042336403526044
4264.4,-0.006221611932888424
4265.3,-0.006336378396675075
4266.2,-0.0064392911757278565
4267.1,-0.006509422754690536
4268.0,-0.006495134701790783
4268.9,-0.006423415315078912
4269.8,-0.006307672099914334
4270.7,-0.006186467555692306
4271.6,-0.00610113257445819
4272.5,-0.006023324705192166
4273.4,-0.006040069543413308
4274.3,-0.00610488304854494
4275.2,-0.006228563094931893
4276.1,-0.006424738841036378
4277.0,-0.006642465118960417
4277.9,-0.006791217098837267
4278.8,-0.006960838425554194
4279.7,-0.007036580100761305
4280.6,-0.007133942056832348
4281.5,-0.007205119257847095
4282.4,-0.007242201510740624
4283.31,-0.0072300778880181075
