wave,flux
3700.85,-0.00011493257258071742
3701.75,-0.0001139025184800222
3702.65,-0.00011116880602430287
3703.55,-0.00010729422784712042
3704.45,-0.00010265836457761321
3705.35,-9.871300294486447e-05
3706.25,-9.648030663037083e-05
3707.15,-9.632975854777084e-05
3708.05,-9.720469422267311e-05
3708.96,-9.918496169699806e-05
3709.86,-0.00010155606456645131
3710.76,-0.00010467233213991445
3711.66,-0.00010829732127487264
3712.56,-0.00011267202947881322
3713.46,-0.0001178074431251049
3714.36,-0.00012226108661806445
3715.26,-0.0001258082772328394
3716.16,-0.0001278356029494752
3717.06,-0.00012740078015660252
3717.96,-0.00012445121516726332
3718.86,-0.00011906622100207801
3719.76,-0.00011213470698562021
3720.66,-0.00010529664208717498
3721.56,-0.00010075576833567421
3722.46,-9.99322045185909e-05
3723.36,-0.0001023702639738719
3724.26,-0.00010781366347861458
3725.16,-0.00011437628866309986
3726.06,-0.00012081586079239273
3726.96,-0.00012536701257292323
3727.86,-0.00012763160766853592
3728.76,-0.00012878676153950546
3729.66,-0.00012847577913228494
3730.56,-0.00012680962620674658
3731.46,-0.0001242783828664091
3732.36,-0.00011842086389948717
3733.26,-0.00011131751642644277
3734.16,-0.00010450500600528102
3735.06,-9.905592461702607e-05
3735.96,-9.708619572573735e-05
3736.86,-9.847663120543756e-05
3737.76,-0.00010398973306841464
3738.66,-0.00011215423207912947
3739.56,-0.00012079377595412641
3740.46,-0.00012931632052695183
3741.36,-0.00013560428815130037
3742.26,-0.0001381907560338132
3743.16,-0.00013738520194049418
3744.06,-0.00013449244396202014
3744.96,-0.00012981473688109866
3745.86,-0.00012466853539947942
3746.76,-0.00011942110101646052
3747.67,-0.00011399516303261879
3748.57,-0.00010985931058194975
3749.47,-0.00010730940053908264
3750.37,-0.00010826097240684951
3751.27,-0.00011408826622291235
3752.17,-0.00012260795758868784
3753.07,-0.00013344504162124743
3753.97,-0.00014448605126412954
3754.87,-0.00015288556181783903
3755.77,-0.0001584002328541285
3756.67,-0.00015958479215173626
3757.57,-0.00015678909747149673
3758.47,-0.00015316090154159748
3759.37,-0.00015091343761708596
3760.27,-0.00014943758461937874
3761.17,-0.00015105401674989446
3762.07,-0.00015351038572175004
3762.97,-0.00015814109753467266
3763.87,-0.00016151825968829323
3764.77,-0.0001633387981711415
3765.67,-0.00016403575293771238
3766.57,-0.00016276359666749586
3767.47,-0.0001611867148761496
3768.37,-0.0001593830646584345
3769.27,-0.0001570896891814792
3770.17,-0.00015610439765258624
3771.07,-0.0001565003154647076
3771.97,-0.00015973328744894877
3772.87,-0.00016593263050641786
3773.77,-0.00017237429255471628
3774.67,-0.00017829044286264947
3775.57,-0.00018473835890760204
3776.47,-0.00018959367633184507
3777.37,-0.00019474589609929212
3778.27,-0.00019949933586991628
3779.17,-0.0002043091692213555
3780.07,-0.00021010445803807472
3780.97,-0.0002143780947176709
3781.87,-0.0002183231792868616
3782.77,-0.00022122678455509554
3783.67,-0.00022228195551711824
3784.57,-0.00022164077325778256
3785.47,-0.00021697182261862054
3786.38,-0.0002130060994537906
3787.28,-0.0002086690036937843
3788.18,-0.00020504582726589468
3789.08,-0.0002010995341943567
3789.98,-0.00020032786378430527
3790.88,-0.00019995532423169575
3791.78,-0.00019875707527206214
3792.68,-0.00019754123629047246
3793.58,-0.00019505124382000554
3794.48,-0.0001897270778432593
3795.38,-0.0001838455501605426
3796.28,-0.00017754404064009393
3797.18,-0.00017251526324960016
3798.08,-0.0001692224851858671
3798.98,-0.00016975707825793508
3799.88,-0.00017480177844475823
3800.78,-0.00018512830843316782
3801.68,-0.00019896332554469992
3802.58,-0.00021248790093230145
3803.48,-0.00022445252328963288
3804.38,-0.00023387428338838683
3805.28,-0.00024033934149415826
3806.18,-0.0002443408508613709
3807.08,-0.00024535886902711957
3807.98,-0.0002465903366805899
3808.88,-0.0002514326759778223
3809.78,-0.0002533304173520216
3810.68,-0.0002575075039890039
3811.58,-0.00025619650479521424
3812.48,-0.00025240111151991903
3813.38,-0.000248881280153569
3814.28,-0.0002429753138881518
3815.18,-0.00023690374825169737
3816.08,-0.00023412610086729732
3816.98,-0.00023349967492248714
3817.88,-0.00023487998080371988
3818.78,-0.0002351568225522678
3819.68,-0.00023562648573067577
3820.58,-0.0002338036557332476
3821.48,-0.00023252038072872166
3822.38,-0.00023226890160359896
3823.28,-0.0002310083966397088
3824.18,-0.00022821944994191594
3825.09,-0.00022429522329073657
3825.99,-0.00021921862587402302
3826.89,-0.00021545368485856284
3827.79,-0.00021249366014037987
3828.69,-0.00021064747532940738
3829.59,-0.00020997828507239862
3830.49,-0.0002066386577958828
3831.39,-0.00020280646388004764
3832.29,-0.00019598311187928911
3833.19,-0.0001882141078960491
3834.09,-0.00018111742092065096
3834.99,-0.00017642362199199758
3835.89,-0.00017469777332973166
3836.79,-0.00017678083647673743
3837.69,-0.00018098871436406807
3838.59,-0.00018665056117029584
3839.49,-0.00019498920055524183
3840.39,-0.00020620737863547638
3841.29,-0.00022024074908349648
3842.19,-0.00023630128337337326
3843.09,-0.00025330878978203805
3843.99,-0.0002686665765773915
3844.89,-0.0002820848070173464
3845.79,-0.0002918570399780715
3846.69,-0.00030001565941391555
3847.59,-0.0003054881186969918
3848.49,-0.000309112620150614
3849.39,-0.00031213224731560106
3850.29,-0.0003131369230361424
3851.19,-0.0003147040950879693
3852.09,-0.00031772992590521073
3852.99,-0.000321998789847626
3853.89,-0.00032316846505513387
3854.79,-0.0003239437372591289
3855.69,-0.0003226262848794801
3856.59,-0.00031842663912308076
3857.49,-0.00031087297286536093
3858.39,-0.0003057084835476015
3859.29,-0.0003022965038038768
3860.19,-0.00030385984667421134
3861.09,-0.000306208231074871
3861.99,-0.00031664705109224397
3862.9,-0.0003294418988958288
3863.8,-0.00034026140337831275
3864.7,-0.00034953395942008886
3865.6,-0.00035587781928627006
3866.5,-0.0003592983429627039
3867.4,-0.00036104012529657745
3868.3,-0.00036205571220151593
3869.2,-0.0003600738312064208
3870.1,-0.00035636037046119987
3871.0,-0.00035000279610396083
3871.9,-0.0003436206637761192
3872.8,-0.0003383986266082228
3873.7,-0.0003357241882678374
3874.6,-0.00033878407862565234
3875.5,-0.0003423239308998698
3876.4,-0.00034575578369591686
3877.3,-0.0003478786952852985
3878.2,-0.00034599722776057203
3879.1,-0.000346287281296537
3880.0,-0.00034785148250584543
3880.9,-0.0003505687372453422
3881.8,-0.0003523410456062211
3882.7,-0.00035226263740765194
3883.6,-0.0003493030069460177
3884.5,-0.00034416539240674047
3885.4,-0.00033567615736837303
3886.3,-0.00032502618533872816
3887.2,-0.00031256184420766546
3888.1,-0.00030120682389139065
3889.0,-0.00029614917844722824
3889.9,-0.0002989938748385019
3890.8,-0.0003062849461633266
3891.7,-0.0003227663786463337
3892.6,-0.0003381966696438701
3893.5,-0.00035388596137003606
3894.4,-0.00036872277076632396
3895.3,-0.0003789684429160814
3896.2,-0.0003881726902693627
3897.1,-0.00039445608746830463
3898.0,-0.0004033117746196956
3898.9,-0.00041092829754066585
3899.8,-0.00041520527835139524
3900.7,-0.0004190558861227399
3901.6,-0.000421491207881678
3902.51,-0.00042566222180046595
3903.41,-0.00042407494196695537
3904.31,-0.00042326475635166795
3905.21,-0.000425493582546408
3906.11,-0.00042595599499920596
3907.01,-0.0004320492787170613
3907.91,-0.00044012471799076836
3908.81,-0.00045501586911379153
3909.71,-0.00046930647036386977
3910.61,-0.0004815724163138426
3911.51,-0.0004921254067690028
3912.41,-0.0004989785320836765
3913.31,-0.0005041833595253695
3914.21,-0.0005029408339325345
3915.11,-0.000501642813146699
3916.01,-0.0004981321785354424
3916.91,-0.000494771144866472
3917.81,-0.0004895105871130722
3918.71,-0.0004838325417402028
3919.61,-0.00047833469853261924
3920.51,-0.00047267708519573617
3921.41,-0.0004667509896775788
3922.31,-0.0004647003272068953
3923.21,-0.00046296079399901194
3924.11,-0.0004611590596687977
3925.01,-0.00045537073005684
3925.91,-0.00044333139781997915
3926.81,-0.000424460166698307
3927.71,-0.0004004658016981882
3928.61,-0.0003688016833370115
3929.51,-0.0003318863490198679
3930.41,-0.00029426001578556705
3931.31,-0.0002556092517946624
3932.21,-0.0002209504617912337
3933.11,-0.00019327316799595598
3934.01,-0.0001773427511614916
3934.91,-0.00017552656382860914
3935.81,-0.00018809167525747926
3936.71,-0.00021570673220698056
3937.61,-0.0002533891150992037
3938.51,-0.0002969626739918407
3939.42,-0.00034186771853168205
3940.32,-0.0003855511950597812
3941.22,-0.00042219339624767477
3942.12,-0.0004495833075068968
3943.02,-0.00047329739422048055
3943.92,-0.0004937606257946766
3944.82,-0.0005106932675246718
3945.72,-0.0005280679830719651
3946.62,-0.0005490418651109915
3947.52,-0.0005651209497321485
3948.42,-0.0005796894784149538
3949.32,-0.000590439797755123
3950.22,-0.0006038219928492572
3951.12,-0.0006142962458757996
3952.02,-0.0006236379687196904
3952.92,-0.0006289312158615368
3953.82,-0.0006392661264181332
3954.72,-0.0006386544937506702
3955.62,-0.000645150011655172
3956.52,-0.0006448286852778392
3957.42,-0.0006425150879619865
3958.32,-0.0006413119542986165
3959.22,-0.00063495630572788
3960.12,-0.0006216247312499648
3961.02,-0.0006068895878505687
3961.92,-0.0005793565493927047
3962.82,-0.0005497707567405808
3963.72,-0.0005099499127621678
3964.62,-0.0004676891589742883
3965.52,-0.00042194263473530226
3966.42,-0.00037308232751643634
3967.32,-0.00032576076671802395
3968.22,-0.00028801446836870516
3969.12,-0.0002636134813478701
3970.02,-0.00026040928395827185
3970.92,-0.00027764206307707507
3971.82,-0.000312793830849191
3972.72,-0.000362837949735762
3973.62,-0.0004200466754639668
3974.52,-0.0004803086204384885
3975.42,-0.0005403177884934213
3976.32,-0.0005926785045653959
3977.22,-0.0006409748604073711
3978.13,-0.000687913469616147
3979.03,-0.0007256067155925024
3979.93,-0.0007558232540521873
3980.83,-0.0007818489605012345
3981.73,-0.00080103074910752
3982.63,-0.000813558859780262
3983.53,-0.0008232496492779019
3984.43,-0.0008340999441569544
3985.33,-0.0008483554213833658
3986.23,-0.0008593230737389615
3987.13,-0.0008760752034176916
3988.03,-0.0008883510498732798
3988.93,-0.0008966546478409208
3989.83,-0.0009152822437952303
3990.73,-0.0009304365739882962
3991.63,-0.0009477776700052642
3992.53,-0.000951827056246305
3993.43,-0.0009638790805843656
3994.33,-0.0009680611655267312
3995.23,-0.0009679764297818135
3996.13,-0.0009647874130857824
3997.03,-0.0009614781171576552
3997.93,-0.0009649848324645215
3998.83,-0.0009702710462451055
3999.73,-0.0009799724185892182
4000.63,-0.0010028097410126272
4001.53,-0.0010191583697081502
4002.43,-0.0010374048250171642
4003.33,-0.001045267392959362
4004.23,-0.001042541727992726
4005.13,-0.0010426369536145727
4006.03,-0.0010383979030538885
4006.93,-0.0010352193411593965
4007.83,-0.0010486521650453875
4008.73,-0.001063050650912553
4009.63,-0.001091273847877959
4010.53,-0.0011074942524724996
4011.43,-0.0011269660152201937
4012.33,-0.001144353378454685
4013.23,-0.0011507083272855624
4014.13,-0.001156496988562013
4015.03,-0.0011683343606112206
4015.93,-0.001170997763637818
4016.84,-0.0011888727534837696
4017.74,-0.0011935434727020308
4018.64,-0.0012049307089799096
4019.54,-0.0012135265412034587
4020.44,-0.0012241002674892188
4021.34,-0.001233754443632347
4022.24,-0.0012449416376474926
4023.14,-0.0012490367848486735
4024.04,-0.0012586391131374905
4024.94,-0.001268925030047802
4025.84,-0.0012857561789190767
4026.74,-0.0012935985879276636
4027.64,-0.0013108907431947272
4028.54,-0.001317163118855306
4029.44,-0.0013101531721141338
4030.34,-0.0013019725037231556
4031.24,-0.0012839847656772008
4032.14,-0.0012676717462374862
4033.04,-0.0012617992056041458
4033.94,-0.001270212067543889
4034.84,-0.0012917836652580133
4035.74,-0.001322681623137556
4036.64,-0.0013638094347977292
4037.54,-0.0014050794178409045
4038.44,-0.0014392192910686124
4039.34,-0.0014637011190405836
4040.24,-0.001478079652071467
4041.14,-0.0014777575511979082
4042.04,-0.0014694060349703649
4042.94,-0.001459504735100553
4043.84,-0.0014326920095835767
4044.74,-0.0014092687917967872
4045.64,-0.0013992843017273952
4046.54,-0.001392778364926513
4047.44,-0.0014072619859463989
4048.34,-0.0014360514422940701
4049.24,-0.0014817383741986484
4050.14,-0.0015213102262680827
4051.04,-0.0015562350848878875
4051.94,-0.0015797056948588472
4052.84,-0.0015876331665850261
4053.74,-0.0015910503540112755
4054.65,-0.0015934081106967987
4055.55,-0.001596300987428675
4056.45,-0.001591603249703609
4057.35,-0.0016055075105500581
4058.25,-0.0016074346577750092
4059.15,-0.0016242040680951278
4060.05,-0.0016367875618598416
4060.95,-0.0016519935877670631
4061.85,-0.001645134389614194
4062.75,-0.0016417546731319268
4063.65,-0.0016278449713955888
4064.55,-0.0016235716543015228
4065.45,-0.0016318152761841196
4066.35,-0.0016392829338921049
4067.25,-0.0016706930783657546
4068.15,-0.001708245000511205
4069.05,-0.0017316465224467882
4069.95,-0.0017638516794167144
4070.85,-0.0017795311452321876
4071.75,-0.0017825505474797381
4072.65,-0.001789076373050601
4073.55,-0.0017959358453979066
4074.45,-0.0017894198529610106
4075.35,-0.0017815320200593563
4076.25,-0.0017677967668812847
4077.15,-0.0017543626081588807
4078.05,-0.0017566566620426446
4078.95,-0.0017636164914279222
4079.85,-0.001793806585105467
4080.75,-0.0018392594294970954
4081.65,-0.0018845207144455175
4082.55,-0.0019273719871593642
4083.45,-0.0019646762332018275
4084.35,-0.001994241926928409
4085.25,-0.00202101966808226
4086.15,-0.0020431110182096974
4087.05,-0.0020810106222736305
4087.95,-0.0021260119658157166
4088.85,-0.0021688876379209357
4089.75,-0.002211564973760281
4090.65,-0.00222523306962685
4091.55,-0.00224128104930411
4092.45,-0.00225213323049328
4093.36,-0.0022372186963935167
4094.26,-0.0022262828525188333
4095.16,-0.0022103969156771295
4096.06,-0.0021872809737594387
4096.96,-0.0021426857318994808
4097.86,-0.0020990757606037837
4098.76,-0.0020350290441871035
4099.66,-0.0019688908220185752
4100.56,-0.0019156226325707348
4101.46,-0.0018512246269837458
4102.36,-0.0018242940310833693
4103.26,-0.0018350563152130896
4104.16,-0.00188766871032295
4105.06,-0.0019707464667875255
4105.96,-0.002073380307293079
4106.86,-0.0021632950808662065
4107.76,-0.002255677278233321
4108.66,-0.0023184428266355387
4109.56,-0.0023747519102497714
4110.46,-0.002408420168565526
4111.36,-0.0024492131069415502
4112.26,-0.002490603117077229
4113.16,-0.0025261941078018597
4114.06,-0.002575316331668695
4114.96,-0.002625927816011433
4115.86,-0.0026539757036034574
4116.76,-0.002687458668942735
4117.66,-0.0027068993073148732
4118.56,-0.002705741780346321
4119.46,-0.0027094694257935293
4120.36,-0.002714046914228872
4121.26,-0.0027313247899292967
4122.16,-0.0027520043055920423
4123.06,-0.0027662705224560827
4123.96,-0.0027992409312210193
4124.86,-0.0028384280353883715
4125.76,-0.0028615754727073766
4126.66,-0.0028933033324221764
4127.56,-0.0029012977918330455
4128.46,-0.002915183488171038
4129.36,-0.002911401633447637
4130.26,-0.002906298404005296
4131.17,-0.002913308730962865
4132.06,-0.002899244115727802
4132.97,-0.0028964352657756113
4133.87,-0.002918055043864673
4134.77,-0.0029578989130563493
4135.67,-0.003008141180891769
4136.57,-0.00307019887647393
4137.47,-0.0031532279262405784
4138.37,-0.0032320183398682487
4139.27,-0.0032722316622004776
4140.17,-0.0033029857797713083
4141.07,-0.003295736230586918
4141.97,-0.003282422421235198
4142.87,-0.00324665320060215
4143.77,-0.0032271123790810928
4144.67,-0.0032435040556618873
4145.57,-0.0032592756445562416
4146.47,-0.0033139431233264877
4147.37,-0.0033763600356571427
4148.27,-0.0034276449396956495
4149.17,-0.0034827746135661438
4150.07,-0.0035145079376783677
4150.97,-0.003535095246020579
4151.87,-0.003581470251191004
4152.77,-0.0035881792169199004
4153.67,-0.003595571636620925
4154.57,-0.0035900020965678736
4155.47,-0.0036181941434765444
4156.37,-0.003657241538033582
4157.27,-0.0036802150892596072
4158.17,-0.0037478496427768653
4159.07,-0.003820339237328562
4159.97,-0.0038725405674287115
4160.87,-0.003940595390464251
4161.77,-0.003990404331029265
4162.67,-0.004048691157009952
4163.57,-0.004094577862983007
4164.47,-0.004134619986821869
4165.37,-0.004153168435221037
4166.27,-0.004154805889431532
4167.17,-0.004191175577018516
4168.07,-0.004184762191757823
4168.98,-0.00417943518284225
4169.88,-0.004183773410332117
4170.78,-0.004145903796153839
4171.68,-0.004121814591209219
4172.58,-0.004074322511200395
4173.48,-0.004066385931428285
4174.38,-0.004057192407431611
4175.28,-0.00410866888233591
4176.18,-0.004141476583546598
4177.08,-0.004223899634329446
4177.98,-0.004296309047210948
4178.88,-0.004377241599003441
4179.78,-0.004446420918373784
4180.68,-0.004532672906099059
4181.58,-0.004581965764665818
4182.48,-0.004621613655542359
4183.38,-0.004652166734601399
4184.28,-0.004701479400541995
4185.18,-0.0047145938886098675
4186.08,-0.004755386927584179
4186.98,-0.0047810738941489175
4187.88,-0.00478696247435254
4188.78,-0.004812171085972257
4189.68,-0.004851736829450144
4190.58,-0.004944573090281416
4191.48,-0.00503440202797415
4192.38,-0.005101001725274716
4193.28,-0.005169918024113966
4194.18,-0.005217685248046926
4195.08,-0.005241797784124877
4195.98,-0.005256936297562868
4196.88,-0.005242127278930358
4197.78,-0.005211477458688346
4198.68,-0.005186599757739608
4199.58,-0.005143632956151969
4200.48,-0.005151074039908959
4201.38,-0.005183448523836179
4202.28,-0.005248408232429535
4203.18,-0.005315326408705003
4204.08,-0.0053961574582167115
4204.98,-0.005497485866617811
4205.88,-0.005585891188515253
4206.79,-0.0056852565644080495
4207.69,-0.00581942772032912
4208.59,-0.005915013417972171
4209.49,-0.006013859471660636
4210.39,-0.006096582426407521
4211.29,-0.0061561381412922785
4212.19,-0.006190132037764349
4213.09,-0.006217337269510969
4213.99,-0.00622347327343314
4214.89,-0.006215116261656126
4215.79,-0.006210228778631039
4216.69,-0.006198455286968569
4217.59,-0.006278227781009049
4218.49,-0.0063709651974179484
4219.39,-0.006482205743916651
4220.29,-0.0065725061416260075
4221.19,-0.006654447495308905
4222.09,-0.00665931757990794
4222.99,-0.006609858411704324
4223.89,-0.006532484722043788
4224.79,-0.006352188277564035
4225.69,-0.006209512587873618
4226.59,-0.0060786993214646335
4227.49,-0.006070131070175295
4228.39,-0.0061445073631170525
4229.29,-0.006358594125856866
4230.19,-0.006613122890087132
4231.09,-0.006853845930974191
4231.99,-0.007086861805792022
4232.89,-0.007214168227872923
4233.79,-0.007320237724514545
4234.69,-0.007352379991169549
4235.59,-0.007340702004324159
4236.49,-0.007380731782616392
4237.39,-0.007426861565230964
4238.29,-0.007491748548967931
4239.19,-0.00757256021099385
4240.09,-0.007734319962911333
4240.99,-0.007847431996014278
4241.89,-0.007996781367885987
4242.79,-0.008124877921602155
4243.69,-0.008227666650676963
4244.59,-0.008305505133856141
4245.5,-0.00839841076047538
4246.4,-0.008394394186456393
4247.3,-0.008366765907525405
4248.2,-0.008368532087337215
4249.1,-0.008342722279719467
4250.0,-0.008347618022207235
4250.9,-0.008440240145621948
4251.8,-0.008536961885822522
4252.7,-0.008646590508923276
4253.6,-0.008778629271741592
4254.5,-0.00892016547026129
4255.4,-0.008998284431157355
4256.3,-0.009170245382718384
4257.2,-0.009199714532282327
4258.1,-0.00927265661905391
4259.0,-0.009307572092955138
4259.9,-0.009335973568424244
4260.8,-0.009443501029116909
4261.7,-0.009500128702346055
4262.6,-0.009663751172534662
4263.5,-0.009878634329729566
4264.4,-0.010090800852994818
4265.3,-0.010328062261806919
4266.2,-0.010465766643591634
4267.1,-0.010583391667815089
4268.0,-0.010523615036292306
4268.9,-0.010505664556933662
4269.8,-0.010401651288755117
4270.7,-0.010265027733152266
4271.6,-0.010130185494545895
4272.5,-0.010048978048324456
4273.4,-0.010048584502155454
4274.3,-0.010153400748751124
4275.2,-0.010352102687180488
4276.1,-0.01057486753914566
4277.0,-0.010864926542372916
4277.9,-0.0111948021770333
4278.8,-0.011416130140274119
4279.7,-0.011567610944190733
4280.6,-0.011693963791111126
4281.5,-0.011753885011694838
4282.4,-0.011777729301398473
4283.31,-0.011821503844415372
4284.21,-0.011935967626454973
