wave,flux
3700.85,-4.793066370860868e-07
3701.75,-4.7393721414352563e-07
3702.65,-4.5909020440239016e-07
3703.55,-4.4084097087992164e-07
3704.45,-4.1825165937832474e-07
3705.35,-4.02622485030346e-07
3706.25,-3.89854551699373e-07
3707.15,-3.8560916872198994e-07
3708.05,-3.888729486829711e-07
3708.96,-3.9591246664666556e-07
3709.86,-4.0497722174516e-07
3710.76,-4.168632848943386e-07
3711.66,-4.307201622599224e-07
3712.56,-4.478646954119258e-07
3713.46,-4.677083536263214e-07
3714.36,-4.841071216274113e-07
3715.26,-4.948331452061058e-07
3716.16,-5.010328622454422e-07
3717.06,-4.947098798898914e-07
3717.96,-4.797790376250904e-07
3718.86,-4.540604606637554e-07
3719.76,-4.250724187470043e-07
3720.66,-3.97304102150264e-07
3721.56,-3.778925015077747e-07
3722.46,-3.7191848307067914e-07
3723.36,-3.8495639410170205e-07
3724.26,-4.052222577007786e-07
3725.16,-4.2827190204130485e-07
3726.06,-4.4966000897330803e-07
3726.96,-4.631676815241289e-07
3727.86,-4.686154148735234e-07
3728.76,-4.7109510799642723e-07
3729.66,-4.7097912184328005e-07
3730.56,-4.616725930194565e-07
3731.46,-4.4897105129148334e-07
3732.36,-4.2702954498590555e-07
3733.26,-3.987750923153667e-07
3734.16,-3.722831330540462e-07
3735.06,-3.515299995574539e-07
3735.96,-3.4381016399870586e-07
3736.86,-3.479253164053421e-07
3737.76,-3.643601898041416e-07
3738.66,-3.9349333349016116e-07
3739.56,-4.208179183153856e-07
3740.46,-4.4897968924554535e-07
3741.36,-4.6777278600739434e-07
3742.26,-4.7518327082032346e-07
3743.16,-4.685267195270341e-07
3744.06,-4.576480594344415e-07
3744.96,-4.3925746780294e-07
3745.86,-4.184432292097603e-07
3746.76,-3.966822338352444e-07
3747.67,-3.787925782384841e-07
3748.57,-3.6530660336454863e-07
3749.47,-3.5649152264814215e-07
3750.37,-3.60612086944237e-07
3751.27,-3.8036179022921546e-07
3752.17,-4.1105629561301244e-07
3753.07,-4.4209622404539904e-07
3753.97,-4.778211136199895e-07
3754.87,-5.024527215580258e-07
3755.77,-5.182852406463327e-07
3756.67,-5.174128792739416e-07
3757.57,-5.058007190190836e-07
3758.47,-4.890048810527875e-07
3759.37,-4.790799340394205e-07
3760.27,-4.7362432205070756e-07
3761.17,-4.7563858733692054e-07
3762.07,-4.84431115593814e-07
3762.97,-4.944799673566528e-07
3763.87,-5.025942961948335e-07
3764.77,-5.084875345565394e-07
3765.67,-5.075084747273374e-07
3766.57,-5.056048857708451e-07
3767.47,-4.994033139980952e-07
3768.37,-4.914597680822859e-07
3769.27,-4.831355681027781e-07
3770.17,-4.8324647415058e-07
3771.07,-4.861785959942784e-07
3771.97,-4.936364591505493e-07
3772.87,-5.081807739532411e-07
3773.77,-5.251442314651736e-07
3774.67,-5.427129792895349e-07
3775.57,-5.566730573199626e-07
3776.47,-5.703805300870278e-07
3777.37,-5.814778550911358e-07
3778.27,-5.896305695301116e-07
3779.17,-6.003263564703209e-07
3780.07,-6.15041741090594e-07
3780.97,-6.289331371444929e-07
3781.87,-6.34519262546381e-07
3782.77,-6.401175777161192e-07
3783.67,-6.390516926419607e-07
3784.57,-6.320777146835955e-07
3785.47,-6.18600494453662e-07
3786.38,-6.045238944909841e-07
3787.28,-5.878139148355677e-07
3788.18,-5.736601850676785e-07
3789.08,-5.639275670532634e-07
3789.98,-5.567732753506793e-07
3790.88,-5.522475947985829e-07
3791.78,-5.506907323286579e-07
3792.68,-5.459806857472074e-07
3793.58,-5.36571710342781e-07
3794.48,-5.211185985648148e-07
3795.38,-5.059203035341719e-07
3796.28,-4.850668758522934e-07
3797.18,-4.693323384923883e-07
3798.08,-4.5952721063411134e-07
3798.98,-4.6243887495808447e-07
3799.88,-4.746823166836183e-07
3800.78,-4.990112237817351e-07
3801.68,-5.331621248721933e-07
3802.58,-5.660066594755612e-07
3803.48,-5.956076239871413e-07
3804.38,-6.163595671934534e-07
3805.28,-6.284422292224467e-07
3806.18,-6.373060178376731e-07
3807.08,-6.347937602411953e-07
3807.98,-6.376837632797733e-07
3808.88,-6.412989673226726e-07
3809.78,-6.478442831684218e-07
3810.68,-6.504182102812674e-07
3811.58,-6.42002332917422e-07
3812.48,-6.339912644852977e-07
3813.38,-6.16897670881103e-07
3814.28,-5.985709567588186e-07
3815.18,-5.808408058433096e-07
3816.08,-5.713097374453162e-07
3816.98,-5.678261901623665e-07
3817.88,-5.656606816836243e-07
3818.78,-5.638751663360208e-07
3819.68,-5.631144367423721e-07
3820.58,-5.542772527237162e-07
3821.48,-5.4821374414474e-07
3822.38,-5.442879038768374e-07
3823.28,-5.376803237227931e-07
3824.18,-5.304958787307902e-07
3825.09,-5.161300317911758e-07
3825.99,-5.043614685534422e-07
3826.89,-4.930845456319831e-07
3827.79,-4.846418642253369e-07
3828.69,-4.809963361251245e-07
3829.59,-4.770376464672721e-07
3830.49,-4.689801593463549e-07
3831.39,-4.557207796275871e-07
3832.29,-4.4147074679154165e-07
3833.19,-4.2451981262365003e-07
3834.09,-4.090497678789904e-07
3834.99,-3.9645724908123053e-07
3835.89,-3.9356855376162454e-07
3836.79,-3.948390931798749e-07
3837.69,-4.029881750655375e-07
3838.59,-4.1250100983859383e-07
3839.49,-4.301555855354699e-07
3840.39,-4.51107135331004e-07
3841.29,-4.788080096897071e-07
3842.19,-5.109896327860463e-07
3843.09,-5.451914915191427e-07
3843.99,-5.777462929878101e-07
3844.89,-6.027535733432137e-07
3845.79,-6.246683124506783e-07
3846.69,-6.383708324355466e-07
3847.59,-6.448996548485406e-07
3848.49,-6.496174223328783e-07
3849.39,-6.509128728590395e-07
3850.29,-6.508270515161891e-07
3851.19,-6.521702244108245e-07
3852.09,-6.533816250052943e-07
3852.99,-6.550878358971737e-07
3853.89,-6.602949917441234e-07
3854.79,-6.549185790423633e-07
3855.69,-6.438655165951443e-07
3856.59,-6.314358187977138e-07
3857.49,-6.188410944638091e-07
3858.39,-6.025174799221963e-07
3859.29,-5.920254479339399e-07
3860.19,-5.887871438724966e-07
3861.09,-5.964040475296589e-07
3861.99,-6.136002127212595e-07
3862.9,-6.355176217020721e-07
3863.8,-6.527536754466124e-07
3864.7,-6.710755513255887e-07
3865.6,-6.78830928303955e-07
3866.5,-6.829569965554181e-07
3867.4,-6.826650634937504e-07
3868.3,-6.807724554313988e-07
3869.2,-6.715094922459605e-07
3870.1,-6.632315737961432e-07
3871.0,-6.472299409834978e-07
3871.9,-6.333016555401078e-07
3872.8,-6.197534992705073e-07
3873.7,-6.148237801421368e-07
3874.6,-6.176216066963732e-07
3875.5,-6.217168472517305e-07
3876.4,-6.265137526240173e-07
3877.3,-6.309976509359488e-07
3878.2,-6.240119497314705e-07
3879.1,-6.238678092678494e-07
3880.0,-6.196860487459825e-07
3880.9,-6.222757672733648e-07
3881.8,-6.233361778514227e-07
3882.7,-6.196025026710754e-07
3883.6,-6.145074159864515e-07
3884.5,-6.01278627410045e-07
3885.4,-5.879711545910722e-07
3886.3,-5.636376179907789e-07
3887.2,-5.437423200315957e-07
3888.1,-5.247840873916044e-07
3889.0,-5.147476243529174e-07
3889.9,-5.176600501260272e-07
3890.8,-5.33614445208387e-07
3891.7,-5.557311029434939e-07
3892.6,-5.794090465152507e-07
3893.5,-6.021506933230425e-07
3894.4,-6.226286990597151e-07
3895.3,-6.36385025279463e-07
3896.2,-6.471873482274311e-07
3897.1,-6.558317947599526e-07
3898.0,-6.62263142638293e-07
3898.9,-6.674247761472602e-07
3899.8,-6.727884025835624e-07
3900.7,-6.743021413390389e-07
3901.6,-6.786827639523557e-07
3902.51,-6.766780005576592e-07
3903.41,-6.75424313500229e-07
3904.31,-6.701907741770045e-07
3905.21,-6.646562658917118e-07
3906.11,-6.655904027737047e-07
3907.01,-6.710932365283332e-07
3907.91,-6.833951922065053e-07
3908.81,-7.024241350019446e-07
3909.71,-7.200019105888144e-07
3910.61,-7.36123273867648e-07
3911.51,-7.53297826403064e-07
3912.41,-7.614578512122286e-07
3913.31,-7.613952068835182e-07
3914.21,-7.59972553494592e-07
3915.11,-7.544637900540157e-07
3916.01,-7.461679015280106e-07
3916.91,-7.35513324270434e-07
3917.81,-7.244911195858068e-07
3918.71,-7.058249726855321e-07
3919.61,-6.9596146958123e-07
3920.51,-6.813751619329818e-07
3921.41,-6.692032816865956e-07
3922.31,-6.647038674477424e-07
3923.21,-6.564108735485182e-07
3924.11,-6.484415487151181e-07
3925.01,-6.370059658330454e-07
3925.91,-6.176059605447457e-07
3926.81,-5.872024749881421e-07
3927.71,-5.484243564450228e-07
3928.61,-5.00746950027292e-07
3929.51,-4.4694186726965437e-07
3930.41,-3.908304685608801e-07
3931.31,-3.359545568477311e-07
3932.21,-2.8763755855905263e-07
3933.11,-2.4955618784568045e-07
3934.01,-2.2770177713780206e-07
3934.91,-2.2659269474200565e-07
3935.81,-2.444405717625053e-07
3936.71,-2.792532959558124e-07
3937.61,-3.2736184673817504e-07
3938.51,-3.8447796530383775e-07
3939.42,-4.428005929021699e-07
3940.32,-4.93273212210737e-07
3941.22,-5.408630698194161e-07
3942.12,-5.73546711376484e-07
3943.02,-6.032824756539395e-07
3943.92,-6.237484304987152e-07
3944.82,-6.466892743601917e-07
3945.72,-6.650789316674927e-07
3946.62,-6.868057166310847e-07
3947.52,-7.071634580238539e-07
3948.42,-7.226931692411722e-07
3949.32,-7.347504400917536e-07
3950.22,-7.467340570953169e-07
3951.12,-7.590005541294011e-07
3952.02,-7.667022422802075e-07
3952.92,-7.726330966966994e-07
3953.82,-7.758146233700528e-07
3954.72,-7.78695582749755e-07
3955.62,-7.836339855941392e-07
3956.52,-7.778519199951276e-07
3957.42,-7.694845764735668e-07
3958.32,-7.619711565495691e-07
3959.22,-7.5072836910454e-07
3960.12,-7.338337348798271e-07
3961.02,-7.064627234875054e-07
3961.92,-6.682154269042447e-07
3962.82,-6.284768570589153e-07
3963.72,-5.808648820306628e-07
3964.62,-5.272716733650057e-07
3965.52,-4.7191125443294135e-07
3966.42,-4.146525282251845e-07
3967.32,-3.592813525313364e-07
3968.22,-3.154123531768907e-07
3969.12,-2.889362575475519e-07
3970.02,-2.855526175291202e-07
3970.92,-3.0343464270075286e-07
3971.82,-3.4439436161059844e-07
3972.72,-3.9797859578541205e-07
3973.62,-4.6143802339437304e-07
3974.52,-5.252453173237229e-07
3975.42,-5.851145417342482e-07
3976.32,-6.39660194537874e-07
3977.22,-6.923840230755693e-07
3978.13,-7.389020034175644e-07
3979.03,-7.729271825582448e-07
3979.93,-8.038548532646921e-07
3980.83,-8.238221405331558e-07
3981.73,-8.386316796025978e-07
3982.63,-8.4624380316452e-07
3983.53,-8.547785722096855e-07
3984.43,-8.655187286414235e-07
3985.33,-8.712668744736971e-07
3986.23,-8.799136333001521e-07
3987.13,-8.899714647110893e-07
3988.03,-8.99677734269809e-07
3988.93,-9.084411583268681e-07
3989.83,-9.221651033030959e-07
3990.73,-9.31190145658906e-07
3991.63,-9.382443789692443e-07
3992.53,-9.371765699027648e-07
3993.43,-9.471129751427178e-07
3994.33,-9.429716573147404e-07
3995.23,-9.453642528902264e-07
3996.13,-9.307560124056502e-07
3997.03,-9.225636836397468e-07
3997.93,-9.201593005643076e-07
3998.83,-9.216072433916058e-07
3999.73,-9.267039251004792e-07
4000.63,-9.426552066316038e-07
4001.53,-9.541162282194212e-07
4002.43,-9.669150268947125e-07
4003.33,-9.67767163304847e-07
4004.23,-9.596951271767157e-07
4005.13,-9.555494165348533e-07
4006.03,-9.439824100011975e-07
4006.93,-9.39969948073447e-07
4007.83,-9.42714421857254e-07
4008.73,-9.562071484333528e-07
4009.63,-9.717725921258605e-07
4010.53,-9.859943357491935e-07
4011.43,-9.949968853627989e-07
4012.33,-1.003245241595359e-06
4013.23,-1.0090183237166185e-06
4014.13,-1.0104201393188397e-06
4015.03,-1.011435232311248e-06
4015.93,-1.0140649389951005e-06
4016.84,-1.0140400560361143e-06
4017.74,-1.0168443108835125e-06
4018.64,-1.0264664383463578e-06
4019.54,-1.028228158045451e-06
4020.44,-1.0303288167865667e-06
4021.34,-1.0305279163629182e-06
4022.24,-1.0347663507960584e-06
4023.14,-1.0311485919516063e-06
4024.04,-1.0329769671932454e-06
4024.94,-1.0353717844657368e-06
4025.84,-1.043804795438597e-06
4026.74,-1.0460469416182376e-06
4027.64,-1.0468801659599797e-06
4028.54,-1.0502044235155258e-06
4029.44,-1.0414657198264854e-06
4030.34,-1.0255555505772427e-06
4031.24,-1.007957621966105e-06
4032.14,-9.845138556740642e-07
4033.04,-9.768989440143402e-07
4033.94,-9.771892537256913e-07
4034.84,-9.910084167748748e-07
4035.74,-1.0069752105729823e-06
4036.64,-1.0360277761289858e-06
4037.54,-1.0612545260820708e-06
4038.44,-1.0806333436420923e-06
4039.34,-1.0950040840844533e-06
4040.24,-1.0981371628981449e-06
4041.14,-1.099664399152734e-06
4042.04,-1.0806126197778282e-06
4042.94,-1.0633595944135105e-06
4043.84,-1.044155475869855e-06
4044.74,-1.0194054789611741e-06
4045.64,-9.983010048974645e-07
4046.54,-9.917031329937985e-07
4047.44,-9.928123241027051e-07
4048.34,-1.0132292996011308e-06
4049.24,-1.034161329861211e-06
4050.14,-1.0635966998640764e-06
4051.04,-1.0810799477189392e-06
4051.94,-1.089547024181331e-06
4052.84,-1.094288974914063e-06
4053.74,-1.0927142284710415e-06
4054.65,-1.0854594564108833e-06
4055.55,-1.0849830318990447e-06
4056.45,-1.0736255389444765e-06
4057.35,-1.073660492664535e-06
4058.25,-1.0759342726912907e-06
4059.15,-1.0745530140560224e-06
4060.05,-1.079135614599181e-06
4060.95,-1.0720129210710695e-06
4061.85,-1.0721579701015579e-06
4062.75,-1.0595492709778603e-06
4063.65,-1.0401970056760929e-06
4064.55,-1.0344123334405263e-06
4065.45,-1.0273022109076486e-06
4066.35,-1.0311414729598e-06
4067.25,-1.0475227548667706e-06
4068.15,-1.0618519262859656e-06
4069.05,-1.0711894599936776e-06
4069.95,-1.0860603787759941e-06
4070.85,-1.0892105193806928e-06
4071.75,-1.0881632022269544e-06
4072.65,-1.0886152120072597e-06
4073.55,-1.080878979782843e-06
4074.45,-1.0744483201970412e-06
4075.35,-1.0651635726503917e-06
4076.25,-1.0476357184596284e-06
4077.15,-1.031878065493668e-06
4078.05,-1.028741460108644e-06
4078.95,-1.0291138855722306e-06
4079.85,-1.0418755049719928e-06
4080.75,-1.0607485547473594e-06
4081.65,-1.0853905505541879e-06
4082.55,-1.1031432098596461e-06
4083.45,-1.1151403445676073e-06
4084.35,-1.128388316653644e-06
4085.25,-1.1325507940530933e-06
4086.15,-1.1465860272069134e-06
4087.05,-1.1646421561296277e-06
4087.95,-1.1833561683245828e-06
4088.85,-1.2022384994870256e-06
4089.75,-1.2069433290622918e-06
4090.65,-1.218131616507791e-06
4091.55,-1.2216305634208635e-06
4092.45,-1.2148155074590724e-06
4093.36,-1.2053996097101997e-06
4094.26,-1.1894979103189628e-06
4095.16,-1.1741752500130658e-06
4096.06,-1.1550858330077717e-06
4096.96,-1.124192721467226e-06
4097.86,-1.0980778374410665e-06
4098.76,-1.0614215244238924e-06
4099.66,-1.019865065084551e-06
4100.56,-9.853286168381848e-07
4101.46,-9.533953327650472e-07
4102.36,-9.336624139354978e-07
4103.26,-9.323244875538822e-07
4104.16,-9.556071920185092e-07
4105.06,-9.899543686888035e-07
4105.96,-1.0297396726401057e-06
4106.86,-1.070695641985787e-06
4107.76,-1.1067655307320887e-06
4108.66,-1.1326839278850868e-06
4109.56,-1.1502479473040736e-06
4110.46,-1.1584119926164906e-06
4111.36,-1.1617091904438276e-06
4112.26,-1.1803883183408155e-06
4113.16,-1.1902071090977441e-06
4114.06,-1.2033611849821307e-06
4114.96,-1.212210265158977e-06
4115.86,-1.2262522823359258e-06
4116.76,-1.2314412516941679e-06
4117.66,-1.2271675209826927e-06
4118.56,-1.2265990029259724e-06
4119.46,-1.2122937250809846e-06
4120.36,-1.2098384306680878e-06
4121.26,-1.2079544464750934e-06
4122.16,-1.209607247937184e-06
4123.06,-1.208553644093452e-06
4123.96,-1.2195727350864023e-06
4124.86,-1.2260916390564461e-06
4125.76,-1.2301003768851212e-06
4126.66,-1.236775597775703e-06
4127.56,-1.2300299059708336e-06
4128.46,-1.2271650591036744e-06
4129.36,-1.2202568444920162e-06
4130.26,-1.2113097629789268e-06
4131.17,-1.1954400385300419e-06
4132.06,-1.1859617285114199e-06
4132.97,-1.1826392636284679e-06
4133.87,-1.1796830852044518e-06
4134.77,-1.1893073307103838e-06
4135.67,-1.2012522928101084e-06
4136.57,-1.2254529100896483e-06
4137.47,-1.2476729090188562e-06
4138.37,-1.2625006343759003e-06
4139.27,-1.277958226797981e-06
4140.17,-1.286317830259882e-06
4141.07,-1.273196993160386e-06
4141.97,-1.2560669416296372e-06
4142.87,-1.2333207409841858e-06
4143.77,-1.2162260949991343e-06
4144.67,-1.2067328380564824e-06
4145.57,-1.2087313333673472e-06
4146.47,-1.2251317623323213e-06
4147.37,-1.2380348726932633e-06
4148.27,-1.2626642450064662e-06
4149.17,-1.265741477127217e-06
4150.07,-1.277601755219814e-06
4150.97,-1.2673528112312325e-06
4151.87,-1.2696368210882265e-06
4152.77,-1.266073823536972e-06
4153.67,-1.258796380749543e-06
4154.57,-1.2572974228595258e-06
4155.47,-1.256670670815592e-06
4156.37,-1.2601641745520142e-06
4157.27,-1.2700949514601472e-06
4158.17,-1.2767286476497188e-06
4159.07,-1.2977632680993682e-06
4159.97,-1.3032228811813815e-06
4160.87,-1.3184230330529861e-06
4161.77,-1.331480530234125e-06
4162.67,-1.3404092018954046e-06
4163.57,-1.3457395149385676e-06
4164.47,-1.3482098118029351e-06
4165.37,-1.3491784230075237e-06
4166.27,-1.3435666770155298e-06
4167.17,-1.3349186493926702e-06
4168.07,-1.3254220223626454e-06
4168.98,-1.3188771797241762e-06
4169.88,-1.3041642188533482e-06
4170.78,-1.2885149843793515e-06
4171.68,-1.2680573860457025e-06
4172.58,-1.2503125310696021e-06
4173.48,-1.2347368516709506e-06
4174.38,-1.230908631802239e-06
4175.28,-1.2254025266401286e-06
4176.18,-1.233368493044423e-06
4177.08,-1.244833951678383e-06
4177.98,-1.2611366846239416e-06
4178.88,-1.2812483655388067e-06
4179.78,-1.295679649941296e-06
4180.68,-1.3062278615017675e-06
4181.58,-1.3168714913417713e-06
4182.48,-1.3191927261031244e-06
4183.38,-1.321026493502399e-06
4184.28,-1.3243401871520176e-06
4185.18,-1.3161819067110594e-06
4186.08,-1.3194944013139358e-06
4186.98,-1.3117290313376263e-06
4187.88,-1.3110113069329898e-06
4188.78,-1.3113517665638641e-06
4189.68,-1.3143137556580083e-06
4190.58,-1.3245202171997513e-06
4191.48,-1.3305587829000274e-06
4192.38,-1.3518370874302378e-06
4193.28,-1.3633371594530804e-06
4194.18,-1.3591718711943631e-06
4195.08,-1.3643506512170929e-06
4195.98,-1.351590325073183e-06
4196.88,-1.3319208701478342e-06
4197.78,-1.3208030277645563e-06
4198.68,-1.3032651358024597e-06
4199.58,-1.2879087184394429e-06
4200.48,-1.2764697764413557e-06
4201.38,-1.2750175440455975e-06
4202.28,-1.2817144533239255e-06
4203.18,-1.2887159798084145e-06
4204.08,-1.305935363443559e-06
4204.98,-1.3118961703254366e-06
4205.88,-1.3299119412874821e-06
4206.79,-1.3528582542082811e-06
4207.69,-1.3663157805376624e-06
4208.59,-1.382573476425622e-06
4209.49,-1.3992359621028352e-06
4210.39,-1.4014108751369443e-06
4211.29,-1.404759196486154e-06
4212.19,-1.3996965066431732e-06
4213.09,-1.4039270314468329e-06
4213.99,-1.39312211521831e-06
4214.89,-1.378833626176591e-06
4215.79,-1.3664928517771425e-06
4216.69,-1.3610435446307615e-06
4217.59,-1.3608158667288222e-06
4218.49,-1.3712961301058042e-06
4219.39,-1.3903071836482317e-06
4220.29,-1.3958134013429385e-06
4221.19,-1.3988850015468643e-06
4222.09,-1.3981017604735378e-06
4222.99,-1.373747225384832e-06
4223.89,-1.3444144111401556e-06
4224.79,-1.3023320442949873e-06
4225.69,-1.2555111430418663e-06
4226.59,-1.2197018707159605e-06
4227.49,-1.2078928076471624e-06
4228.39,-1.2141086660715313e-06
4229.29,-1.2528244098602755e-06
4230.19,-1.294794332263533e-06
4231.09,-1.3331860272462111e-06
4231.99,-1.3683619399568256e-06
4232.89,-1.3912595327478895e-06
4233.79,-1.3876341806693442e-06
4234.69,-1.3940538546283564e-06
4235.59,-1.380652278923521e-06
4236.49,-1.3760077107223241e-06
4237.39,-1.368312843275349e-06
4238.29,-1.3732131472502332e-06
4239.19,-1.3839845148063173e-06
4240.09,-1.397296878721016e-06
4240.99,-1.4130075338776995e-06
4241.89,-1.4279168440322474e-06
4242.79,-1.4409505534421422e-06
4243.69,-1.4516416320443551e-06
4244.59,-1.45698939850781e-06
4245.5,-1.4547666569796237e-06
4246.4,-1.4479005874292495e-06
4247.3,-1.4321588750226459e-06
4248.2,-1.4213859503532967e-06
4249.1,-1.4053327642220765e-06
4250.0,-1.3923279688965787e-06
4250.9,-1.3967818153031695e-06
4251.8,-1.3947344756052213e-06
4252.7,-1.4090561050275465e-06
4253.6,-1.423724181762882e-06
4254.5,-1.4248109456954362e-06
4255.4,-1.4397679922624162e-06
4256.3,-1.439470345089117e-06
4257.2,-1.445263475226666e-06
4258.1,-1.4416046122229034e-06
4259.0,-1.4433387456928614e-06
4259.9,-1.434957949077316e-06
4260.8,-1.4314222121212221e-06
4261.7,-1.4332224669702767e-06
4262.6,-1.4491198202222552e-06
4263.5,-1.4719162686378954e-06
4264.4,-1.5008494724275047e-06
4265.3,-1.5134932991432243e-06
4266.2,-1.5277513604698843e-06
4267.1,-1.5233399085318226e-06
4268.0,-1.5201051681727896e-06
4268.9,-1.4947680682971286e-06
4269.8,-1.4680890461272337e-06
4270.7,-1.4371149013163284e-06
4271.6,-1.4027861550013214e-06
4272.5,-1.3804277735506563e-06
4273.4,-1.3656076976055737e-06
4274.3,-1.3709309582021537e-06
4275.2,-1.3768277580687227e-06
4276.1,-1.4055455805864143e-06
