wave,flux
3700.85,-3.850865229628267e-07
3701.75,-3.792712256799876e-07
3702.65,-3.689012895702826e-07
3703.55,-3.507587301230766e-07
3704.45,-3.324130188962696e-07
3705.35,-3.169113314183156e-07
3706.25,-3.049932248157173e-07
3707.15,-3.0021271265058383e-07
3708.05,-3.0073474945596645e-07
3708.96,-3.049537223660877e-07
3709.86,-3.143918749508123e-07
3710.76,-3.2402436749796e-07
3711.66,-3.388119968568091e-07
3712.56,-3.5430711482086e-07
3713.46,-3.712792683995016e-07
3714.36,-3.862003553576817e-07
3715.26,-3.9548528162463586e-07
3716.16,-3.9798582155698257e-07
3717.06,-3.930829141479191e-07
3717.96,-3.7896141486483456e-07
3718.86,-3.586281809832324e-07
3719.76,-3.323095917442327e-07
3720.66,-3.1137080305940805e-07
3721.56,-2.948071316732126e-07
3722.46,-2.905686596494138e-07
3723.36,-2.994845419506883e-07
3724.26,-3.1481813274137195e-07
3725.16,-3.354389707651439e-07
3726.06,-3.526039571228652e-07
3726.96,-3.6288857798645893e-07
3727.86,-3.6842552020229934e-07
3728.76,-3.677907722020925e-07
3729.66,-3.6529588429154415e-07
3730.56,-3.5617891478216323e-07
3731.46,-3.4494809454430173e-07
3732.36,-3.236033201875194e-07
3733.26,-3.005945592692146e-07
3734.16,-2.7890855481827776e-07
3735.06,-2.63101346372357e-07
3735.96,-2.5726562903035274e-07
3736.86,-2.638165006269428e-07
3737.76,-2.807395509966218e-07
3738.66,-3.0549370694416916e-07
3739.56,-3.303674005315103e-07
3740.46,-3.5541388160404765e-07
3741.36,-3.6988980142220384e-07
3742.26,-3.7399230015353315e-07
3743.16,-3.6880091745006784e-07
3744.06,-3.571544307624769e-07
3744.96,-3.396800452147555e-07
3745.86,-3.219629479558565e-07
3746.76,-3.0440775559486416e-07
3747.67,-2.8680510540919367e-07
3748.57,-2.7445098867979514e-07
3749.47,-2.67838334219423e-07
3750.37,-2.714452125166719e-07
3751.27,-2.857036667399452e-07
3752.17,-3.1138064483759073e-07
3753.07,-3.411380283956001e-07
3753.97,-3.7183521395809313e-07
3754.87,-3.9585486385754515e-07
3755.77,-4.0976403048317093e-07
3756.67,-4.094118811437906e-07
3757.57,-4.0146591816757893e-07
3758.47,-3.8766502973223277e-07
3759.37,-3.788729152634478e-07
3760.27,-3.7236105990699246e-07
3761.17,-3.732766048909116e-07
3762.07,-3.789365507897402e-07
3762.97,-3.857198837467103e-07
3763.87,-3.87753904355777e-07
3764.77,-3.8856968776324823e-07
3765.67,-3.866003738112775e-07
3766.57,-3.804250825848003e-07
3767.47,-3.7342470768160576e-07
3768.37,-3.651358818410599e-07
3769.27,-3.5716794945959895e-07
3770.17,-3.557756754868419e-07
3771.07,-3.571416311489406e-07
3771.97,-3.667942618134465e-07
3772.87,-3.7960079802168443e-07
3773.77,-3.9823300870603885e-07
3774.67,-4.122097747029266e-07
3775.57,-4.271921311457274e-07
3776.47,-4.411892287743233e-07
3777.37,-4.5433072447310506e-07
3778.27,-4.6568081510239127e-07
3779.17,-4.778792636609716e-07
3780.07,-4.902834014731674e-07
3780.97,-5.03941364574839e-07
3781.87,-5.121191838594903e-07
3782.77,-5.187851772493103e-07
3783.67,-5.186003766647455e-07
3784.57,-5.1286204078683e-07
3785.47,-5.022009995524154e-07
3786.38,-4.856302737454487e-07
3787.28,-4.647231003724635e-07
3788.18,-4.501777087801246e-07
3789.08,-4.358909982177797e-07
3789.98,-4.253245838583482e-07
3790.88,-4.2248649021534097e-07
3791.78,-4.172799828958388e-07
3792.68,-4.1089589791683434e-07
3793.58,-3.9770178012980507e-07
3794.48,-3.8418194275204603e-07
3795.38,-3.6813321868565144e-07
3796.28,-3.4927414053565086e-07
3797.18,-3.33568035756465e-07
3798.08,-3.2614018006510883e-07
3798.98,-3.2754392680849833e-07
3799.88,-3.3888314225177206e-07
3800.78,-3.586378578051986e-07
3801.68,-3.882219021099034e-07
3802.58,-4.1737001957158614e-07
3803.48,-4.4496803728802283e-07
3804.38,-4.6338574848234614e-07
3805.28,-4.779024442654438e-07
3806.18,-4.850055599789399e-07
3807.08,-4.885525094089376e-07
3807.98,-4.92061025191704e-07
3808.88,-5.005435589647241e-07
3809.78,-5.112653848093099e-07
3810.68,-5.150771922854998e-07
3811.58,-5.14701714050112e-07
3812.48,-5.07130647351491e-07
3813.38,-4.919904069407233e-07
3814.28,-4.740463857503975e-07
3815.18,-4.601471661640546e-07
3816.08,-4.492693932772527e-07
3816.98,-4.5036370101967117e-07
3817.88,-4.4656420139012754e-07
3818.78,-4.477271342013768e-07
3819.68,-4.4597604011515536e-07
3820.58,-4.400226613514969e-07
3821.48,-4.366727706714377e-07
3822.38,-4.299650520141111e-07
3823.28,-4.2441788796607945e-07
3824.18,-4.1319105180055303e-07
3825.09,-4.03440644322273e-07
3825.99,-3.8975330552394047e-07
3826.89,-3.7862254785139264e-07
3827.79,-3.7069647178085724e-07
3828.69,-3.6374682889210176e-07
3829.59,-3.5974632558194195e-07
3830.49,-3.522205374562622e-07
3831.39,-3.4342826303089155e-07
3832.29,-3.2969846755820026e-07
3833.19,-3.1468478575850414e-07
3834.09,-2.988361960477594e-07
3834.99,-2.8967604600822674e-07
3835.89,-2.841659884556624e-07
3836.79,-2.8740794606972126e-07
3837.69,-2.948770709184135e-07
3838.59,-3.048838501204756e-07
3839.49,-3.187950185627829e-07
3840.39,-3.395476512892096e-07
3841.29,-3.632151167084448e-07
3842.19,-3.904105166052674e-07
3843.09,-4.1835735992665293e-07
3843.99,-4.4296073920406006e-07
3844.89,-4.6262357316897946e-07
3845.79,-4.791941603031467e-07
3846.69,-4.938987662289736e-07
3847.59,-5.020554636755458e-07
3848.49,-5.104374370585601e-07
3849.39,-5.147730228896425e-07
3850.29,-5.175705459729692e-07
3851.19,-5.195932245860791e-07
3852.09,-5.25919789968922e-07
3852.99,-5.278825139799115e-07
3853.89,-5.303022918767827e-07
3854.79,-5.254948648194303e-07
3855.69,-5.198655706624347e-07
3856.59,-5.094674068012854e-07
3857.49,-5.007418225779362e-07
3858.39,-4.905665165881178e-07
3859.29,-4.859277251712842e-07
3860.19,-4.875116450089072e-07
3861.09,-4.939189264067472e-07
3861.99,-5.06379242490406e-07
3862.9,-5.241527148952602e-07
3863.8,-5.378801772509842e-07
3864.7,-5.483983329746201e-07
3865.6,-5.535822680833113e-07
3866.5,-5.533633021904657e-07
3867.4,-5.546012434342957e-07
3868.3,-5.493162723318154e-07
3869.2,-5.415199774150711e-07
3870.1,-5.351553758836917e-07
3871.0,-5.236792234850394e-07
3871.9,-5.143816407940338e-07
3872.8,-5.05074079342183e-07
3873.7,-5.072410483725167e-07
3874.6,-5.115385880537093e-07
3875.5,-5.173822856069028e-07
3876.4,-5.207803348592391e-07
3877.3,-5.192622495745201e-07
3878.2,-5.131771306157638e-07
3879.1,-5.042804082737356e-07
3880.0,-5.003284885090081e-07
3880.9,-4.950601630251757e-07
3881.8,-4.896899174491297e-07
3882.7,-4.85488853631856e-07
3883.6,-4.758545267762013e-07
3884.5,-4.6289599564176613e-07
3885.4,-4.4527447462435025e-07
3886.3,-4.2589886254332894e-07
3887.2,-4.0611871579514655e-07
3888.1,-3.915284862467288e-07
3889.0,-3.8264669010974986e-07
3889.9,-3.8707945105750365e-07
3890.8,-4.023939928458743e-07
3891.7,-4.255798028739916e-07
3892.6,-4.5292930051076883e-07
3893.5,-4.7677091781900674e-07
3894.4,-4.983316029929255e-07
3895.3,-5.133501169094109e-07
3896.2,-5.255952281873426e-07
3897.1,-5.379984408253936e-07
3898.0,-5.47680208348535e-07
3898.9,-5.552802193994579e-07
3899.8,-5.63807978974446e-07
3900.7,-5.706758681863226e-07
3901.6,-5.743267572770421e-07
3902.51,-5.746784303013198e-07
3903.41,-5.778711459176452e-07
3904.31,-5.745691229838325e-07
3905.21,-5.700143265215748e-07
3906.11,-5.716636198454391e-07
3907.01,-5.78278839747344e-07
3907.91,-5.940444840890986e-07
3908.81,-6.113209775472721e-07
3909.71,-6.326170499755531e-07
3910.61,-6.48963686100892e-07
3911.51,-6.609902519997704e-07
3912.41,-6.704398732633527e-07
3913.31,-6.708560542470688e-07
3914.21,-6.730883311569766e-07
3915.11,-6.681990312015872e-07
3916.01,-6.605736306815951e-07
3916.91,-6.511334822359109e-07
3917.81,-6.421494691648351e-07
3918.71,-6.303964744802406e-07
3919.61,-6.18761497331741e-07
3920.51,-6.069910528789359e-07
3921.41,-5.976673655061611e-07
3922.31,-5.935323920689542e-07
3923.21,-5.907818722551882e-07
3924.11,-5.856738757372829e-07
3925.01,-5.778772440447168e-07
3925.91,-5.596013081886845e-07
3926.81,-5.345823105195443e-07
3927.71,-5.031874114588484e-07
3928.61,-4.6142170874333776e-07
3929.51,-4.1534852464511e-07
3930.41,-3.6611719379535e-07
3931.31,-3.212824809917717e-07
3932.21,-2.7954356868961023e-07
3933.11,-2.47544473163107e-07
3934.01,-2.2933475009416807e-07
3934.91,-2.2790701443126873e-07
3935.81,-2.4128932480531636e-07
3936.71,-2.727307915106412e-07
3937.61,-3.1355912991467284e-07
3938.51,-3.610290279029373e-07
3939.42,-4.1013954917589936e-07
3940.32,-4.517741010701967e-07
3941.22,-4.86707269951386e-07
3942.12,-5.147909272760324e-07
3943.02,-5.341960265937142e-07
3943.92,-5.483522112755836e-07
3944.82,-5.657862041580579e-07
3945.72,-5.817134416727284e-07
3946.62,-5.979551672314724e-07
3947.52,-6.149142767604603e-07
3948.42,-6.326765415958173e-07
3949.32,-6.464808546717769e-07
3950.22,-6.520576615325619e-07
3951.12,-6.63411118393639e-07
3952.02,-6.6900636514987e-07
3952.92,-6.740281829191009e-07
3953.82,-6.764763336320711e-07
3954.72,-6.734036036464989e-07
3955.62,-6.73810359085697e-07
3956.52,-6.681450540524259e-07
3957.42,-6.633919630441236e-07
3958.32,-6.545358498313312e-07
3959.22,-6.401543984328119e-07
3960.12,-6.250046564158191e-07
3961.02,-5.978675229594589e-07
3961.92,-5.650702513736171e-07
3962.82,-5.26507540670017e-07
3963.72,-4.892243666345374e-07
3964.62,-4.460094012654997e-07
3965.52,-4.005459184155472e-07
3966.42,-3.579135759425674e-07
3967.32,-3.159173884022559e-07
3968.22,-2.798165275370259e-07
3969.12,-2.5894636760984845e-07
3970.02,-2.5314820849951007e-07
3970.92,-2.671808777835879e-07
3971.82,-2.9471772027015335e-07
3972.72,-3.3342864787782154e-07
3973.62,-3.8183315671444475e-07
3974.52,-4.299955714595445e-07
3975.42,-4.781881483305025e-07
3976.32,-5.224070465554445e-07
3977.22,-5.677709906199904e-07
3978.13,-6.078676899884665e-07
3979.03,-6.453215166563272e-07
3979.93,-6.722139772147455e-07
3980.83,-6.997216782340373e-07
3981.73,-7.157329154721261e-07
3982.63,-7.236336063720322e-07
3983.53,-7.302874413262728e-07
3984.43,-7.385146015774675e-07
3985.33,-7.43407907980397e-07
3986.23,-7.541214996214237e-07
3987.13,-7.686014533685286e-07
3988.03,-7.774240723923718e-07
3988.93,-7.90354486476366e-07
3989.83,-8.009393856551191e-07
3990.73,-8.105799286443478e-07
3991.63,-8.135237039566596e-07
3992.53,-8.294282241099035e-07
3993.43,-8.327392500072376e-07
3994.33,-8.318958997913926e-07
3995.23,-8.291583024623726e-07
3996.13,-8.240905266488133e-07
3997.03,-8.224603762184564e-07
3997.93,-8.188084945064035e-07
3998.83,-8.279302412607415e-07
3999.73,-8.369543820725953e-07
4000.63,-8.554953428497556e-07
4001.53,-8.68119915648308e-07
4002.43,-8.762983340331462e-07
4003.33,-8.756373219918713e-07
4004.23,-8.662838862633975e-07
4005.13,-8.518899341670703e-07
4006.03,-8.397686612290492e-07
4006.93,-8.357979828608555e-07
4007.83,-8.428936351319893e-07
4008.73,-8.501411062946764e-07
4009.63,-8.68735548198033e-07
4010.53,-8.80827552207059e-07
4011.43,-8.953647599048311e-07
4012.33,-9.032525233904442e-07
4013.23,-9.137173574171094e-07
4014.13,-9.173547436217577e-07
4015.03,-9.1673494648404e-07
4015.93,-9.221455805952326e-07
4016.84,-9.277636306454267e-07
4017.74,-9.308986008170191e-07
4018.64,-9.37914385726333e-07
4019.54,-9.388071011466945e-07
4020.44,-9.456029676862304e-07
4021.34,-9.538994001361811e-07
4022.24,-9.469177515319383e-07
4023.14,-9.49908578473515e-07
4024.04,-9.446388591127628e-07
4024.94,-9.42816567213931e-07
4025.84,-9.462258619539946e-07
4026.74,-9.507374107961085e-07
4027.64,-9.509970655912837e-07
4028.54,-9.502048926362641e-07
4029.44,-9.387287001199381e-07
4030.34,-9.184198314849622e-07
4031.24,-8.917750641379094e-07
4032.14,-8.719618657652821e-07
4033.04,-8.579166841628979e-07
4033.94,-8.58959360169429e-07
4034.84,-8.662881365882369e-07
4035.74,-8.898566039568822e-07
4036.64,-9.197666654573514e-07
4037.54,-9.452103435238106e-07
4038.44,-9.704650046790339e-07
4039.34,-9.84687389737423e-07
4040.24,-9.919526269336775e-07
4041.14,-9.851564650437622e-07
4042.04,-9.76027152222138e-07
4042.94,-9.51594181319007e-07
4043.84,-9.333517082325837e-07
4044.74,-9.028119308143569e-07
4045.64,-8.804256253841869e-07
4046.54,-8.732908994244451e-07
4047.44,-8.822419459330027e-07
4048.34,-9.018101690286869e-07
4049.24,-9.278835664044226e-07
4050.14,-9.52189032851892e-07
4051.04,-9.703668345109898e-07
4051.94,-9.776524703945462e-07
4052.84,-9.782253583026365e-07
4053.74,-9.6610675223051e-07
4054.65,-9.507009675983193e-07
4055.55,-9.349536161606828e-07
4056.45,-9.247404057678329e-07
4057.35,-9.178462617281661e-07
4058.25,-9.163449615702843e-07
4059.15,-9.180959470172444e-07
4060.05,-9.198017205882605e-07
4060.95,-9.255355832043708e-07
4061.85,-9.231578580304364e-07
4062.75,-9.14777300409565e-07
4063.65,-9.060340322621478e-07
4064.55,-8.926705048282608e-07
4065.45,-8.914065547683437e-07
4066.35,-9.002354263491499e-07
4067.25,-9.162271514903599e-07
4068.15,-9.3018416522042e-07
4069.05,-9.416411031500671e-07
4069.95,-9.510468423316411e-07
4070.85,-9.515601765552616e-07
4071.75,-9.485951764023402e-07
4072.65,-9.45408034808487e-07
4073.55,-9.391523154989942e-07
4074.45,-9.320563548111438e-07
4075.35,-9.244633157899349e-07
4076.25,-9.177747403434758e-07
4077.15,-8.967029487894611e-07
4078.05,-8.91367574238639e-07
4078.95,-8.94883897578193e-07
4079.85,-9.140052550064374e-07
4080.75,-9.316448287895625e-07
4081.65,-9.525544407305659e-07
4082.55,-9.705671986580752e-07
4083.45,-9.815865207208427e-07
4084.35,-9.832485260404835e-07
4085.25,-9.856156109690138e-07
4086.15,-9.888075886583989e-07
4087.05,-1.0010900785083469e-06
4087.95,-1.0119086086790025e-06
4088.85,-1.0196110666451952e-06
4089.75,-1.0266754677571019e-06
4090.65,-1.0331499167364961e-06
4091.55,-1.022673176424363e-06
4092.45,-1.0139081346898353e-06
4093.36,-9.984722682390584e-07
4094.26,-9.767186276444375e-07
4095.16,-9.565532869401443e-07
4096.06,-9.299209801499491e-07
4096.96,-8.972052503016559e-07
4097.86,-8.638277182960645e-07
4098.76,-8.287639013702253e-07
4099.66,-7.93593837921018e-07
4100.56,-7.546454772900644e-07
4101.46,-7.244215619611844e-07
4102.36,-7.126456478492423e-07
4103.26,-7.172789135201744e-07
4104.16,-7.388810855688249e-07
4105.06,-7.719308391842736e-07
4105.96,-8.12599660766981e-07
4106.86,-8.528013366896135e-07
4107.76,-8.864617021534361e-07
4108.66,-9.160949361494843e-07
4109.56,-9.331077755519643e-07
4110.46,-9.426471931092785e-07
4111.36,-9.577228939221043e-07
4112.26,-9.698495477601389e-07
4113.16,-9.870114554726537e-07
4114.06,-1.004441669380146e-06
4114.96,-1.022472223660557e-06
4115.86,-1.0337076171296091e-06
4116.76,-1.042786391873909e-06
4117.66,-1.0420915311051312e-06
4118.56,-1.0392744396523275e-06
4119.46,-1.0341341853030394e-06
4120.36,-1.0330881576328772e-06
4121.26,-1.0282232888306688e-06
4122.16,-1.026319587159791e-06
4123.06,-1.0332044097723858e-06
4123.96,-1.0411288532778959e-06
4124.86,-1.0451141303498155e-06
4125.76,-1.0508950058945527e-06
4126.66,-1.052172124625995e-06
4127.56,-1.0454875039811728e-06
4128.46,-1.0409866956291697e-06
4129.36,-1.0334503175743756e-06
4130.26,-1.023668022165649e-06
4131.17,-1.014604765871238e-06
4132.06,-1.0107005277620868e-06
4132.97,-1.0025600658496423e-06
4133.87,-1.0043685565731151e-06
4134.77,-1.020263322386616e-06
4135.67,-1.0362868366439227e-06
4136.57,-1.0607742610075722e-06
4137.47,-1.0835239726024202e-06
4138.37,-1.1015038400276308e-06
4139.27,-1.1153447254068416e-06
4140.17,-1.1230809264158321e-06
4141.07,-1.1129931856045377e-06
4141.97,-1.0965432906419135e-06
4142.87,-1.074848770401654e-06
4143.77,-1.058741115775335e-06
4144.67,-1.0454254938344412e-06
4145.57,-1.0485933331643238e-06
4146.47,-1.0561578376780086e-06
4147.37,-1.0668773144348997e-06
4148.27,-1.0763809076906138e-06
4149.17,-1.0873518646786695e-06
4150.07,-1.0796197151982784e-06
4150.97,-1.0833238823137521e-06
4151.87,-1.0751051609060537e-06
4152.77,-1.070558183640403e-06
4153.67,-1.061066437809605e-06
4154.57,-1.0604486428420546e-06
4155.47,-1.055455447449133e-06
4156.37,-1.0560268663879972e-06
4157.27,-1.0621842350644464e-06
4158.17,-1.073578556788549e-06
4159.07,-1.0943650860547427e-06
4159.97,-1.1109514384727317e-06
4160.87,-1.1229496095395623e-06
4161.77,-1.1390163999424606e-06
4162.67,-1.1509664194021578e-06
4163.57,-1.1641772333837996e-06
4164.47,-1.1651808520713698e-06
4165.37,-1.1617137848521726e-06
4166.27,-1.1580489716849736e-06
4167.17,-1.1520472448067699e-06
4168.07,-1.1360553181376023e-06
4168.98,-1.1321481917537877e-06
4169.88,-1.1210577515001826e-06
4170.78,-1.104544953741888e-06
4171.68,-1.0871387923195763e-06
4172.58,-1.0676071976503137e-06
4173.48,-1.0514877626106124e-06
4174.38,-1.0392485372509504e-06
4175.28,-1.0402596512582215e-06
4176.18,-1.042982014200625e-06
4177.08,-1.0503329892484005e-06
4177.98,-1.0611874542758466e-06
4178.88,-1.0765507092975057e-06
4179.78,-1.0842555158229734e-06
4180.68,-1.0972756725079306e-06
4181.58,-1.1034540215943652e-06
4182.48,-1.1105095400598262e-06
4183.38,-1.1148366476010418e-06
4184.28,-1.1248628914685382e-06
4185.18,-1.1274652863058486e-06
4186.08,-1.1335416153856373e-06
4186.98,-1.1364483336894009e-06
4187.88,-1.1367914232975463e-06
4188.78,-1.1388943046967717e-06
4189.68,-1.1435773286431621e-06
4190.58,-1.1601989306477984e-06
4191.48,-1.1696958284671134e-06
4192.38,-1.1833380582309386e-06
4193.28,-1.1885443472317643e-06
4194.18,-1.1944838226981709e-06
4195.08,-1.1873387393075145e-06
4195.98,-1.1700293587697173e-06
4196.88,-1.1499924626697472e-06
4197.78,-1.1295103187567662e-06
4198.68,-1.1121327929716246e-06
4199.58,-1.1010155175985228e-06
4200.48,-1.097323835303454e-06
4201.38,-1.0985258810621848e-06
4202.28,-1.1080922274987407e-06
4203.18,-1.1139098341014709e-06
4204.08,-1.1374588049650193e-06
4204.98,-1.1609484359014605e-06
4205.88,-1.1769041700513014e-06
4206.79,-1.1965297942009261e-06
4207.69,-1.2103040538917868e-06
4208.59,-1.2239133645463414e-06
4209.49,-1.2370182415044902e-06
4210.39,-1.2390008243362252e-06
4211.29,-1.2525755527452062e-06
4212.19,-1.2456372674067973e-06
4213.09,-1.2390799379901714e-06
4213.99,-1.2364955171900675e-06
4214.89,-1.2247241621051027e-06
4215.79,-1.2100447806513947e-06
4216.69,-1.2203150754578801e-06
4217.59,-1.2237147689032074e-06
4218.49,-1.2410519847863413e-06
4219.39,-1.2591805648845425e-06
4220.29,-1.2780630432210508e-06
4221.19,-1.2864942327506164e-06
4222.09,-1.2747327051719807e-06
4222.99,-1.248633205149041e-06
4223.89,-1.2152815843285488e-06
4224.79,-1.1684968617065028e-06
4225.69,-1.115570687183044e-06
4226.59,-1.0795816371346852e-06
4227.49,-1.0704954202750096e-06
4228.39,-1.0766619578277892e-06
4229.29,-1.1148126661903034e-06
4230.19,-1.160350651485923e-06
4231.09,-1.2049778738577183e-06
4231.99,-1.2363796955338631e-06
4232.89,-1.2534734925797552e-06
4233.79,-1.2537881833540337e-06
4234.69,-1.2509811948914028e-06
4235.59,-1.241501549019353e-06
4236.49,-1.2300268918088658e-06
4237.39,-1.2247036236642312e-06
4238.29,-1.2257844375711136e-06
4239.19,-1.2384119567678451e-06
4240.09,-1.2518415209030463e-06
4240.99,-1.2728965433192632e-06
4241.89,-1.2932530828963993e-06
4242.79,-1.3020132419339502e-06
4243.69,-1.3264361416248948e-06
4244.59,-1.3358881233362928e-06
4245.5,-1.3402179772612377e-06
4246.4,-1.326753360612906e-06
4247.3,-1.3141567460927891e-06
4248.2,-1.294759578029789e-06
4249.1,-1.277736782822096e-06
4250.0,-1.2666057398174796e-06
4250.9,-1.25231206082847e-06
4251.8,-1.253107190009177e-06
4252.7,-1.2574881036443265e-06
4253.6,-1.2706735486085484e-06
4254.5,-1.2775317592072496e-06
4255.4,-1.2919461419449521e-06
4256.3,-1.297801764330673e-06
4257.2,-1.297926433266309e-06
4258.1,-1.2926182822091449e-06
4259.0,-1.2897566847180196e-06
4259.9,-1.2795105742292967e-06
4260.8,-1.273207251549781e-06
4261.7,-1.2825346233550181e-06
4262.6,-1.2970505882423147e-06
4263.5,-1.3246853868086966e-06
4264.4,-1.3621888870606548e-06
4265.3,-1.3872991037803745e-06
4266.2,-1.3966996001157436e-06
4267.1,-1.4003380239217217e-06
4268.0,-1.3842417501318964e-06
4268.9,-1.3535898057941743e-06
4269.8,-1.3160466868991178e-06
4270.7,-1.2757453922110622e-06
4271.6,-1.2402866941558075e-06
4272.5,-1.2088819152916778e-06
4273.4,-1.195673431200687e-06
4274.3,-1.2018063487437384e-06
4275.2,-1.2198151746287243e-06
4276.1,-1.2516788871454097e-06
4277.0,-1.28406474715395e-06
