wave,flux
3700.85,-1.0752938679281694e-06
3701.75,-1.0660803340943346e-06
3702.65,-1.0410562883472864e-06
3703.55,-9.938921181277308e-07
3704.45,-9.398198038091031e-07
3705.35,-8.959474117347959e-07
3706.25,-8.645007898016552e-07
3707.15,-8.53525648104657e-07
3708.05,-8.550895388908547e-07
3708.96,-8.70298359403693e-07
3709.86,-8.96848741897148e-07
3710.76,-9.376905815299367e-07
3711.66,-9.829302328026413e-07
3712.56,-1.029984444785731e-06
3713.46,-1.0786922868999832e-06
3714.36,-1.1215177756177585e-06
3715.26,-1.1472329364643704e-06
3716.16,-1.1504878369916595e-06
3717.06,-1.1297683497030154e-06
3717.96,-1.0856744867751891e-06
3718.86,-1.0212166937011118e-06
3719.76,-9.485422000270335e-07
3720.66,-8.79217516718994e-07
3721.56,-8.361005721189982e-07
3722.46,-8.334478430645116e-07
3723.36,-8.604435503898981e-07
3724.26,-9.126109526010816e-07
3725.16,-9.729375558024068e-07
3726.06,-1.0274966746626249e-06
3726.96,-1.0577179013231982e-06
3727.86,-1.0739190167626546e-06
3728.76,-1.0826800501025017e-06
3729.66,-1.0758427501772112e-06
3730.56,-1.059365792424163e-06
3731.46,-1.0274332356397213e-06
3732.36,-9.735154552677392e-07
3733.26,-9.072253611788675e-07
3734.16,-8.388154607970543e-07
3735.06,-7.874461787581509e-07
3735.96,-7.631108755036355e-07
3736.86,-7.704671069182703e-07
3737.76,-8.134120440581051e-07
3738.66,-8.842596498013998e-07
3739.56,-9.619378536446027e-07
3740.46,-1.0327289145283427e-06
3741.36,-1.0768190518937152e-06
3742.26,-1.1016353833563191e-06
3743.16,-1.083706867224836e-06
3744.06,-1.047683554186531e-06
3744.96,-9.999731193335234e-07
3745.86,-9.525594387558653e-07
3746.76,-9.010034725453788e-07
3747.67,-8.589060745649748e-07
3748.57,-8.29092708674714e-07
3749.47,-8.167724814626714e-07
3750.37,-8.390336788824576e-07
3751.27,-8.885145016523111e-07
3752.17,-9.680379293297778e-07
3753.07,-1.057854236420765e-06
3753.97,-1.1454404514182784e-06
3754.87,-1.213616241659034e-06
3755.77,-1.2429632522094862e-06
3756.67,-1.2407554370483805e-06
3757.57,-1.214751428439106e-06
3758.47,-1.175011664084456e-06
3759.37,-1.1359479221327682e-06
3760.27,-1.1215434458395243e-06
3761.17,-1.1278478880454229e-06
3762.07,-1.149949718912043e-06
3762.97,-1.1791062398241048e-06
3763.87,-1.1983927427185865e-06
3764.77,-1.2104953460591857e-06
3765.67,-1.2104140499214335e-06
3766.57,-1.21104632528584e-06
3767.47,-1.2012231070851568e-06
3768.37,-1.1987034793206594e-06
3769.27,-1.196265462295341e-06
3770.17,-1.195370767296419e-06
3771.07,-1.2144507733699196e-06
3771.97,-1.2404520656784875e-06
3772.87,-1.285851678241479e-06
3773.77,-1.3296003193385893e-06
3774.67,-1.3682961609160995e-06
3775.57,-1.4030628739834957e-06
3776.47,-1.4287570739638814e-06
3777.37,-1.4569358108265086e-06
3778.27,-1.4889042886333214e-06
3779.17,-1.5176091270443992e-06
3780.07,-1.5551869004554592e-06
3780.97,-1.5812000720375081e-06
3781.87,-1.6076752634539396e-06
3782.77,-1.627015560602826e-06
3783.67,-1.6266377021362296e-06
3784.57,-1.6127062020265971e-06
3785.47,-1.5745926490548425e-06
3786.38,-1.5302590590489702e-06
3787.28,-1.4792238560398803e-06
3788.18,-1.4342929527316406e-06
3789.08,-1.4069284132135777e-06
3789.98,-1.3942824537154186e-06
3790.88,-1.3775441506621513e-06
3791.78,-1.379580487420185e-06
3792.68,-1.3695190451458164e-06
3793.58,-1.3520873186764736e-06
3794.48,-1.3205743484337883e-06
3795.38,-1.2792666102552777e-06
3796.28,-1.2429259667601737e-06
3797.18,-1.202617830447716e-06
3798.08,-1.1780262312596346e-06
3798.98,-1.1812886682090518e-06
3799.88,-1.2192937023106253e-06
3800.78,-1.2846382117687618e-06
3801.68,-1.3742135016428987e-06
3802.58,-1.4725029612384837e-06
3803.48,-1.556621809778559e-06
3804.38,-1.6134221639329372e-06
3805.28,-1.6440660590288286e-06
3806.18,-1.6611913932694065e-06
3807.08,-1.6660883179166678e-06
3807.98,-1.6688843999832654e-06
3808.88,-1.6748698440750936e-06
3809.78,-1.7003982738339582e-06
3810.68,-1.7060107948469974e-06
3811.58,-1.6986739039986216e-06
3812.48,-1.6686096138989193e-06
3813.38,-1.622083838913199e-06
3814.28,-1.5651957776766462e-06
3815.18,-1.5139859494430266e-06
3816.08,-1.4776791963519585e-06
3816.98,-1.456284806838384e-06
3817.88,-1.454910947451485e-06
3818.78,-1.4451168844602476e-06
3819.68,-1.4291498064524662e-06
3820.58,-1.421408000449381e-06
3821.48,-1.3964153789567154e-06
3822.38,-1.3871582547316558e-06
3823.28,-1.380184682784637e-06
3824.18,-1.3490005963353786e-06
3825.09,-1.3190349239819271e-06
3825.99,-1.2834831530393932e-06
3826.89,-1.2573391653341713e-06
3827.79,-1.2328515490162033e-06
3828.69,-1.225610977155229e-06
3829.59,-1.2143227546639511e-06
3830.49,-1.20473021130184e-06
3831.39,-1.1851690605627478e-06
3832.29,-1.1500073781331922e-06
3833.19,-1.1134077919846197e-06
3834.09,-1.0768296294129409e-06
3834.99,-1.0572987485199293e-06
3835.89,-1.0507833324516558e-06
3836.79,-1.0561460013025841e-06
3837.69,-1.0777489045975866e-06
3838.59,-1.1006903927032148e-06
3839.49,-1.13505760210403e-06
3840.39,-1.1934578242050872e-06
3841.29,-1.2691219489422696e-06
3842.19,-1.3708938654726433e-06
3843.09,-1.4727647798837823e-06
3843.99,-1.5742974345118236e-06
3844.89,-1.6479305996583746e-06
3845.79,-1.7157388452748795e-06
3846.69,-1.7651430464873704e-06
3847.59,-1.7807438046614426e-06
3848.49,-1.8023209381408288e-06
3849.39,-1.7980656975632767e-06
3850.29,-1.7961991228678454e-06
3851.19,-1.8049911460223337e-06
3852.09,-1.8086679143077034e-06
3852.99,-1.8169777068694935e-06
3853.89,-1.8152278003455637e-06
3854.79,-1.811401805021845e-06
3855.69,-1.7833880803591522e-06
3856.59,-1.7417081892173202e-06
3857.49,-1.697008764753562e-06
3858.39,-1.655632412573281e-06
3859.29,-1.622330472994151e-06
3860.19,-1.6190392063458334e-06
3861.09,-1.6390415273837193e-06
3861.99,-1.7043968957098333e-06
3862.9,-1.7658285925456633e-06
3863.8,-1.8406597554120007e-06
3864.7,-1.900656132110929e-06
3865.6,-1.9374628458283973e-06
3866.5,-1.9449015460067433e-06
3867.4,-1.9440994389341855e-06
3868.3,-1.933410018143439e-06
3869.2,-1.9226426747533854e-06
3870.1,-1.8797155117342912e-06
3871.0,-1.833344951458932e-06
3871.9,-1.7911713885031559e-06
3872.8,-1.7712315219455623e-06
3873.7,-1.7657175722838034e-06
3874.6,-1.7861473921322031e-06
3875.5,-1.8066853028079621e-06
3876.4,-1.8290943911985414e-06
3877.3,-1.839543149148415e-06
3878.2,-1.8272859760544094e-06
3879.1,-1.8162756515843942e-06
3880.0,-1.8078613484057373e-06
3880.9,-1.8092223395486802e-06
3881.8,-1.8089329588838857e-06
3882.7,-1.8176262514020033e-06
3883.6,-1.8141739100762905e-06
3884.5,-1.7897168259579662e-06
3885.4,-1.7449748597036703e-06
3886.3,-1.700710793169296e-06
3887.2,-1.6406422741314558e-06
3888.1,-1.6089047785714249e-06
3889.0,-1.5873779425001394e-06
3889.9,-1.6054901209327892e-06
3890.8,-1.6669869351792305e-06
3891.7,-1.7509350592429232e-06
3892.6,-1.83769805273052e-06
3893.5,-1.901185417002089e-06
3894.4,-1.9673780015562242e-06
3895.3,-2.0112789209649843e-06
3896.2,-2.0392733742670503e-06
3897.1,-2.070881345276421e-06
3898.0,-2.098876601989422e-06
3898.9,-2.114838056540876e-06
3899.8,-2.136276310249288e-06
3900.7,-2.1382438509250097e-06
3901.6,-2.162723419745539e-06
3902.51,-2.1481629827131033e-06
3903.41,-2.1464390039520553e-06
3904.31,-2.126800791065477e-06
3905.21,-2.1283628592182155e-06
3906.11,-2.1141922806890143e-06
3907.01,-2.149027246596648e-06
3907.91,-2.1954729480818476e-06
3908.81,-2.2609953956128626e-06
3909.71,-2.339695265251949e-06
3910.61,-2.4043700204382086e-06
3911.51,-2.4593477681051896e-06
3912.41,-2.4873188761286247e-06
3913.31,-2.5102915577228546e-06
3914.21,-2.506230931338831e-06
3915.11,-2.4870881954303037e-06
3916.01,-2.4587597354506823e-06
3916.91,-2.4295675665839537e-06
3917.81,-2.3833178751742155e-06
3918.71,-2.335246288809444e-06
3919.61,-2.2843195338969117e-06
3920.51,-2.2500801696877516e-06
3921.41,-2.1978652269313356e-06
3922.31,-2.169110075502738e-06
3923.21,-2.147717793486735e-06
3924.11,-2.1222168961554522e-06
3925.01,-2.091706643748014e-06
3925.91,-2.035001745522643e-06
3926.81,-1.9395232111510178e-06
3927.71,-1.807532993616289e-06
3928.61,-1.6484571416159743e-06
3929.51,-1.470277365349593e-06
3930.41,-1.2895015133707563e-06
3931.31,-1.1186751184949412e-06
3932.21,-9.633457310702848e-07
3933.11,-8.466883998786945e-07
3934.01,-7.764347769720008e-07
3934.91,-7.709848624703498e-07
3935.81,-8.262762879476221e-07
3936.71,-9.378163747545089e-07
3937.61,-1.099035261932511e-06
3938.51,-1.2851235026010466e-06
3939.42,-1.4755138565924224e-06
3940.32,-1.6545899171052129e-06
3941.22,-1.8095840100158628e-06
3942.12,-1.927784349181236e-06
3943.02,-2.0269916723674807e-06
3943.92,-2.107083373198237e-06
3944.82,-2.1885748324235977e-06
3945.72,-2.275183772862077e-06
3946.62,-2.3604487671980353e-06
3947.52,-2.4428635168503602e-06
3948.42,-2.5111765271787454e-06
3949.32,-2.592649274440629e-06
3950.22,-2.6395973212347226e-06
3951.12,-2.6941764486690045e-06
3952.02,-2.732785031923909e-06
3952.92,-2.7611625021365824e-06
3953.82,-2.7769267354164558e-06
3954.72,-2.7906634039181237e-06
3955.62,-2.8040788457677335e-06
3956.52,-2.795630917453319e-06
3957.42,-2.7716753099047686e-06
3958.32,-2.7430980124816107e-06
3959.22,-2.705586506153298e-06
3960.12,-2.6275166632646743e-06
3961.02,-2.5137857694420478e-06
3961.92,-2.3822839820657304e-06
3962.82,-2.217913398298098e-06
3963.72,-2.0475751663888796e-06
3964.62,-1.8654042599710437e-06
3965.52,-1.6746865735615434e-06
3966.42,-1.4806396246555372e-06
3967.32,-1.294553827431828e-06
3968.22,-1.145498618327157e-06
3969.12,-1.0565784959681512e-06
3970.02,-1.0436089125235765e-06
3970.92,-1.1103529561282709e-06
3971.82,-1.2461024967085568e-06
3972.72,-1.4453192773761081e-06
3973.62,-1.6746513282530647e-06
3974.52,-1.9066295926491613e-06
3975.42,-2.139569528270675e-06
3976.32,-2.358938188458559e-06
3977.22,-2.561483898244685e-06
3978.13,-2.7529400861548985e-06
3979.03,-2.9172165212730054e-06
3979.93,-3.0255801682128424e-06
3980.83,-3.1260227212042937e-06
3981.73,-3.2113340907339065e-06
3982.63,-3.2445405261232216e-06
3983.53,-3.285105858201923e-06
3984.43,-3.317215517463571e-06
3985.33,-3.3560844786890085e-06
3986.23,-3.4128570063488497e-06
3987.13,-3.470385177497786e-06
3988.03,-3.4982236998601238e-06
3988.93,-3.5515917087838303e-06
3989.83,-3.6136815754951488e-06
3990.73,-3.655134059525091e-06
3991.63,-3.6859590886436233e-06
3992.53,-3.714333129286089e-06
3993.43,-3.756402984376962e-06
3994.33,-3.746972571027762e-06
3995.23,-3.7299741345194678e-06
3996.13,-3.7101894947336943e-06
3997.03,-3.666348857324236e-06
3997.93,-3.6776972296373203e-06
3998.83,-3.6906448220515954e-06
3999.73,-3.742066515562362e-06
4000.63,-3.8168639281150926e-06
4001.53,-3.866698977893688e-06
4002.43,-3.915914534504824e-06
4003.33,-3.939844134545035e-06
4004.23,-3.9082891568675095e-06
4005.13,-3.8765004685018014e-06
4006.03,-3.843791569304324e-06
4006.93,-3.82413051600848e-06
4007.83,-3.842005418814687e-06
4008.73,-3.909994352620712e-06
4009.63,-3.9924912033677045e-06
4010.53,-4.062020247100052e-06
4011.43,-4.116128075245635e-06
4012.33,-4.151163195787528e-06
4013.23,-4.201846422716009e-06
4014.13,-4.219681052607147e-06
4015.03,-4.231227562239912e-06
4015.93,-4.2475409938171695e-06
4016.84,-4.284476903949974e-06
4017.74,-4.283853406811704e-06
4018.64,-4.31948280377364e-06
4019.54,-4.31865273874871e-06
4020.44,-4.352864072548233e-06
4021.34,-4.380988371658123e-06
4022.24,-4.372736292016636e-06
4023.14,-4.383802313458338e-06
4024.04,-4.413641903785482e-06
4024.94,-4.438506478290414e-06
4025.84,-4.448059636631224e-06
4026.74,-4.493758088056641e-06
4027.64,-4.529109822800139e-06
4028.54,-4.507272148965891e-06
4029.44,-4.492945832245196e-06
4030.34,-4.42223610515154e-06
4031.24,-4.32880948603967e-06
4032.14,-4.2582910359886934e-06
4033.04,-4.204370124999201e-06
4033.94,-4.208807729284912e-06
4034.84,-4.274191762585245e-06
4035.74,-4.375482737606883e-06
4036.64,-4.486806436737323e-06
4037.54,-4.638136145030011e-06
4038.44,-4.7691365777006985e-06
4039.34,-4.839768442859782e-06
4040.24,-4.873166826939877e-06
4041.14,-4.842842391045649e-06
4042.04,-4.789181473986682e-06
4042.94,-4.718728225563219e-06
4043.84,-4.5840443946645765e-06
4044.74,-4.489064457522711e-06
4045.64,-4.380810480151197e-06
4046.54,-4.346190868244049e-06
4047.44,-4.381160902965787e-06
4048.34,-4.465161501901358e-06
4049.24,-4.62902785793979e-06
4050.14,-4.771206444336378e-06
4051.04,-4.868430416091305e-06
4051.94,-4.944191553768241e-06
4052.84,-4.965904324865896e-06
4053.74,-4.966060721394902e-06
4054.65,-4.939740526439659e-06
4055.55,-4.89259189405149e-06
4056.45,-4.850831575886016e-06
4057.35,-4.861677023089739e-06
4058.25,-4.876675561921174e-06
4059.15,-4.892555635625867e-06
4060.05,-4.901572529314081e-06
4060.95,-4.9139372632656234e-06
4061.85,-4.877843857890362e-06
4062.75,-4.843707066479649e-06
4063.65,-4.780408978639144e-06
4064.55,-4.729318077400779e-06
4065.45,-4.745333585011629e-06
4066.35,-4.776707784247809e-06
4067.25,-4.856843433176268e-06
4068.15,-4.929190641798269e-06
4069.05,-5.036867683205434e-06
4069.95,-5.090386034048805e-06
4070.85,-5.134706461895677e-06
4071.75,-5.134203333734103e-06
4072.65,-5.118288102519548e-06
4073.55,-5.097277677855873e-06
4074.45,-5.081917025080613e-06
4075.35,-5.068457349082707e-06
4076.25,-4.9890812188303155e-06
4077.15,-4.9474383648064026e-06
4078.05,-4.919368604109369e-06
4078.95,-4.95690730589161e-06
4079.85,-5.016368539121763e-06
4080.75,-5.148717768030308e-06
4081.65,-5.283390067640815e-06
4082.55,-5.389753906774625e-06
4083.45,-5.475665793213047e-06
4084.35,-5.507344588230964e-06
4085.25,-5.570743731339024e-06
4086.15,-5.648821044426114e-06
4087.05,-5.7178920002922676e-06
4087.95,-5.847747618978806e-06
4088.85,-5.950732242775705e-06
4089.75,-6.027501204898141e-06
4090.65,-6.064790091784205e-06
4091.55,-6.094815458704751e-06
4092.45,-6.076371818874584e-06
4093.36,-6.025142762758234e-06
4094.26,-5.983957220481366e-06
4095.16,-5.866276560888056e-06
4096.06,-5.791650931988855e-06
4096.96,-5.649940888512513e-06
4097.86,-5.514863317190379e-06
4098.76,-5.3571465294239735e-06
4099.66,-5.192248362126332e-06
4100.56,-5.008543552578486e-06
4101.46,-4.867375792223548e-06
4102.36,-4.795678112784376e-06
4103.26,-4.823982928389137e-06
4104.16,-4.938651450630429e-06
4105.06,-5.119981151150409e-06
4105.96,-5.3345725801125535e-06
4106.86,-5.555148981266202e-06
4107.76,-5.745494320557424e-06
4108.66,-5.878832947530064e-06
4109.56,-5.98081055401511e-06
4110.46,-6.006480557616091e-06
4111.36,-6.0720301200043136e-06
4112.26,-6.1222028723633855e-06
4113.16,-6.208312130588171e-06
4114.06,-6.319241915303742e-06
4114.96,-6.386829823772659e-06
4115.86,-6.46636348533412e-06
4116.76,-6.4993198772422715e-06
4117.66,-6.492411347113041e-06
4118.56,-6.4847070944278936e-06
4119.46,-6.478610155307339e-06
4120.36,-6.447875676466452e-06
4121.26,-6.448421983217965e-06
4122.16,-6.455866894105585e-06
4123.06,-6.487034492337407e-06
4123.96,-6.5323582780546124e-06
4124.86,-6.586006802161888e-06
4125.76,-6.641716526790758e-06
4126.66,-6.6662517057432905e-06
4127.56,-6.633027104904968e-06
4128.46,-6.602006121105651e-06
4129.36,-6.578930238735032e-06
4130.26,-6.577148723125246e-06
4131.17,-6.48846331591965e-06
4132.06,-6.427505611331138e-06
4132.97,-6.420531084099829e-06
4133.87,-6.402662281897475e-06
4134.77,-6.449892237392931e-06
4135.67,-6.561786022200152e-06
4136.57,-6.720641119823971e-06
4137.47,-6.848824495925697e-06
4138.37,-6.988532952741306e-06
4139.27,-7.122446071906135e-06
4140.17,-7.1407010939011055e-06
4141.07,-7.066016172745352e-06
4141.97,-7.004617558683753e-06
4142.87,-6.866399863626297e-06
4143.77,-6.7641460182703475e-06
4144.67,-6.697092206484738e-06
4145.57,-6.744235007186259e-06
4146.47,-6.8408031983854565e-06
4147.37,-6.954409295032857e-06
4148.27,-7.0683390443540525e-06
4149.17,-7.1406183333868935e-06
4150.07,-7.192841717159852e-06
4150.97,-7.2306172988285e-06
4151.87,-7.191936821046042e-06
4152.77,-7.200154923960946e-06
4153.67,-7.1817203933359e-06
4154.57,-7.186277590962455e-06
4155.47,-7.199470672546513e-06
4156.37,-7.207141245637116e-06
4157.27,-7.301363011013229e-06
4158.17,-7.412098014474459e-06
4159.07,-7.4767377402974534e-06
4159.97,-7.597917609596154e-06
4160.87,-7.684023529197094e-06
4161.77,-7.815891028283776e-06
4162.67,-7.849676657526649e-06
4163.57,-7.901920224859842e-06
4164.47,-7.95770928116864e-06
4165.37,-7.921237838037663e-06
4166.27,-7.908271299141783e-06
4167.17,-7.873276952503962e-06
4168.07,-7.848719983428019e-06
4168.98,-7.832933541971312e-06
4169.88,-7.784151760948559e-06
4170.78,-7.662194382309759e-06
4171.68,-7.582532269894672e-06
4172.58,-7.493398358293049e-06
4173.48,-7.389204360916947e-06
4174.38,-7.3685815331499205e-06
4175.28,-7.369437139027705e-06
4176.18,-7.452616991832774e-06
4177.08,-7.555575590398986e-06
4177.98,-7.668199325379185e-06
4178.88,-7.759527047580585e-06
4179.78,-7.893831290438406e-06
4180.68,-7.942548073190711e-06
4181.58,-8.023341499029687e-06
4182.48,-8.073121767781322e-06
4183.38,-8.103852628372292e-06
4184.28,-8.114012384289738e-06
4185.18,-8.142722108983854e-06
4186.08,-8.12586420241404e-06
4186.98,-8.139068915058999e-06
4187.88,-8.148708007826475e-06
4188.78,-8.165500401366193e-06
4189.68,-8.212458268836455e-06
4190.58,-8.280871056084341e-06
4191.48,-8.389984346542418e-06
4192.38,-8.475686445614909e-06
4193.28,-8.560076040067532e-06
4194.18,-8.593708280534184e-06
4195.08,-8.627026876430913e-06
4195.98,-8.564624514042647e-06
4196.88,-8.471168574659876e-06
4197.78,-8.328697732030946e-06
4198.68,-8.231246833882179e-06
4199.58,-8.153588564130492e-06
4200.48,-8.110943836612717e-06
4201.38,-8.14792843424996e-06
4202.28,-8.171861851586483e-06
4203.18,-8.281196670039477e-06
4204.08,-8.414046493711365e-06
4204.98,-8.545834810208473e-06
4205.88,-8.723969669146086e-06
4206.79,-8.844007317003174e-06
4207.69,-8.995813091041857e-06
4208.59,-9.139397595559866e-06
4209.49,-9.219283446303495e-06
4210.39,-9.320600918285254e-06
4211.29,-9.358440408265482e-06
4212.19,-9.39301058768272e-06
4213.09,-9.367609901431944e-06
4213.99,-9.313742496298037e-06
4214.89,-9.245001757270978e-06
4215.79,-9.222485712541257e-06
4216.69,-9.168724866094563e-06
4217.59,-9.204258786159968e-06
4218.49,-9.297324435192295e-06
4219.39,-9.39852818309037e-06
4220.29,-9.538874999755556e-06
4221.19,-9.614495054876016e-06
4222.09,-9.549648122716521e-06
4222.99,-9.417120307165676e-06
4223.89,-9.17968630408918e-06
4224.79,-8.831069901697138e-06
4225.69,-8.472619437248873e-06
4226.59,-8.23571768143389e-06
4227.49,-8.123241942398456e-06
4228.39,-8.232835163754314e-06
4229.29,-8.494920487596293e-06
4230.19,-8.876865515594085e-06
4231.09,-9.241345510194765e-06
4231.99,-9.513303035457532e-06
4232.89,-9.71730783782286e-06
4233.79,-9.777226881830209e-06
4234.69,-9.761803748913752e-06
4235.59,-9.728390279827957e-06
4236.49,-9.696791591740799e-06
4237.39,-9.70011628197352e-06
4238.29,-9.733842392830254e-06
4239.19,-9.772074109183284e-06
4240.09,-9.965089382979634e-06
4240.99,-1.0079046648177801e-05
4241.89,-1.0247279973423307e-05
4242.79,-1.0348997026217039e-05
4243.69,-1.049082411564372e-05
4244.59,-1.0585550825601642e-05
4245.5,-1.0636450135104744e-05
4246.4,-1.0610140725794394e-05
4247.3,-1.0478562293736314e-05
4248.2,-1.0372533565108855e-05
4249.1,-1.0207646527230538e-05
4250.0,-1.0142419751841802e-05
4250.9,-1.0187099934689499e-05
4251.8,-1.0238884481970726e-05
4252.7,-1.0305345784321022e-05
4253.6,-1.0403425260891848e-05
4254.5,-1.0465506740789338e-05
4255.4,-1.0569892886040097e-05
4256.3,-1.0648590656783699e-05
4257.2,-1.0704840291738825e-05
4258.1,-1.070185779431366e-05
4259.0,-1.0721799148720866e-05
4259.9,-1.0690714815662046e-05
4260.8,-1.0634261204828243e-05
4261.7,-1.0734529667427434e-05
4262.6,-1.088941624885706e-05
4263.5,-1.1156731582444684e-05
4264.4,-1.1333989915032595e-05
4265.3,-1.15372874306603e-05
4266.2,-1.1721845031536046e-05
4267.1,-1.1746282892814469e-05
4268.0,-1.1689803319693625e-05
4268.9,-1.1489960277012524e-05
4269.8,-1.1192757809771878e-05
4270.7,-1.0955880087617608e-05
4271.6,-1.0651170011344287e-05
4272.5,-1.0483399074906396e-05
4273.4,-1.0346877319496187e-05
4274.3,-1.0386047712624892e-05
4275.2,-1.057505999737812e-05
