wave,flux
3700.85,-0.002242933072672538
3701.75,-0.0022609605166472387
3702.65,-0.00221827716559696
3703.55,-0.0021666157893101756
3704.45,-0.0020892884934937636
3705.35,-0.0020433091593932773
3706.25,-0.002015989861590988
3707.15,-0.0020248851460059588
3708.05,-0.002081078649358757
3708.96,-0.002129642324983703
3709.86,-0.0021819906270088923
3710.76,-0.002260087199912103
3711.66,-0.002345846215019584
3712.56,-0.0024470491874869307
3713.46,-0.002571113603321405
3714.36,-0.002693431384061834
3715.26,-0.0028126986300008247
3716.16,-0.002910724300114096
3717.06,-0.002943077134653689
3717.96,-0.002903265816001347
3718.86,-0.0028224884007936415
3719.76,-0.0026876645469117518
3720.66,-0.0025454525602736566
3721.56,-0.002449220567243144
3722.46,-0.002442832578466202
3723.36,-0.002531191674658438
3724.26,-0.0026881905560326297
3725.16,-0.0028843583362976434
3726.06,-0.0030818067329586828
3726.96,-0.003243868681406612
3727.86,-0.0033366770482432732
3728.76,-0.003383031968282751
3729.66,-0.0034153131954859166
3730.56,-0.0033798614750804763
3731.46,-0.0033081239689859757
3732.36,-0.003166444138297585
3733.26,-0.0029870619761520555
3734.16,-0.0028138186339704404
3735.06,-0.0027021337444439707
3735.96,-0.002702425465796708
3736.86,-0.002819985132554851
3737.76,-0.0030420694878946176
3738.66,-0.003353299815004675
3739.56,-0.003689150876021456
3740.46,-0.003978067197511298
3741.36,-0.004193359076255044
3742.26,-0.004303559594749002
3743.16,-0.004313204110541921
3744.06,-0.00427553946414628
3744.96,-0.0041666380758622395
3745.86,-0.004018852163883391
3746.76,-0.0038606468858004266
3747.67,-0.0037036655709614306
3748.57,-0.003543351454812143
3749.47,-0.0034594784795408027
3750.37,-0.0034798168468464564
3751.27,-0.0036773374526712058
3752.17,-0.0039946360289777536
3753.07,-0.004431183609538466
3753.97,-0.00484663770747747
3754.87,-0.0052412021115206715
3755.77,-0.005545352228491695
3756.67,-0.005713205366942489
3757.57,-0.005755479358298345
3758.47,-0.0057535270349601325
3759.37,-0.00572578189301382
3760.27,-0.005793455744216101
3761.17,-0.00589382992742291
3762.07,-0.006056883819985801
3762.97,-0.006232009833987399
3763.87,-0.006353667147188714
3764.77,-0.0064569434372645585
3765.67,-0.006449630628332751
3766.57,-0.006394781548245457
3767.47,-0.006300633242048537
3768.37,-0.006166258339968659
3769.27,-0.006043678282463023
3770.17,-0.0059843494015925005
3771.07,-0.006043253165707394
3771.97,-0.006211545928028169
3772.87,-0.0065401928895741
3773.77,-0.006967950383587763
3774.67,-0.007380230075614483
3775.57,-0.007852878105025878
3776.47,-0.00833178874804393
3777.37,-0.008766983389832278
3778.27,-0.009194477394098252
3779.17,-0.009624813129895583
3780.07,-0.010044164121921152
3780.97,-0.01045979841389553
3781.87,-0.010843923525685603
3782.77,-0.01115138246969443
3783.67,-0.011337398988871504
3784.57,-0.01148650469218015
3785.47,-0.01137611489180107
3786.38,-0.0113305070203273
3787.28,-0.011168611261796338
3788.18,-0.01099883107160364
3789.08,-0.010927275177606971
3789.98,-0.01087706536891872
3790.88,-0.010816501363850066
3791.78,-0.010769077951185854
3792.68,-0.010720212298671102
3793.58,-0.010544172937191332
3794.48,-0.010210685875032686
3795.38,-0.00984743810039805
3796.28,-0.009421601989308716
3797.18,-0.009096092364215613
3798.08,-0.009006919816934139
3798.98,-0.009154759548834145
3799.88,-0.009574693779319547
3800.78,-0.010378689776370938
3801.68,-0.011426856059726875
3802.58,-0.012476658468863908
3803.48,-0.013660868401795872
3804.38,-0.014500143802007898
3805.28,-0.015292719065026448
3806.18,-0.015881737583107958
3807.08,-0.016450296329651747
3807.98,-0.017029104174255162
3808.88,-0.017652477451238865
3809.78,-0.01826984863884113
3810.68,-0.01888155936323168
3811.58,-0.019222203827657915
3812.48,-0.019386308713703122
3813.38,-0.01944695547986368
3814.28,-0.01935664510698961
3815.18,-0.019421352295889285
3816.08,-0.01943422310139114
3816.98,-0.019748347102843122
3817.88,-0.020185343482560743
3818.78,-0.020671669666856993
3819.68,-0.02089638122442696
3820.58,-0.021045784662782896
3821.48,-0.021109542775522384
3822.38,-0.021320709672092444
3823.28,-0.021290475303096343
3824.18,-0.02128225555954193
3825.09,-0.021093470228840346
3825.99,-0.0209261245670575
3826.89,-0.020579587067985516
3827.79,-0.020502922054497594
3828.69,-0.020399095025690154
3829.59,-0.020317556738264752
3830.49,-0.02004330760083576
3831.39,-0.019647660171297772
3832.29,-0.018959071497461503
3833.19,-0.018124291954251883
3834.09,-0.017475998783420373
3834.99,-0.017044547916214358
3835.89,-0.017035914571443236
3836.79,-0.017403652903641417
3837.69,-0.018210041942047665
3838.59,-0.019442915263673533
3839.49,-0.021032538416125367
3840.39,-0.023000975270736013
3841.29,-0.02513770428604613
3842.19,-0.027675150913933654
3843.09,-0.029965542823028844
3843.99,-0.03240530515672206
3844.89,-0.0346495304839405
3845.79,-0.03672802173486806
3846.69,-0.03854748897835542
3847.59,-0.040084813719159604
3848.49,-0.04155893704218577
3849.39,-0.043266917594455764
3850.29,-0.04460012298775501
3851.19,-0.045959485464042604
3852.09,-0.04752151832616775
3852.99,-0.048703250295616944
3853.89,-0.05023386881726488
3854.79,-0.05128415742799565
3855.69,-0.05208367580566327
3856.59,-0.05259819494182614
3857.49,-0.053250243721495484
3858.39,-0.05378571475211716
3859.29,-0.054705589272904365
3860.19,-0.05563608528897733
3861.09,-0.05751729643743817
3861.99,-0.060278328619200267
3862.9,-0.06289351500208298
3863.8,-0.0656856786975571
3864.7,-0.06803072845930798
3865.6,-0.06995092433708586
3866.5,-0.07174147816780656
3867.4,-0.0734041800879542
3868.3,-0.07478634428990152
3869.2,-0.07561555018321385
3870.1,-0.07672593011823953
3871.0,-0.07766782595695627
3871.9,-0.07787776626445561
3872.8,-0.0786615274064308
3873.7,-0.07965862881679044
3874.6,-0.08166796022101967
3875.5,-0.08374367934869302
3876.4,-0.08552700261277815
3877.3,-0.08703162808149538
3878.2,-0.08759903253047319
3879.1,-0.08825351469389696
3880.0,-0.08935352344795543
3880.9,-0.09062118297348887
3881.8,-0.09141606569168219
3882.7,-0.09206194502769563
3883.6,-0.09243605245971043
3884.5,-0.0918121947511574
3885.4,-0.08988657819136335
3886.3,-0.0873628234229754
3887.2,-0.08488610872424897
3888.1,-0.08288739047501886
3889.0,-0.08256446715298114
3889.9,-0.08469003703035549
3890.8,-0.08930120877817431
3891.7,-0.09707962519997408
3892.6,-0.10604427247615508
3893.5,-0.11611905939290802
3894.4,-0.1250833871379984
3895.3,-0.13417818936047202
3896.2,-0.14292917498482585
3897.1,-0.15181766794859136
3898.0,-0.16008968329333415
3898.9,-0.1686473360704258
3899.8,-0.1772612838998674
3900.7,-0.1863332528196205
3901.6,-0.19474999256199405
3902.51,-0.20292832722250065
3903.41,-0.21092734464723997
3904.31,-0.21956889444984087
3905.21,-0.226683199780819
3906.11,-0.23528023078246918
3907.01,-0.24822785227408656
3907.91,-0.2602004523897796
3908.81,-0.27834228553445006
3909.71,-0.29552799313934885
3910.61,-0.31319627112448206
3911.51,-0.3310322512369556
3912.41,-0.34579180090129863
3913.31,-0.36206180940674915
3914.21,-0.37583216313280204
3915.11,-0.3890755594937782
3916.01,-0.40078480589153753
3916.91,-0.4153957740354706
3917.81,-0.43047432013721704
3918.71,-0.44531665039010404
3919.61,-0.45703343673235125
3920.51,-0.4763552975064636
3921.41,-0.49603425243083155
3922.31,-0.5174664701842421
3923.21,-0.5413391895754807
3924.11,-0.5666627978760161
3925.01,-0.5892494576385358
3925.91,-0.611191180611504
3926.81,-0.6235422578141456
3927.71,-0.6314948438263427
3928.61,-0.6254976631743577
3929.51,-0.6101204027683379
3930.41,-0.5903256851626281
3931.31,-0.5615712538453144
3932.21,-0.5359794973222725
3933.11,-0.5182854926011901
3934.01,-0.519461299765148
3934.91,-0.5598926264289119
3935.81,-0.6424470221230151
3936.71,-0.7798722065610998
3937.61,-0.969533168104489
3938.51,-1.2262756276279152
3939.42,-1.538044841833464
3940.32,-1.9001893517030917
3941.22,-2.352995729493023
3942.12,-2.89748689343965
3943.02,-3.6355495727156883
3943.92,-4.732738123690884
3944.82,-6.525946724144168
3945.72,-10.160361838024166
3946.62,-21.128660615249526
3947.52,910.0845846478436
3948.42,21.38686176183669
3949.32,11.085108574671388
3950.22,7.571308317038975
3951.12,5.811083271541448
3952.02,4.714986367738423
3952.92,4.003343362220187
3953.82,3.4814818379181003
3954.72,3.0801406442532957
3955.62,2.7606443327134396
3956.52,2.4911567630692577
3957.42,2.2784189520486207
3958.32,2.0880037770351603
3959.22,1.9006570752524268
3960.12,1.7487535430616143
3961.02,1.5926401263210284
3961.92,1.4380763292837089
3962.82,1.2916455097772779
3963.72,1.1521701347671403
3964.62,1.0225874157217065
3965.52,0.8925919013007649
3966.42,0.7684777351576804
3967.32,0.6582945007477057
3968.22,0.5701354138791155
3969.12,0.5049880849831659
3970.02,0.47701581891797284
3970.92,0.4789783995703458
3971.82,0.5087703237060135
3972.72,0.5598575789304874
3973.62,0.6213248975519848
3974.52,0.6810380680024443
3975.42,0.7387741010581585
3976.32,0.7949730033390512
3977.22,0.8423973000156532
3978.13,0.8838167616698793
3979.03,0.9220178618302325
3979.93,0.9423496339971993
3980.83,0.9597228974631763
3981.73,0.9704345078339639
3982.63,0.9743994890921371
3983.53,0.9753105811885923
3984.43,0.9752657660244152
3985.33,0.9747062447531036
3986.23,0.9777948198049136
3987.13,0.9854579864438338
3988.03,0.9928346249425597
3988.93,0.9948491305032873
3989.83,0.9985951443447064
3990.73,1.0011250480255662
3991.63,1.004422473846611
3992.53,1.0050882014016984
3993.43,1.007923584774621
3994.33,1.0015170818001575
3995.23,0.9948145539209376
3996.13,0.9791552337539146
3997.03,0.9700876651574885
3997.93,0.9644220084599006
3998.83,0.9635338098677858
3999.73,0.9727070364820096
4000.63,0.9844083423823404
4001.53,0.9904585593918384
4002.43,0.9917180463862328
4003.33,0.9923973868246339
4004.23,0.9793076265441364
4005.13,0.9686095276328308
4006.03,0.9569749211142747
4006.93,0.9524823199328529
4007.83,0.9520799494622806
4008.73,0.9597702784114337
4009.63,0.9712579743043783
4010.53,0.9840212419385083
4011.43,0.9957173989821172
4012.33,0.9976623057490757
4013.23,1.0022566043392216
4014.13,1.0043081330404298
4015.03,1.0031526233723187
4015.93,1.0068115098805959
4016.84,1.0121794001409818
4017.74,1.0100708467834227
4018.64,1.0142076412987628
4019.54,1.0164674695047233
4020.44,1.0187747343956572
4021.34,1.021834074317416
4022.24,1.0192764451470886
4023.14,1.0173195602364635
4024.04,1.0178837185136276
4024.94,1.0171446796853414
4025.84,1.0223138059162105
4026.74,1.0270450388987944
4027.64,1.028639028934708
4028.54,1.025252818544654
4029.44,1.016763644108854
4030.34,1.0022064551879057
4031.24,0.9820676040078911
4032.14,0.9650462470732061
4033.04,0.9574577403092102
4033.94,0.9597024475715143
4034.84,0.9737621831637986
4035.74,0.9834904790266324
4036.64,1.0116645458640445
4037.54,1.0366807860087954
4038.44,1.0510599928325406
4039.34,1.063479136830656
4040.24,1.0668976390424811
4041.14,1.0575527074632196
4042.04,1.0507935990760138
4042.94,1.0358703912570502
4043.84,1.0148557264376248
4044.74,0.9994946184656663
4045.64,0.9842485889303282
4046.54,0.9778505526868437
4047.44,0.9821724528582001
4048.34,1.0011747170629537
4049.24,1.0237709839753948
4050.14,1.0430180819720238
4051.04,1.057475893175101
4051.94,1.0602448298495633
4052.84,1.057133836513779
4053.74,1.0494965378275407
4054.65,1.0382544676905208
4055.55,1.0307337120179216
4056.45,1.0229377767042334
4057.35,1.0189624815345681
4058.25,1.019985926387908
4059.15,1.0241555240162379
4060.05,1.0272440353144316
4060.95,1.0297659236757821
4061.85,1.0303284260873669
4062.75,1.020921437571033
4063.65,1.0118167604902488
4064.55,1.0036581226064318
4065.45,1.0012862652776524
4066.35,1.005961590298927
4067.25,1.0174902420580982
4068.15,1.0309108546332497
4069.05,1.0364621385435273
4069.95,1.044985642241595
4070.85,1.0453097124661292
4071.75,1.041385164652928
4072.65,1.0376395738219057
4073.55,1.0298581276348926
4074.45,1.0263937681775859
4075.35,1.01384389107932
4076.25,1.001630555811887
4077.15,0.987418915725421
4078.05,0.9768165788557758
4078.95,0.9759505808825375
4079.85,0.9877170376711877
4080.75,0.9999716123512683
4081.65,1.0118885018712378
4082.55,1.0291919870011486
4083.45,1.0354611573583068
4084.35,1.0318101816659937
4085.25,1.032148968830555
4086.15,1.0319585567208924
4087.05,1.0411768709152016
4087.95,1.044086198971185
4088.85,1.0484606133274055
4089.75,1.0552816706029764
4090.65,1.0486418694641624
4091.55,1.0434608922718172
4092.45,1.032385392379215
4093.36,1.0076095982969158
4094.26,0.9860740592610412
4095.16,0.9624536572702624
4096.06,0.9337638509417511
4096.96,0.9029772366936986
4097.86,0.8613536812681889
4098.76,0.8233757439567487
4099.66,0.7838566240698251
4100.56,0.7396462507264847
4101.46,0.7101293162861153
4102.36,0.6929831797338261
4103.26,0.694423801617287
4104.16,0.7120388002018272
4105.06,0.7460373699652996
4105.96,0.7861633118226913
4106.86,0.823768179510956
4107.76,0.8595932606939972
4108.66,0.8891409413505172
4109.56,0.9094154476544548
4110.46,0.9275818175612435
4111.36,0.9492500854886262
4112.26,0.9586293290709376
4113.16,0.9770537450505309
4114.06,0.9970324017469695
4114.96,1.0111127574229746
4115.86,1.0227940344797024
4116.76,1.0266912603670704
4117.66,1.0313500788637153
4118.56,1.0342929320811596
4119.46,1.0307677439345493
4120.36,1.0237388014259141
4121.26,1.0248858674133543
4122.16,1.0289259748606374
4123.06,1.0309024170645624
4123.96,1.033704310625436
4124.86,1.038768811528639
4125.76,1.0425358621194818
4126.66,1.0425540883149989
4127.56,1.0371571800123622
4128.46,1.0308468475975205
4129.36,1.0282140841522822
4130.26,1.0234479734196043
4131.17,1.0148820076846528
4132.06,1.00493261445548
4132.97,1.009015125925784
4133.87,1.0042450238195235
4134.77,1.0127497832514387
4135.67,1.0219955980240194
4136.57,1.040088828754651
4137.47,1.0602180081144015
4138.37,1.0711113687914249
4139.27,1.0775317270812503
4140.17,1.0810941356995223
4141.07,1.073141177464913
4141.97,1.0581994692975436
4142.87,1.0463350650628391
4143.77,1.0318377820424516
4144.67,1.0215315423500844
4145.57,1.0222954006804095
4146.47,1.02504113729373
4147.37,1.0316764727702061
4148.27,1.0411096305562264
4149.17,1.0479840380962897
4150.07,1.0451111466107097
4150.97,1.0419114222647887
4151.87,1.0330820724427447
4152.77,1.0281813689197705
4153.67,1.0233656027957247
4154.57,1.015861357941486
4155.47,1.0119185617471014
4156.37,1.0119650061911405
4157.27,1.018434669325493
4158.17,1.0246256940579686
4159.07,1.0313461447009864
4159.97,1.040377694103232
4160.87,1.0490108335940465
4161.77,1.055041011354791
4162.67,1.0618176266226518
4163.57,1.0655023181505725
4164.47,1.06379807758233
4165.37,1.0646351308778312
4166.27,1.0611933910435316
4167.17,1.0547140644177238
4168.07,1.0454001310895877
4168.98,1.0344454785333372
4169.88,1.026585002966202
4170.78,1.0145228382902804
4171.68,0.994357477044561
4172.58,0.9806345717268805
4173.48,0.9663094916199304
4174.38,0.9586072796843873
4175.28,0.9588914880114235
4176.18,0.9579093562373244
4177.08,0.9647311525312333
4177.98,0.972844787776223
4178.88,0.9759938891071024
4179.78,0.9822605264385672
4180.68,0.987482934236285
4181.58,0.9945136466159709
4182.48,0.998706331726974
4183.38,1.0008201358074134
4184.28,1.003894146864123
4185.18,1.0014209516008798
4186.08,1.0043028655298007
4186.98,1.0046708421531694
4187.88,1.0045202948684102
4188.78,1.001259761014807
4189.68,1.0066436118211357
4190.58,1.0115091088095824
4191.48,1.0215816221700207
4192.38,1.026110129803662
4193.28,1.0305073994405745
4194.18,1.0272675126898636
4195.08,1.024337449575775
4195.98,1.0124818599643655
4196.88,0.9994575682598847
4197.78,0.9814811402609941
4198.68,0.9706162618494957
4199.58,0.964815931120607
4200.48,0.9578982177687057
4201.38,0.9617892328315687
4202.28,0.9656280243640782
4203.18,0.9715906802843127
4204.08,0.9767132863873558
4204.98,0.9867664210197253
4205.88,0.9986060299162445
4206.79,1.0097185869922827
4207.69,1.0222658566725733
4208.59,1.0254034648156474
4209.49,1.0343381151678501
4210.39,1.0343965640287125
4211.29,1.0380091802782556
4212.19,1.0402869463546325
4213.09,1.0313332968971476
4213.99,1.024909886350203
4214.89,1.0183205498075232
4215.79,1.0102731740016166
4216.69,1.0139142102286307
4217.59,1.014883517784748
4218.49,1.0232339721444372
4219.39,1.031394783647227
4220.29,1.042293556365028
4221.19,1.0428547074737096
4222.09,1.0335455013096986
4222.99,1.0210127755571472
4223.89,0.9976352251386524
4224.79,0.9679280109585006
4225.69,0.9415052104249826
4226.59,0.9148848069578064
4227.49,0.910337601086094
4228.39,0.9138964670814508
4229.29,0.9338858912554312
4230.19,0.9662902797165248
4231.09,0.993149792697251
4231.99,1.0091993275398996
4232.89,1.0136108315909362
4233.79,1.0185658001481661
4234.69,1.0120989452166689
4235.59,1.0077977534846765
4236.49,0.9941428573584139
4237.39,0.9947257845194476
4238.29,0.9974863273816276
4239.19,1.0045556417578756
4240.09,1.00639054535705
4240.99,1.0207343834366753
4241.89,1.0297964086028715
4242.79,1.0329088770705697
4243.69,1.0471412024912379
4244.59,1.045251894991422
4245.5,1.043802616260544
4246.4,1.0402788996900219
4247.3,1.0318432517909975
4248.2,1.022642222959755
4249.1,1.0072807735115907
4250.0,1.0060587022300733
4250.9,1.0025685877192834
4251.8,1.000133912584558
4252.7,1.0074804323766458
4253.6,1.0148314424889293
4254.5,1.0220039332112585
4255.4,1.028187128642561
4256.3,1.0283935980032581
4257.2,1.0306832147169163
4258.1,1.0310710092854745
4259.0,1.0215313535526014
4259.9,1.0164878101509056
4260.8,1.0131275324676796
4261.7,1.0173815419787482
4262.6,1.0288485739302657
4263.5,1.0423905299031468
4264.4,1.0565770970206807
4265.3,1.0717199375361375
4266.2,1.0783751571097133
4267.1,1.0776570506860037
4268.0,1.069962478305224
4268.9,1.05508850954902
4269.8,1.033587554458714
4270.7,1.0122811351806762
4271.6,0.9888059108526106
4272.5,0.9745516894861692
4273.4,0.96316268323675
4274.3,0.9661186187594804
4275.2,0.9784470473337147
4276.1,0.9954966167053458
4277.0,1.0145265067109313
4277.9,1.029868135255645
4278.8,1.047759420126291
4279.7,1.0513330482784984
4280.6,1.0503981835099716
4281.5,1.0515149577225367
4282.4,1.0469804145510904
4283.31,1.0434159657756126
4284.21,1.035169573666326
4285.11,1.0299558315704764
4286.01,1.0173227405601881
4286.91,1.0132652638533202
4287.81,0.9916461364186744
4288.71,0.9819695168994808
4289.61,0.9723696667682105
4290.51,0.9689100553351908
4291.41,0.9676999856584222
4292.31,0.9746223240887639
4293.21,0.9796614753142472
4294.11,0.9900744526782823
4295.01,0.9944301988788563
4295.91,0.9950907459990196
4296.81,0.9817586808443294
4297.71,0.9656196688841853
4298.61,0.9391056224844069
4299.51,0.9163050319802111
4300.41,0.89350244078265
4301.31,0.8807295235604499
4302.21,0.8702812228603065
4303.11,0.8674787352444276
4304.01,0.8728251612078861
4304.91,0.8718118776556553
4305.81,0.8680203511936282
4306.71,0.8701299481781941
4307.61,0.8689927307054417
4308.51,0.8676543307953991
4309.41,0.868654576410079
4310.31,0.8716618300705504
4311.21,0.8886594282783956
4312.11,0.9055872930756673
4313.01,0.9270566248794714
4313.91,0.9540648820740588
4314.81,0.9852163467176697
4315.71,1.0122924789395955
4316.61,1.0422971520124833
4317.51,1.067432937885519
4318.41,1.0921481920333103
4319.31,1.1069265914001118
4320.21,1.0984537549090063
4321.12,1.0889616522036136
4322.02,1.0721957564898557
4322.92,1.0413882626891606
4323.82,1.0175571804209744
4324.72,0.9863555816503949
4325.62,0.9648043556753301
4326.52,0.9587197131438673
4327.42,0.9586126982895384
4328.32,0.9731026472971737
4329.22,0.9881781860486142
4330.12,1.0037352265502857
4331.02,1.0124892581554004
4331.92,1.0134161024265695
4332.82,1.0146831397951066
4333.72,1.0007302613123996
4334.62,0.985968016848234
4335.52,0.9615518222567911
4336.42,0.9275142325173406
4337.32,0.8824404463572539
4338.22,0.8326475783295061
4339.12,0.7874460767238014
4340.02,0.7467263300008463
4340.92,0.7245394231050669
4341.82,0.7208522709806997
4342.72,0.7366718002380455
4343.62,0.7673085597507154
4344.52,0.8030817625691784
4345.42,0.8497788710238022
4346.32,0.887026240092466
4347.22,0.9266176128972465
4348.12,0.9484179377433005
4349.02,0.9659994695141647
