wave,flux
3700.85,-3.293069968441128e-07
3701.75,-3.2372240452025513e-07
3702.65,-3.137369389545687e-07
3703.55,-2.959847223662383e-07
3704.45,-2.772363925987176e-07
3705.35,-2.5993275499365134e-07
3706.25,-2.4710205977082104e-07
3707.15,-2.4091500192147707e-07
3708.05,-2.3943731418766203e-07
3708.96,-2.4577267708503303e-07
3709.86,-2.5539741100048885e-07
3710.76,-2.6914120877869145e-07
3711.66,-2.8669656845270384e-07
3712.56,-3.041091341565686e-07
3713.46,-3.206199424512486e-07
3714.36,-3.338852258546885e-07
3715.26,-3.37921339999218e-07
3716.16,-3.361299775674996e-07
3717.06,-3.249111015826543e-07
3717.96,-3.067559766568916e-07
3718.86,-2.833146377742809e-07
3719.76,-2.5820178974836785e-07
3720.66,-2.3667993679106528e-07
3721.56,-2.2372151276395032e-07
3722.46,-2.2270662462658897e-07
3723.36,-2.327839129160979e-07
3724.26,-2.490343576832703e-07
3725.16,-2.6776364223007266e-07
3726.06,-2.8323283368407803e-07
3726.96,-2.9044833129115915e-07
3727.86,-2.9524977283437327e-07
3728.76,-2.9387049894463627e-07
3729.66,-2.914983733900919e-07
3730.56,-2.854613865890131e-07
3731.46,-2.7446953846962287e-07
3732.36,-2.5758029672588645e-07
3733.26,-2.3751561568679663e-07
3734.16,-2.1697769002383777e-07
3735.06,-2.0116858565361998e-07
3735.96,-1.920111744908094e-07
3736.86,-1.9391265635660073e-07
3737.76,-2.0581425348750326e-07
3738.66,-2.265257281337342e-07
3739.56,-2.473077969586491e-07
3740.46,-2.676620772173459e-07
3741.36,-2.8130214728947226e-07
3742.26,-2.839471722032502e-07
3743.16,-2.789162982307514e-07
3744.06,-2.662010102250179e-07
3744.96,-2.5104724437445354e-07
3745.86,-2.3446550612381672e-07
3746.76,-2.216817176351149e-07
3747.67,-2.0983571948430913e-07
3748.57,-2.0350044771024506e-07
3749.47,-2.0174876133925585e-07
3750.37,-2.0969286737111972e-07
3751.27,-2.270819157234442e-07
3752.17,-2.5038817764723695e-07
3753.07,-2.752913292272603e-07
3753.97,-3.016677354381735e-07
3754.87,-3.1802713281970107e-07
3755.77,-3.2407634301471227e-07
3756.67,-3.2017136791603016e-07
3757.57,-3.0959430363590707e-07
3758.47,-2.9410603907578145e-07
3759.37,-2.830088219454642e-07
3760.27,-2.777457091852457e-07
3761.17,-2.7911518098249635e-07
3762.07,-2.834256743039597e-07
3762.97,-2.882800414754098e-07
3763.87,-2.932425071073617e-07
3764.77,-2.9590367542680983e-07
3765.67,-2.9494273054148087e-07
3766.57,-2.9569314983165465e-07
3767.47,-2.9654268459855666e-07
3768.37,-2.990841734580219e-07
3769.27,-3.0084167951581706e-07
3770.17,-3.0676335098891113e-07
3771.07,-3.145386291007143e-07
3771.97,-3.242967188792972e-07
3772.87,-3.3512216892930735e-07
3773.77,-3.454181924844019e-07
3774.67,-3.5435097327562206e-07
3775.57,-3.6018824950793855e-07
3776.47,-3.6440173802921995e-07
3777.37,-3.693975460518116e-07
3778.27,-3.763856213648725e-07
3779.17,-3.8193283666317026e-07
3780.07,-3.8882659100581445e-07
3780.97,-3.962949624596205e-07
3781.87,-4.016965629706596e-07
3782.77,-4.041835956426968e-07
3783.67,-4.0489924905216395e-07
3784.57,-3.9678481800964907e-07
3785.47,-3.8718285116586146e-07
3786.38,-3.725585707419012e-07
3787.28,-3.541060584329789e-07
3788.18,-3.408774628231512e-07
3789.08,-3.2887340758813153e-07
3789.98,-3.22968793470027e-07
3790.88,-3.2158036827016996e-07
3791.78,-3.2059783859223145e-07
3792.68,-3.2077939553609887e-07
3793.58,-3.162256972153564e-07
3794.48,-3.0819084549018067e-07
3795.38,-2.9999783635113086e-07
3796.28,-2.882533650300351e-07
3797.18,-2.814353101759058e-07
3798.08,-2.761062035406672e-07
3798.98,-2.766580985191594e-07
3799.88,-2.8490323879344547e-07
3800.78,-3.013017012915963e-07
3801.68,-3.2320544859450717e-07
3802.58,-3.4277401595029574e-07
3803.48,-3.6216381449524547e-07
3804.38,-3.771487619167031e-07
3805.28,-3.840279739101316e-07
3806.18,-3.8408866191734135e-07
3807.08,-3.845345466643004e-07
3807.98,-3.8263341481913806e-07
3808.88,-3.8507402700251224e-07
3809.78,-3.871653239345507e-07
3810.68,-3.882929183025541e-07
3811.58,-3.87387239947231e-07
3812.48,-3.771308272326301e-07
3813.38,-3.629316371371918e-07
3814.28,-3.446786789804054e-07
3815.18,-3.304727895403833e-07
3816.08,-3.178843421454847e-07
3816.98,-3.104328492553137e-07
3817.88,-3.075206595932707e-07
3818.78,-3.036295406449635e-07
3819.68,-3.0031997569925084e-07
3820.58,-2.934558116052602e-07
3821.48,-2.9061689825412875e-07
3822.38,-2.846257608757711e-07
3823.28,-2.80844290301042e-07
3824.18,-2.742557344863807e-07
3825.09,-2.6662587126475307e-07
3825.99,-2.5728241392686776e-07
3826.89,-2.4817391191027156e-07
3827.79,-2.4453404583860067e-07
3828.69,-2.4357424807497534e-07
3829.59,-2.41970367010767e-07
3830.49,-2.415875303279638e-07
3831.39,-2.3835941357266657e-07
3832.29,-2.3362675413241458e-07
3833.19,-2.275902862466726e-07
3834.09,-2.221947620988957e-07
3834.99,-2.1936739778020053e-07
3835.89,-2.19390633233171e-07
3836.79,-2.2068886050823453e-07
3837.69,-2.2331668756068985e-07
3838.59,-2.2543849319139757e-07
3839.49,-2.3152125041878726e-07
3840.39,-2.4139441078149687e-07
3841.29,-2.56662849041478e-07
3842.19,-2.7720767163752893e-07
3843.09,-3.0000486006874613e-07
3843.99,-3.2131867892316294e-07
3844.89,-3.3944358100256746e-07
3845.79,-3.5406092455611763e-07
3846.69,-3.624903483856937e-07
3847.59,-3.6630116093407026e-07
3848.49,-3.6578211459417527e-07
3849.39,-3.660758554018914e-07
3850.29,-3.665737265355841e-07
3851.19,-3.618343063228625e-07
3852.09,-3.636215886529018e-07
3852.99,-3.6353754031034367e-07
3853.89,-3.616779564723218e-07
3854.79,-3.5738727649025094e-07
3855.69,-3.496989434105334e-07
3856.59,-3.3802551306498664e-07
3857.49,-3.264442564430485e-07
3858.39,-3.1675810895816357e-07
3859.29,-3.0978849230977663e-07
3860.19,-3.072726977851988e-07
3861.09,-3.1168665346842414e-07
3861.99,-3.2514536115808703e-07
3862.9,-3.430779865240057e-07
3863.8,-3.5736910740031536e-07
3864.7,-3.704611004585153e-07
3865.6,-3.762356307177656e-07
3866.5,-3.78483871761097e-07
3867.4,-3.7642900053689137e-07
3868.3,-3.708210001015963e-07
3869.2,-3.6425909551642027e-07
3870.1,-3.537066612726416e-07
3871.0,-3.456526243374395e-07
3871.9,-3.3642939367591924e-07
3872.8,-3.327996903363584e-07
3873.7,-3.3631769892863504e-07
3874.6,-3.426774396603922e-07
3875.5,-3.526052877007869e-07
3876.4,-3.553425181311917e-07
3877.3,-3.5607965114374424e-07
3878.2,-3.529772113665321e-07
3879.1,-3.473833530167345e-07
3880.0,-3.4464747783232995e-07
3880.9,-3.4163597667601937e-07
3881.8,-3.428938815357754e-07
3882.7,-3.4473571586423976e-07
3883.6,-3.454423375349367e-07
3884.5,-3.4224539101940557e-07
3885.4,-3.363618208060141e-07
3886.3,-3.267812892604328e-07
3887.2,-3.196843807500171e-07
3888.1,-3.1479436875448495e-07
3889.0,-3.150321271605831e-07
3889.9,-3.239085168338824e-07
3890.8,-3.380041523418817e-07
3891.7,-3.575456436094885e-07
3892.6,-3.74278153280783e-07
3893.5,-3.8924867965216e-07
3894.4,-3.995026713420654e-07
3895.3,-4.072577692924241e-07
3896.2,-4.097626895485972e-07
3897.1,-4.1274275200459606e-07
3898.0,-4.163804905406364e-07
3898.9,-4.200988464255073e-07
3899.8,-4.206713652549503e-07
3900.7,-4.2222483506364695e-07
3901.6,-4.212376056319152e-07
3902.51,-4.1868852870906304e-07
3903.41,-4.160180318372286e-07
3904.31,-4.10824108150253e-07
3905.21,-4.071875113763861e-07
3906.11,-4.071611515713251e-07
3907.01,-4.134299705801462e-07
3907.91,-4.2436740003419697e-07
3908.81,-4.4017358121997697e-07
3909.71,-4.538129631579904e-07
3910.61,-4.691761946148797e-07
3911.51,-4.793837176803665e-07
3912.41,-4.88545981115573e-07
3913.31,-4.907167155801453e-07
3914.21,-4.871642172002162e-07
3915.11,-4.866735152356851e-07
3916.01,-4.789948668936917e-07
3916.91,-4.6977674846034935e-07
3917.81,-4.5953349695555985e-07
3918.71,-4.467000964925184e-07
3919.61,-4.3361213940820287e-07
3920.51,-4.190017637009722e-07
3921.41,-4.100268916259373e-07
3922.31,-4.0091798531038486e-07
3923.21,-3.947038734677016e-07
3924.11,-3.8944793987753966e-07
3925.01,-3.82454501378236e-07
3925.91,-3.691720666687241e-07
3926.81,-3.5190412497043294e-07
3927.71,-3.242141039904154e-07
3928.61,-2.9451356260016457e-07
3929.51,-2.6122270534772706e-07
3930.41,-2.274249280251183e-07
3931.31,-1.983657303561778e-07
3932.21,-1.7159072569947698e-07
3933.11,-1.5138279626113541e-07
3934.01,-1.4084646968335796e-07
3934.91,-1.4049910389656256e-07
3935.81,-1.4906918270999513e-07
3936.71,-1.676245763252789e-07
3937.61,-1.9438661119591647e-07
3938.51,-2.2643818188818223e-07
3939.42,-2.6025923260132706e-07
3940.32,-2.8976979446448674e-07
3941.22,-3.145932988965447e-07
3942.12,-3.362200147341291e-07
3943.02,-3.5218071399527034e-07
3943.92,-3.6589577613293064e-07
3944.82,-3.8068277788135076e-07
3945.72,-3.976439049453131e-07
3946.62,-4.1444484038171056e-07
3947.52,-4.325220504967397e-07
3948.42,-4.4979145984894995e-07
3949.32,-4.6315207525698304e-07
3950.22,-4.777075672481774e-07
3951.12,-4.871736007807749e-07
3952.02,-4.923867333073951e-07
3952.92,-4.983123138961873e-07
3953.82,-5.025374229656524e-07
3954.72,-5.027935012963378e-07
3955.62,-5.009797726841861e-07
3956.52,-4.982226548774777e-07
3957.42,-4.949885099796059e-07
3958.32,-4.847299792598802e-07
3959.22,-4.731117969167999e-07
3960.12,-4.5698583751697386e-07
3961.02,-4.327560286440441e-07
3961.92,-4.066946774819252e-07
3962.82,-3.731286669436551e-07
3963.72,-3.4143913137669296e-07
3964.62,-3.094312555840318e-07
3965.52,-2.7748392987686273e-07
3966.42,-2.457995726993667e-07
3967.32,-2.1607327625879604e-07
3968.22,-1.9346803326152294e-07
3969.12,-1.7963243380151148e-07
3970.02,-1.7717066780343233e-07
3970.92,-1.8970411564806923e-07
3971.82,-2.1234205553270683e-07
3972.72,-2.45173198481804e-07
3973.62,-2.81460753865725e-07
3974.52,-3.2157773733155537e-07
3975.42,-3.6111805742692905e-07
3976.32,-3.9850531867917616e-07
3977.22,-4.3434265718330684e-07
3978.13,-4.680871707280393e-07
3979.03,-4.983606117935246e-07
3979.93,-5.224927699067236e-07
3980.83,-5.399358904160057e-07
3981.73,-5.500586926513201e-07
3982.63,-5.603270067157521e-07
3983.53,-5.640100278232748e-07
3984.43,-5.694471325998922e-07
3985.33,-5.753846049100393e-07
3986.23,-5.835742861812653e-07
3987.13,-5.920684874529017e-07
3988.03,-5.993995772997036e-07
3988.93,-6.109142850642057e-07
3989.83,-6.185711338394204e-07
3990.73,-6.237072183067969e-07
3991.63,-6.290190935654174e-07
3992.53,-6.362724145666571e-07
3993.43,-6.36473964801094e-07
3994.33,-6.371690208967415e-07
3995.23,-6.332096705200107e-07
3996.13,-6.264762623936404e-07
3997.03,-6.22162253368279e-07
3997.93,-6.237912076450684e-07
3998.83,-6.244712140034649e-07
3999.73,-6.348100399933929e-07
4000.63,-6.443434005894483e-07
4001.53,-6.582207148290211e-07
4002.43,-6.613977681062807e-07
4003.33,-6.65289924273286e-07
4004.23,-6.588481004239486e-07
4005.13,-6.478383366527747e-07
4006.03,-6.350449195591186e-07
4006.93,-6.331443092195424e-07
4007.83,-6.356806667103027e-07
4008.73,-6.458173748430891e-07
4009.63,-6.573645877977665e-07
4010.53,-6.722203283103739e-07
4011.43,-6.80204823318679e-07
4012.33,-6.902742958374547e-07
4013.23,-6.955125137179674e-07
4014.13,-7.005936842108272e-07
4015.03,-7.026392756454542e-07
4015.93,-7.039686826008391e-07
4016.84,-7.03782756938327e-07
4017.74,-7.043505253540947e-07
4018.64,-7.089593439850512e-07
4019.54,-7.12599219288097e-07
4020.44,-7.119409279362817e-07
4021.34,-7.138414817412116e-07
4022.24,-7.127539624716584e-07
4023.14,-7.17568463653785e-07
4024.04,-7.1570988758222e-07
4024.94,-7.205381697125404e-07
4025.84,-7.206956876925103e-07
4026.74,-7.2734650223983e-07
4027.64,-7.29362555365267e-07
4028.54,-7.267697918228279e-07
4029.44,-7.203281135313783e-07
4030.34,-7.023305399139614e-07
4031.24,-6.814317925335468e-07
4032.14,-6.624302054769013e-07
4033.04,-6.51752809337428e-07
4033.94,-6.486487432839892e-07
4034.84,-6.54885511579524e-07
4035.74,-6.78900735944315e-07
4036.64,-6.983536960969041e-07
4037.54,-7.236589003696143e-07
4038.44,-7.424707545769473e-07
4039.34,-7.541525143222104e-07
4040.24,-7.593347823719861e-07
4041.14,-7.554054859586356e-07
4042.04,-7.432969550661412e-07
4042.94,-7.222752872286382e-07
4043.84,-7.001440316028116e-07
4044.74,-6.774281086658887e-07
4045.64,-6.545667779437564e-07
4046.54,-6.464515211524e-07
4047.44,-6.513674720330678e-07
4048.34,-6.692302277756199e-07
4049.24,-6.96717008590244e-07
4050.14,-7.220950976245926e-07
4051.04,-7.420661810066971e-07
4051.94,-7.517574034948864e-07
4052.84,-7.539832009839265e-07
4053.74,-7.490727731217528e-07
4054.65,-7.41120821443575e-07
4055.55,-7.275898635294592e-07
4056.45,-7.213263294696548e-07
4057.35,-7.14014710544454e-07
4058.25,-7.1377960484588e-07
4059.15,-7.13318210071624e-07
4060.05,-7.141153602769026e-07
4060.95,-7.147333062863054e-07
4061.85,-7.074085674441038e-07
4062.75,-6.998839552259469e-07
4063.65,-6.84738562996823e-07
4064.55,-6.75489065002045e-07
4065.45,-6.735182849844709e-07
4066.35,-6.836673837968878e-07
4067.25,-6.961144903599206e-07
4068.15,-7.09866553803105e-07
4069.05,-7.267973693362156e-07
4069.95,-7.346869293387743e-07
4070.85,-7.352378649287801e-07
4071.75,-7.368416312071214e-07
4072.65,-7.295608995680459e-07
4073.55,-7.272608464936288e-07
4074.45,-7.251378473870429e-07
4075.35,-7.203415582593029e-07
4076.25,-7.1290800944479e-07
4077.15,-7.03380521815354e-07
4078.05,-6.995979197197835e-07
4078.95,-7.042622272901592e-07
4079.85,-7.156468053705909e-07
4080.75,-7.355837329468382e-07
4081.65,-7.561263154408509e-07
4082.55,-7.69473795177357e-07
4083.45,-7.824817127478767e-07
4084.35,-7.876056092374464e-07
4085.25,-7.965176513532151e-07
4086.15,-7.996628052029425e-07
4087.05,-8.13985171626662e-07
4087.95,-8.309630357078896e-07
4088.85,-8.447963079301304e-07
4089.75,-8.567866804632334e-07
4090.65,-8.619480660572756e-07
4091.55,-8.586556407461992e-07
4092.45,-8.582263934160558e-07
4093.36,-8.483297186438385e-07
4094.26,-8.334853187474339e-07
4095.16,-8.18129871339036e-07
4096.06,-7.963928017674544e-07
4096.96,-7.824664342034364e-07
4097.86,-7.600109833392096e-07
4098.76,-7.398734270628782e-07
4099.66,-7.143567897189157e-07
4100.56,-6.892036607460972e-07
4101.46,-6.712346742385035e-07
4102.36,-6.608112762007743e-07
4103.26,-6.659935381786779e-07
4104.16,-6.793732329365914e-07
4105.06,-7.06588782130377e-07
4105.96,-7.37807012555543e-07
4106.86,-7.61271212878706e-07
4107.76,-7.840238908177536e-07
4108.66,-7.967174546845404e-07
4109.56,-8.05438956915301e-07
4110.46,-8.058271544613682e-07
4111.36,-8.105186026616462e-07
4112.26,-8.183192766867445e-07
4113.16,-8.30210409738943e-07
4114.06,-8.370828902239659e-07
4114.96,-8.496574367385164e-07
4115.86,-8.554992689662409e-07
4116.76,-8.564828638810976e-07
4117.66,-8.561507722488936e-07
4118.56,-8.539607344260131e-07
4119.46,-8.430102148309975e-07
4120.36,-8.39963397674792e-07
4121.26,-8.354369516644822e-07
4122.16,-8.384578385582346e-07
4123.06,-8.410920853545079e-07
4123.96,-8.468324359945215e-07
4124.86,-8.521427571929419e-07
4125.76,-8.528275638137081e-07
4126.66,-8.546492503417743e-07
4127.56,-8.517753497222707e-07
4128.46,-8.440889426056745e-07
4129.36,-8.355389182641969e-07
4130.26,-8.227952883534664e-07
4131.17,-8.06350643455848e-07
4132.06,-8.007917865359455e-07
4132.97,-7.93246670075142e-07
4133.87,-7.946531240392949e-07
4134.77,-8.030078700479436e-07
4135.67,-8.200885340639103e-07
4136.57,-8.384138835666266e-07
4137.47,-8.563333156583046e-07
4138.37,-8.724389433306599e-07
4139.27,-8.80940687709833e-07
4140.17,-8.847802218247566e-07
4141.07,-8.746128005041373e-07
4141.97,-8.55533885726744e-07
4142.87,-8.369107055926857e-07
4143.77,-8.165182999561804e-07
4144.67,-8.100079399876378e-07
4145.57,-8.052050090073707e-07
4146.47,-8.215733058603763e-07
4147.37,-8.337603233070697e-07
4148.27,-8.464357325895304e-07
4149.17,-8.538897184214126e-07
4150.07,-8.590127746137641e-07
4150.97,-8.581659371790978e-07
4151.87,-8.57213434016624e-07
4152.77,-8.48671262259496e-07
4153.67,-8.416458477269654e-07
4154.57,-8.453415859507714e-07
4155.47,-8.430255263772988e-07
4156.37,-8.432784400056826e-07
4157.27,-8.557567307009996e-07
4158.17,-8.630489979427394e-07
4159.07,-8.800300233344355e-07
4159.97,-8.924963721492113e-07
4160.87,-9.091933341548109e-07
4161.77,-9.185597107625032e-07
4162.67,-9.275849931021357e-07
4163.57,-9.343420005021615e-07
4164.47,-9.301185706053232e-07
4165.37,-9.302142813468038e-07
4166.27,-9.239867796118799e-07
4167.17,-9.161202679897644e-07
4168.07,-9.054560218739964e-07
4168.98,-9.001785003866228e-07
4169.88,-8.884134697878348e-07
4170.78,-8.767748218531298e-07
4171.68,-8.609454630714898e-07
4172.58,-8.485539315854928e-07
4173.48,-8.373963839007182e-07
4174.38,-8.253633413069335e-07
4175.28,-8.280643458434806e-07
4176.18,-8.323079972833049e-07
4177.08,-8.412308396930457e-07
4177.98,-8.55541585971602e-07
4178.88,-8.630787253791273e-07
4179.78,-8.751084721925836e-07
4180.68,-8.803945342397829e-07
4181.58,-8.881495911816715e-07
4182.48,-8.936776214909393e-07
4183.38,-8.958991751497917e-07
4184.28,-9.00537705482908e-07
4185.18,-8.963836594505528e-07
4186.08,-9.007099019300294e-07
4186.98,-8.982113025208492e-07
4187.88,-8.940345723540434e-07
4188.78,-8.90655215686512e-07
4189.68,-8.9655838869304e-07
4190.58,-9.062622936889378e-07
4191.48,-9.153400659329996e-07
4192.38,-9.297551215291782e-07
4193.28,-9.341597019078491e-07
4194.18,-9.335175016646557e-07
4195.08,-9.308034564796472e-07
4195.98,-9.178321310206767e-07
4196.88,-9.042255741704342e-07
4197.78,-8.791592715169237e-07
4198.68,-8.690223324941303e-07
4199.58,-8.591867796608162e-07
4200.48,-8.528362541962165e-07
4201.38,-8.550937937761623e-07
4202.28,-8.606017182384143e-07
4203.18,-8.704743033603614e-07
4204.08,-8.845630252325253e-07
4204.98,-9.0365739116316e-07
4205.88,-9.252331336232409e-07
4206.79,-9.444963276050835e-07
4207.69,-9.60911919785698e-07
4208.59,-9.724836392340943e-07
4209.49,-9.86307501637766e-07
4210.39,-9.919286113725256e-07
4211.29,-9.899837311137601e-07
4212.19,-9.9344526688977e-07
4213.09,-9.80654948421154e-07
4213.99,-9.75047243435616e-07
4214.89,-9.661744876960598e-07
4215.79,-9.613160211913522e-07
4216.69,-9.574545946770552e-07
4217.59,-9.63029909225219e-07
4218.49,-9.776846194683584e-07
4219.39,-9.931655424430785e-07
4220.29,-1.006031883603331e-06
4221.19,-1.0035537013785366e-06
4222.09,-9.92180640322095e-07
4222.99,-9.695541143945774e-07
4223.89,-9.34835652303839e-07
4224.79,-8.877507743194469e-07
4225.69,-8.407125964046109e-07
4226.59,-8.08022269598752e-07
4227.49,-7.920751431454286e-07
4228.39,-8.040760262398659e-07
4229.29,-8.333238675090671e-07
4230.19,-8.73070643379629e-07
4231.09,-9.189989127046097e-07
4231.99,-9.552266373436285e-07
4232.89,-9.694111173247196e-07
4233.79,-9.725773700702636e-07
4234.69,-9.748282009549998e-07
4235.59,-9.641535464845982e-07
4236.49,-9.598653161497047e-07
4237.39,-9.533653201220649e-07
4238.29,-9.553656702385336e-07
4239.19,-9.66828173182781e-07
4240.09,-9.801205228490494e-07
4240.99,-9.904210905988361e-07
4241.89,-1.008786350848354e-06
4242.79,-1.0308731687561948e-06
4243.69,-1.0407510350490815e-06
4244.59,-1.0531681522843498e-06
4245.5,-1.0522800209704012e-06
4246.4,-1.047444020939435e-06
4247.3,-1.0282088255015141e-06
4248.2,-1.0135662533167116e-06
4249.1,-9.94763028717154e-07
4250.0,-9.802121021164463e-07
4250.9,-9.698712758366694e-07
4251.8,-9.648210109026576e-07
4252.7,-9.678635848350941e-07
4253.6,-9.719794282866746e-07
4254.5,-9.817414840211642e-07
4255.4,-9.905178502609705e-07
4256.3,-9.92950483893166e-07
4257.2,-9.994983612177588e-07
4258.1,-9.999184689796184e-07
4259.0,-9.977701072882551e-07
4259.9,-9.908303910743302e-07
4260.8,-9.85188431583451e-07
4261.7,-9.906830633301516e-07
4262.6,-1.0030954470654586e-06
4263.5,-1.0324327462128552e-06
4264.4,-1.0593778224229907e-06
4265.3,-1.0792796787156227e-06
4266.2,-1.0922310581679926e-06
4267.1,-1.095545141019614e-06
4268.0,-1.0782301681239168e-06
4268.9,-1.0584440953324027e-06
4269.8,-1.018520271323003e-06
4270.7,-9.843829637111818e-07
4271.6,-9.461388166329312e-07
4272.5,-9.165643702883921e-07
4273.4,-9.040508736423383e-07
4274.3,-9.083607041522253e-07
4275.2,-9.256464385730739e-07
4276.1,-9.530200049855369e-07
4277.0,-9.871486939068112e-07
4277.9,-1.0205067156372658e-06
4278.8,-1.0417164041462706e-06
4279.7,-1.0593484736380946e-06
