wave,flux
3700.85,-7.171065080155779e-05
3701.75,-7.119304436291705e-05
3702.65,-6.904618949466928e-05
3703.55,-6.619689674635653e-05
3704.45,-6.293831147805453e-05
3705.35,-6.026742641909534e-05
3706.25,-5.8316223398543054e-05
3707.15,-5.7610488952229256e-05
3708.05,-5.829595535364973e-05
3708.96,-5.9536460409485636e-05
3709.86,-6.129868328508497e-05
3710.76,-6.343797957251654e-05
3711.66,-6.650536453837365e-05
3712.56,-7.021515807792298e-05
3713.46,-7.313829446749389e-05
3714.36,-7.610683963384919e-05
3715.26,-7.843856105389629e-05
3716.16,-7.908104532033143e-05
3717.06,-7.863778920929488e-05
3717.96,-7.616461768335409e-05
3718.86,-7.204854098540313e-05
3719.76,-6.776663793505559e-05
3720.66,-6.327642411162414e-05
3721.56,-6.0063419838615646e-05
3722.46,-5.9558267474819225e-05
3723.36,-6.151862034532643e-05
3724.26,-6.515966977061831e-05
3725.16,-6.963298419221475e-05
3726.06,-7.341539646880996e-05
3726.96,-7.56204665613547e-05
3727.86,-7.71205957935335e-05
3728.76,-7.751947683337297e-05
3729.66,-7.7428972473067e-05
3730.56,-7.61609663256959e-05
3731.46,-7.375038196444142e-05
3732.36,-7.002473679841574e-05
3733.26,-6.534312207094184e-05
3734.16,-6.067971638008789e-05
3735.06,-5.752172197042351e-05
3735.96,-5.6195719766068605e-05
3736.86,-5.744143393543531e-05
3737.76,-6.134213115306075e-05
3738.66,-6.678404127289678e-05
3739.56,-7.276132573265462e-05
3740.46,-7.801589458980369e-05
3741.36,-8.208450852294678e-05
3742.26,-8.298188775397623e-05
3743.16,-8.250307518026081e-05
3744.06,-8.005537864476788e-05
3744.96,-7.670492812432711e-05
3745.86,-7.310481456648162e-05
3746.76,-6.972802151015989e-05
3747.67,-6.617857421460009e-05
3748.57,-6.363004520705073e-05
3749.47,-6.233842976479947e-05
3750.37,-6.314954471432538e-05
3751.27,-6.671310362144054e-05
3752.17,-7.253550966064664e-05
3753.07,-7.984538260532778e-05
3753.97,-8.68961554684668e-05
3754.87,-9.258055213045195e-05
3755.77,-9.586670667860437e-05
3756.67,-9.595192407368376e-05
3757.57,-9.465701177151073e-05
3758.47,-9.229765630055598e-05
3759.37,-8.93231972309877e-05
3760.27,-8.896563105736824e-05
3761.17,-8.97687068672419e-05
3762.07,-9.142601376544477e-05
3762.97,-9.377786381050482e-05
3763.87,-9.475818329382158e-05
3764.77,-9.578219209593412e-05
3765.67,-9.66031951878963e-05
3766.57,-9.586679120460158e-05
3767.47,-9.467725680116931e-05
3768.37,-9.274810462042223e-05
3769.27,-9.188404794043026e-05
3770.17,-9.193804380451003e-05
3771.07,-9.262408516019317e-05
3771.97,-9.52050842840209e-05
3772.87,-9.881673061563005e-05
3773.77,-0.00010301107934154078
3774.67,-0.00010740214043170545
3775.57,-0.00011081049586955307
3776.47,-0.00011447677117010097
3777.37,-0.00011764537963578069
3778.27,-0.00012028685330420593
3779.17,-0.0001237204661345966
3780.07,-0.00012784144608223743
3780.97,-0.00013052591943229065
3781.87,-0.0001334762968425102
3782.77,-0.00013487430463605593
3783.67,-0.0001355758757923721
3784.57,-0.000134902803775103
3785.47,-0.00013232819161040704
3786.38,-0.0001287061045900537
3787.28,-0.00012493568541456832
3788.18,-0.00012160407991784512
3789.08,-0.00011879154674237352
3789.98,-0.00011698849124379175
3790.88,-0.00011651561664994024
3791.78,-0.0001157288303487281
3792.68,-0.00011445533855474033
3793.58,-0.00011263593626102321
3794.48,-0.0001100594382157644
3795.38,-0.00010535435323091854
3796.28,-0.00010173983396277457
3797.18,-9.841965069907746e-05
3798.08,-9.61688341727346e-05
3798.98,-9.662555369120812e-05
3799.88,-0.0001003681478976961
3800.78,-0.00010655406539777863
3801.68,-0.00011466648922081714
3802.58,-0.00012383130089749832
3803.48,-0.0001314662065166284
3804.38,-0.00013816047945624046
3805.28,-0.00014152332103779832
3806.18,-0.00014434821672431854
3807.08,-0.00014582948954411804
3807.98,-0.00014721081475687476
3808.88,-0.00014934203001048266
3809.78,-0.00015080654546015986
3810.68,-0.00015376594161017903
3811.58,-0.0001541939707380893
3812.48,-0.00015206017373088428
3813.38,-0.00014879324149524222
3814.28,-0.00014372884907712833
3815.18,-0.00013990041229113912
3816.08,-0.00013782620750491998
3816.98,-0.00013716344788290528
3817.88,-0.00013839513918629758
3818.78,-0.00013825464851051567
3819.68,-0.0001381474878065406
3820.58,-0.0001368202007993581
3821.48,-0.0001361331602182806
3822.38,-0.000134907086362521
3823.28,-0.00013366991325977038
3824.18,-0.00013179211112538693
3825.09,-0.0001296327958783935
3825.99,-0.00012598990766037813
3826.89,-0.00012310963673693587
3827.79,-0.00012099896455108803
3828.69,-0.00011957828559686747
3829.59,-0.00011864421207076633
3830.49,-0.00011711897762132633
3831.39,-0.00011503408242832615
3832.29,-0.00011130047797675379
3833.19,-0.00010655592434131577
3834.09,-0.00010272918286005339
3834.99,-9.983569037646069e-05
3835.89,-9.910348290368724e-05
3836.79,-9.979807378495403e-05
3837.69,-0.00010205276642868704
3838.59,-0.00010551917101460816
3839.49,-0.00011046369883588489
3840.39,-0.00011801391911022609
3841.29,-0.00012641103764768585
3842.19,-0.00013579381729011874
3843.09,-0.0001459069158301651
3843.99,-0.00015575413135682944
3844.89,-0.00016350156674948958
3845.79,-0.0001705937035513599
3846.69,-0.00017634262867138759
3847.59,-0.00017980562560215244
3848.49,-0.00018181065133487636
3849.39,-0.0001834598244830408
3850.29,-0.00018501054032844894
3851.19,-0.0001868915367933185
3852.09,-0.00018882184689179306
3852.99,-0.00019025303441137995
3853.89,-0.00019133825126403244
3854.79,-0.00019191588260690813
3855.69,-0.00018991420344908878
3856.59,-0.00018689911590144784
3857.49,-0.00018332892234652147
3858.39,-0.00018096707328389892
3859.29,-0.00017925624994465496
3860.19,-0.00017942583693503005
3861.09,-0.00018300018824951667
3861.99,-0.00018904532889993134
3862.9,-0.0001970665808895402
3863.8,-0.00020212498396463476
3864.7,-0.00020761651899513472
3865.6,-0.00021206372088411785
3866.5,-0.00021233200700246612
3867.4,-0.00021299299013389082
3868.3,-0.00021219024808528733
3869.2,-0.0002109505537066861
3870.1,-0.00020765799962199025
3871.0,-0.00020498904006693576
3871.9,-0.00020222397745294027
3872.8,-0.00019968711446997133
3873.7,-0.00020013997728152752
3874.6,-0.00020161131147205215
3875.5,-0.00020579014511578706
3876.4,-0.0002079500422124789
3877.3,-0.00020826663847749478
3878.2,-0.0002074605708302043
3879.1,-0.0002062691871229621
3880.0,-0.00020489205112949718
3880.9,-0.00020502381423383265
3881.8,-0.00020513535084781508
3882.7,-0.00020470231709513787
3883.6,-0.00020293704707931116
3884.5,-0.00019951504050534026
3885.4,-0.00019445722516119257
3886.3,-0.00018690277462390129
3887.2,-0.0001803345962708383
3888.1,-0.00017512071950626115
3889.0,-0.00017265271631618633
3889.9,-0.00017474210369733265
3890.8,-0.0001820109489123662
3891.7,-0.0001925852261100783
3892.6,-0.00020294136876536486
3893.5,-0.0002139123078959115
3894.4,-0.0002233105890204605
3895.3,-0.00023005112105079317
3896.2,-0.00023644151558249938
3897.1,-0.00024226307294492752
3898.0,-0.0002474076270309476
3898.9,-0.0002508170796984554
3899.8,-0.00025540979370989464
3900.7,-0.00025958742162582473
3901.6,-0.00026178702769973154
3902.51,-0.0002630336430572076
3903.41,-0.00026310145142702994
3904.31,-0.0002623479095839244
3905.21,-0.00026257409160305626
3906.11,-0.0002645744694148738
3907.01,-0.0002697552887543134
3907.91,-0.0002751784289117523
3908.81,-0.0002844402689810702
3909.71,-0.00029502940024939454
3910.61,-0.0003034589530240341
3911.51,-0.00030980640482933724
3912.41,-0.00031511715822407616
3913.31,-0.00031800854243846334
3914.21,-0.0003182795316443224
3915.11,-0.0003173728192781735
3916.01,-0.000315836829874781
3916.91,-0.0003123948629043143
3917.81,-0.00030961019989814826
3918.71,-0.0003051367587443748
3919.61,-0.0003003353733660983
3920.51,-0.0002983272013853162
3921.41,-0.000294279222914115
3922.31,-0.00029093402600955087
3923.21,-0.00029111009470072065
3924.11,-0.0002889100890254973
3925.01,-0.0002854993155546184
3925.91,-0.00027903419246913427
3926.81,-0.0002677989857978722
3927.71,-0.0002512561759400351
3928.61,-0.00023237098206208226
3929.51,-0.00020863678605212885
3930.41,-0.0001859074120906014
3931.31,-0.000162171109439857
3932.21,-0.00014164459185610285
3933.11,-0.00012527061353823137
3934.01,-0.00011636368312242835
3934.91,-0.00011524065037715209
3935.81,-0.0001238175335139644
3936.71,-0.00013941909753248754
3937.61,-0.0001626664543330732
3938.51,-0.00018849469625383208
3939.42,-0.00021716094708266033
3940.32,-0.000241593065896578
3941.22,-0.0002627390333576103
3942.12,-0.0002784008911139659
3943.02,-0.00029315743622691424
3943.92,-0.0003048527490560158
3944.82,-0.00031518208489509167
3945.72,-0.0003277668006813096
3946.62,-0.00033936902936578125
3947.52,-0.0003509049498192124
3948.42,-0.000361196168680621
3949.32,-0.0003708167960880272
3950.22,-0.00037868848019545286
3951.12,-0.0003843245019748628
3952.02,-0.0003906007437248354
3952.92,-0.00039635432575539783
3953.82,-0.0003992895776603542
3954.72,-0.0004022480763657392
3955.62,-0.00040305940239118053
3956.52,-0.00040299160024897965
3957.42,-0.00040042325731601665
3958.32,-0.00039818110598779667
3959.22,-0.0003934077476462312
3960.12,-0.0003860567694237623
3961.02,-0.00037129429982253815
3961.92,-0.0003533527403466094
3962.82,-0.00033267986208448356
3963.72,-0.00030917196895814344
3964.62,-0.00028348340958000653
3965.52,-0.00025622963371729036
3966.42,-0.00022799976239024414
3967.32,-0.00020048179129273738
3968.22,-0.00017913114816101974
3969.12,-0.00016583271994737156
3970.02,-0.0001631479978345746
3970.92,-0.00017303674054708177
3971.82,-0.00019343967040930796
3972.72,-0.0002212794185447158
3973.62,-0.00025629606991793406
3974.52,-0.00029020368904586334
3975.42,-0.000324987630895641
3976.32,-0.0003569761727046619
3977.22,-0.0003893690915805307
3978.13,-0.00042081982583690544
3979.03,-0.0004457712483467234
3979.93,-0.0004674122292216012
3980.83,-0.0004832051460969628
3981.73,-0.0004979988121323593
3982.63,-0.0005046677149953638
3983.53,-0.0005133093204294044
3984.43,-0.0005203787093608699
3985.33,-0.0005260526538330989
3986.23,-0.0005377345053474405
3987.13,-0.0005488354653119492
3988.03,-0.0005564017948115183
3988.93,-0.0005685263738480019
3989.83,-0.0005762265467814185
3990.73,-0.0005858102252739937
3991.63,-0.0005947290378061607
3992.53,-0.0006064415974882986
3993.43,-0.0006089139225189257
3994.33,-0.0006144036321775124
3995.23,-0.0006123685962751146
3996.13,-0.0006093400063357054
3997.03,-0.0006096625354258708
3997.93,-0.0006128257802932782
3998.83,-0.0006188316909953161
3999.73,-0.0006326940887385925
4000.63,-0.0006441724247904516
4001.53,-0.0006562048218156445
4002.43,-0.0006677033838707619
4003.33,-0.0006721382473280798
4004.23,-0.0006662011947245354
4005.13,-0.0006634285532167426
4006.03,-0.000658344647143559
4006.93,-0.0006568314320693174
4007.83,-0.0006638013810035896
4008.73,-0.0006778760966060155
4009.63,-0.0006912000704611029
4010.53,-0.0007071123600302388
4011.43,-0.0007189084053652866
4012.33,-0.0007331686990685229
4013.23,-0.0007415825792486858
4014.13,-0.0007488861117187595
4015.03,-0.0007563563543918249
4015.93,-0.0007584667299817701
4016.84,-0.0007679133123607379
4017.74,-0.0007756935151661846
4018.64,-0.0007787173089473164
4019.54,-0.0007868988344917787
4020.44,-0.0007955480184157384
4021.34,-0.0008007575977898813
4022.24,-0.0008055292245552635
4023.14,-0.0008084757568921586
4024.04,-0.0008148781945359167
4024.94,-0.0008211446299036847
4025.84,-0.0008278254667987662
4026.74,-0.000837607688970292
4027.64,-0.0008475313800022003
4028.54,-0.0008495408317588345
4029.44,-0.0008452709294546505
4030.34,-0.0008312080361835057
4031.24,-0.0008167280704182778
4032.14,-0.0008046564319459182
4033.04,-0.0007956937628703772
4033.94,-0.000804093630651114
4034.84,-0.0008126434247583567
4035.74,-0.0008406705616084535
4036.64,-0.0008695011707250241
4037.54,-0.000897106394339254
4038.44,-0.0009232250026534669
4039.34,-0.0009393827163405205
4040.24,-0.0009504899557521156
4041.14,-0.0009523688351619058
4042.04,-0.0009461282635180336
4042.94,-0.0009272337933572035
4043.84,-0.0009105049764678294
4044.74,-0.000893075253164707
4045.64,-0.0008775444016849312
4046.54,-0.0008702535567613231
4047.44,-0.0008858553564225976
4048.34,-0.0009120171184286958
4049.24,-0.0009445722620823483
4050.14,-0.0009733273740684935
4051.04,-0.0009971242433745849
4051.94,-0.0010077748745750468
4052.84,-0.0010111720577755212
4053.74,-0.0010096279606552974
4054.65,-0.0010040397408340514
4055.55,-0.0009942251071523107
4056.45,-0.000992546847479412
4057.35,-0.0009916134708205834
4058.25,-0.000999999177719877
4059.15,-0.0010069874923644842
4060.05,-0.0010153493998982536
4060.95,-0.001021795279855202
4061.85,-0.0010213586765754552
4062.75,-0.0010226406838303398
4063.65,-0.0010137136968245356
4064.55,-0.0010087139505446428
4065.45,-0.001012901048898975
4066.35,-0.0010281934730771063
4067.25,-0.001048440522813981
4068.15,-0.0010710274888080784
4069.05,-0.0010897382003728418
4069.95,-0.0011121571733865019
4070.85,-0.0011186259981426684
4071.75,-0.0011230980049415408
4072.65,-0.0011216323577600711
4073.55,-0.0011227784457551958
4074.45,-0.0011218106385944427
4075.35,-0.0011183763718547349
4076.25,-0.001111430217117785
4077.15,-0.0011004926997407625
4078.05,-0.001101959137943622
4078.95,-0.001113647940148428
4079.85,-0.0011269877940208917
4080.75,-0.001160800071476676
4081.65,-0.001199023567241437
4082.55,-0.0012260551374982788
4083.45,-0.0012464182454881014
4084.35,-0.0012570579223427887
4085.25,-0.00127205919660534
4086.15,-0.0012883593595609836
4087.05,-0.0013103426899703239
4087.95,-0.0013398628965986387
4088.85,-0.0013601501657915386
4089.75,-0.0013886039195193987
4090.65,-0.0013989146720352027
4091.55,-0.0014061974559821345
4092.45,-0.0014034787109891789
4093.36,-0.0013956239734295864
4094.26,-0.001377189356475714
4095.16,-0.001359296590854955
4096.06,-0.0013358317692428844
4096.96,-0.0013066418463739452
4097.86,-0.00127370410155782
4098.76,-0.0012299041339498798
4099.66,-0.0011869147579621952
4100.56,-0.0011443836341792132
4101.46,-0.001115874746632451
4102.36,-0.0011027629269680494
4103.26,-0.00111002898249939
4104.16,-0.0011454607600671631
4105.06,-0.0011980993573265165
4105.96,-0.001263487633480702
4106.86,-0.0013335192183033331
4107.76,-0.0013826600715841537
4108.66,-0.0014315301839721963
4109.56,-0.0014636465549397516
4110.46,-0.0014818512427806397
4111.36,-0.0015117634400354557
4112.26,-0.001540228332648176
4113.16,-0.0015674600102141038
4114.06,-0.0016015063376569807
4114.96,-0.0016315088141795392
4115.86,-0.0016536375252246816
4116.76,-0.0016730636835984136
4117.66,-0.0016815812357685212
4118.56,-0.001690755028067034
4119.46,-0.0016950020419183585
4120.36,-0.0016966795658133237
4121.26,-0.0017017204816206896
4122.16,-0.0017133276339894375
4123.06,-0.0017231363963346332
4123.96,-0.0017444398421168335
4124.86,-0.0017642873580176724
4125.76,-0.0017841169777517414
4126.66,-0.0017934938243565433
4127.56,-0.0018052618938172904
4128.46,-0.0018089333832813487
4129.36,-0.0018026679772292192
4130.26,-0.0017973233846118825
4131.17,-0.0017908076596073845
4132.06,-0.001791762324416364
4132.97,-0.0017892819441763946
4133.87,-0.0018009937501113004
4134.77,-0.0018359414217527822
4135.67,-0.0018743218373621676
4136.57,-0.0019282306239050764
4137.47,-0.00198240126096187
4138.37,-0.002031317646553038
4139.27,-0.0020599864377713563
4140.17,-0.0020673746742955333
4141.07,-0.0020757151573637107
4141.97,-0.002057879491910821
4142.87,-0.0020300267809049448
4143.77,-0.002017197083236464
4144.67,-0.002002729865087431
4145.57,-0.0020135387635575575
4146.47,-0.002065388440917021
4147.37,-0.0020977788999989025
4148.27,-0.0021293398473175504
4149.17,-0.0021587627828155384
4150.07,-0.0021839676239824584
4150.97,-0.0021813639259174724
4151.87,-0.0021877032795424413
4152.77,-0.0021942044530617296
4153.67,-0.0022029025091153
4154.57,-0.002205073517852908
4155.47,-0.002212708665829034
4156.37,-0.0022401288631672804
4157.27,-0.0022755201695536975
4158.17,-0.0022983165535356027
4159.07,-0.0023521007177653742
4159.97,-0.002395635737469192
4160.87,-0.002447314465087515
4161.77,-0.0024810131677076553
4162.67,-0.0025259509964302117
4163.57,-0.002566658620184461
4164.47,-0.00258126481745345
4165.37,-0.002584485823709146
4166.27,-0.0025907274909888808
4167.17,-0.0025941327822639527
4168.07,-0.0025947665059429634
4168.98,-0.002593714168145024
4169.88,-0.00258568287711249
4170.78,-0.002558508225107783
4171.68,-0.002529216654491078
4172.58,-0.0025236331628544404
4173.48,-0.0024947846745321063
4174.38,-0.0024946794587219785
4175.28,-0.002516872958921867
4176.18,-0.0025470320128154196
4177.08,-0.002583851479020183
4177.98,-0.002626340255661264
4178.88,-0.00267679081474121
4179.78,-0.002715036163795128
4180.68,-0.0027519869516564885
4181.58,-0.0028014878973392885
4182.48,-0.002836520527293443
4183.38,-0.002864759065195533
4184.28,-0.0028923876518863927
4185.18,-0.002909937940131647
4186.08,-0.002939211997626192
4186.98,-0.0029653121263269267
4187.88,-0.002976684936398438
4188.78,-0.003003027328724167
4189.68,-0.003029550877463409
4190.58,-0.003077521082068351
4191.48,-0.003122228577547803
4192.38,-0.0031812150806774637
4193.28,-0.0032289430684672702
4194.18,-0.0032682682156201953
4195.08,-0.0032641970700272565
4195.98,-0.003256859649713602
4196.88,-0.0032234304947157313
4197.78,-0.0031925182521243675
4198.68,-0.0031754491179142607
4199.58,-0.0031581844789790848
4200.48,-0.003160026518960887
4201.38,-0.003197119832535977
4202.28,-0.003232421131364683
4203.18,-0.0032793955168367896
4204.08,-0.0033367903863195433
4204.98,-0.0034223206027767816
4205.88,-0.0034939305168879523
4206.79,-0.0035891313906430645
4207.69,-0.0036537685220251266
4208.59,-0.0037348681608232745
4209.49,-0.0037974758060701037
4210.39,-0.0038467590557198362
4211.29,-0.0038894115413802785
4212.19,-0.0039037928949891784
4213.09,-0.003910253520995641
4213.99,-0.0039252855628962025
4214.89,-0.00393466369265125
4215.79,-0.003920875305966865
4216.69,-0.003929001928094696
4217.59,-0.003977358022009821
4218.49,-0.00406705332298262
4219.39,-0.004129572508493699
4220.29,-0.004220738447228518
4221.19,-0.004262843485907243
4222.09,-0.00427869105145251
4222.99,-0.004233485595977137
4223.89,-0.00412330483002705
4224.79,-0.004001411847965588
4225.69,-0.003860488257295044
4226.59,-0.003780427547652339
4227.49,-0.0037561965541543607
4228.39,-0.003815301382518227
4229.29,-0.003965785428550298
4230.19,-0.004144878997964009
4231.09,-0.004327932398460887
4231.99,-0.004486527987936104
4232.89,-0.0045800925832572776
4233.79,-0.004612753013832886
4234.69,-0.004644372374721165
4235.59,-0.004633005602359592
4236.49,-0.004630415663119315
4237.39,-0.004646538876926906
4238.29,-0.00470726407209035
4239.19,-0.004756245266016762
4240.09,-0.00482594667938461
4240.99,-0.004951228323045422
4241.89,-0.005043101405733698
4242.79,-0.005137027744714933
4243.69,-0.005247397995986339
4244.59,-0.005307370426212181
4245.5,-0.005369231092480557
4246.4,-0.005368636262002659
4247.3,-0.005350802718276728
4248.2,-0.005314327968720973
4249.1,-0.005290481288465004
4250.0,-0.005269897059581284
4250.9,-0.00530525866997388
4251.8,-0.005354585934686575
4252.7,-0.00542493154370237
4253.6,-0.005494299335352319
4254.5,-0.00556279671086448
4255.4,-0.005622498427513979
4256.3,-0.005718711868992668
4257.2,-0.005772087401079076
4258.1,-0.005786271867148201
4259.0,-0.005802899879258209
4259.9,-0.0058507453848269065
4260.8,-0.005851295619664038
4261.7,-0.005928408029220521
4262.6,-0.006065784064694576
4263.5,-0.006187336763134915
4264.4,-0.0063660501119688255
4265.3,-0.006545130925487886
4266.2,-0.006647850161761601
4267.1,-0.006704747512517275
4268.0,-0.006685450646003021
4268.9,-0.006616104525274093
4269.8,-0.006499404645387168
4270.7,-0.0063707967630796366
4271.6,-0.006246962930044058
4272.5,-0.006157134667843492
4273.4,-0.006151159121088067
4274.3,-0.006178304427463443
4275.2,-0.006380124814847946
4276.1,-0.006563301913423201
4277.0,-0.006794642158264118
4277.9,-0.006968904716035061
4278.8,-0.007167821830069303
4279.7,-0.007285041300271332
4280.6,-0.007336490568935208
4281.5,-0.007374914640311192
4282.4,-0.007438962770759421
4283.31,-0.007443238736872396
