wave,flux
3700.85,-3.7017694448211556e-07
3701.75,-3.657676495528885e-07
3702.65,-3.542374682951278e-07
3703.55,-3.3777696338807745e-07
3704.45,-3.1940487953904243e-07
3705.35,-3.028671004861932e-07
3706.25,-2.9129154247636015e-07
3707.15,-2.851585602366919e-07
3708.05,-2.873104354539133e-07
3708.96,-2.918064627319315e-07
3709.86,-3.0121180071423375e-07
3710.76,-3.1182204006433224e-07
3711.66,-3.2722364320353674e-07
3712.56,-3.424064773800813e-07
3713.46,-3.59718937852997e-07
3714.36,-3.7286099243287695e-07
3715.26,-3.804404946527072e-07
3716.16,-3.8296082747051904e-07
3717.06,-3.7610072829732003e-07
3717.96,-3.6056658039284074e-07
3718.86,-3.4155653420957657e-07
3719.76,-3.158567882528977e-07
3720.66,-2.947587164176244e-07
3721.56,-2.789253123204527e-07
3722.46,-2.761099073727249e-07
3723.36,-2.8400526144955726e-07
3724.26,-3.005912452191783e-07
3725.16,-3.1976121349905546e-07
3726.06,-3.3607234016452073e-07
3726.96,-3.4569981043289046e-07
3727.86,-3.494227147724811e-07
3728.76,-3.519698828856179e-07
3729.66,-3.486510137968877e-07
3730.56,-3.398961535267305e-07
3731.46,-3.2761196336197607e-07
3732.36,-3.0916188958043655e-07
3733.26,-2.869882193453916e-07
3734.16,-2.6558578501657415e-07
3735.06,-2.4977166919427406e-07
3735.96,-2.4343739954669794e-07
3736.86,-2.48718780929377e-07
3737.76,-2.643480429128674e-07
3738.66,-2.8827995145295274e-07
3739.56,-3.1182472707984407e-07
3740.46,-3.3419378867147e-07
3741.36,-3.474192753864351e-07
3742.26,-3.5362913970843006e-07
3743.16,-3.4649414097776757e-07
3744.06,-3.353330888943486e-07
3744.96,-3.193822005338545e-07
3745.86,-3.0365873495234717e-07
3746.76,-2.8739786913639765e-07
3747.67,-2.720367568971479e-07
3748.57,-2.601108723367458e-07
3749.47,-2.5440154178495356e-07
3750.37,-2.5800679375206455e-07
3751.27,-2.7284871559019017e-07
3752.17,-2.970735751846646e-07
3753.07,-3.259704073716639e-07
3753.97,-3.5486282118285155e-07
3754.87,-3.772245304715532e-07
3755.77,-3.8637263202692316e-07
3756.67,-3.853912569594569e-07
3757.57,-3.779009457017061e-07
3758.47,-3.645858095263733e-07
3759.37,-3.527392162712396e-07
3760.27,-3.483992679682294e-07
3761.17,-3.4932330376261793e-07
3762.07,-3.5588430961071954e-07
3762.97,-3.611241904809322e-07
3763.87,-3.6543673701049515e-07
3764.77,-3.6794989269068675e-07
3765.67,-3.646647164268823e-07
3766.57,-3.61942657503643e-07
3767.47,-3.561124882902791e-07
3768.37,-3.519999285149361e-07
3769.27,-3.4747643542435675e-07
3770.17,-3.457244947684702e-07
3771.07,-3.4880692010141855e-07
3771.97,-3.567835172796132e-07
3772.87,-3.699733815876351e-07
3773.77,-3.8548407817825375e-07
3774.67,-3.993568381994054e-07
3775.57,-4.0953532077492526e-07
3776.47,-4.1995368454587824e-07
3777.37,-4.295271480500574e-07
3778.27,-4.3933958804443403e-07
3779.17,-4.4952237020181204e-07
3780.07,-4.60846540359572e-07
3780.97,-4.701605731084284e-07
3781.87,-4.789423931022526e-07
3782.77,-4.833715459372721e-07
3783.67,-4.81258801051909e-07
3784.57,-4.778989584243068e-07
3785.47,-4.6682334747505675e-07
3786.38,-4.5093946885324457e-07
3787.28,-4.3385434677664014e-07
3788.18,-4.1639173827943727e-07
3789.08,-4.065875165627347e-07
3789.98,-3.976869353844893e-07
3790.88,-3.936841964825205e-07
3791.78,-3.91603260217303e-07
3792.68,-3.86048226170769e-07
3793.58,-3.7716960897437677e-07
3794.48,-3.6528139015821857e-07
3795.38,-3.5333563750787806e-07
3796.28,-3.3710576222623404e-07
3797.18,-3.2429722759902833e-07
3798.08,-3.1735965306397025e-07
3798.98,-3.1726586991190993e-07
3799.88,-3.2687037494706325e-07
3800.78,-3.474448774213175e-07
3801.68,-3.750851951547496e-07
3802.58,-4.0069619165900744e-07
3803.48,-4.2626140663474365e-07
3804.38,-4.418006369879025e-07
3805.28,-4.527097461847941e-07
3806.18,-4.57185220950413e-07
3807.08,-4.5842257626751643e-07
3807.98,-4.632302578906375e-07
3808.88,-4.663756127598894e-07
3809.78,-4.729531161695887e-07
3810.68,-4.779440479695877e-07
3811.58,-4.7656345855012913e-07
3812.48,-4.691676722178514e-07
3813.38,-4.537194533463512e-07
3814.28,-4.3688400753844943e-07
3815.18,-4.22409744320457e-07
3816.08,-4.1305847953878014e-07
3816.98,-4.100513559206198e-07
3817.88,-4.084396272641388e-07
3818.78,-4.0857929532494514e-07
3819.68,-4.0505074221996163e-07
3820.58,-3.993407046903194e-07
3821.48,-3.9599143445520684e-07
3822.38,-3.911155389156913e-07
3823.28,-3.8595145708082344e-07
3824.18,-3.7897626569847213e-07
3825.09,-3.6851080236761744e-07
3825.99,-3.577844588260162e-07
3826.89,-3.4772690675132405e-07
3827.79,-3.3948346065115157e-07
3828.69,-3.367871223712542e-07
3829.59,-3.3095691967089704e-07
3830.49,-3.2796460057347227e-07
3831.39,-3.195648845366362e-07
3832.29,-3.0833325667523875e-07
3833.19,-2.9587739654330266e-07
3834.09,-2.837346604906031e-07
3834.99,-2.7624022358361905e-07
3835.89,-2.7283292854566934e-07
3836.79,-2.7424596557467663e-07
3837.69,-2.790412977514143e-07
3838.59,-2.8846818555887633e-07
3839.49,-2.9972021304877615e-07
3840.39,-3.1691712140264674e-07
3841.29,-3.36763215585979e-07
3842.19,-3.6073125928164464e-07
3843.09,-3.8740196533344614e-07
3843.99,-4.1086967445383036e-07
3844.89,-4.3184946831904583e-07
3845.79,-4.444826060719186e-07
3846.69,-4.570499344642094e-07
3847.59,-4.639727942006246e-07
3848.49,-4.682300004761446e-07
3849.39,-4.7132121040614596e-07
3850.29,-4.7453049184886496e-07
3851.19,-4.7419613590449233e-07
3852.09,-4.774950097256289e-07
3852.99,-4.779443345607342e-07
3853.89,-4.799760565842619e-07
3854.79,-4.7575712070698494e-07
3855.69,-4.6999019838046525e-07
3856.59,-4.6010426449635173e-07
3857.49,-4.500019100841273e-07
3858.39,-4.422861674374076e-07
3859.29,-4.352597949140452e-07
3860.19,-4.340644941196446e-07
3861.09,-4.419629057795157e-07
3861.99,-4.5446560268996975e-07
3862.9,-4.71675840749786e-07
3863.8,-4.843555219561451e-07
3864.7,-4.972752489511614e-07
3865.6,-5.032319668110686e-07
3866.5,-5.045238985676424e-07
3867.4,-5.016712038468525e-07
3868.3,-4.961897542133117e-07
3869.2,-4.902709704056941e-07
3870.1,-4.810082102865758e-07
3871.0,-4.695988185000432e-07
3871.9,-4.623663167998383e-07
3872.8,-4.549032840816678e-07
3873.7,-4.5383375918003596e-07
3874.6,-4.5975504715417976e-07
3875.5,-4.6600213155926226e-07
3876.4,-4.72839449801466e-07
3877.3,-4.704165573403278e-07
3878.2,-4.6632138414940756e-07
3879.1,-4.6043239884916833e-07
3880.0,-4.554548776783795e-07
3880.9,-4.530640228813777e-07
3881.8,-4.500869255713979e-07
3882.7,-4.4703589848132606e-07
3883.6,-4.4190054008036263e-07
3884.5,-4.316796032335291e-07
3885.4,-4.2016837629147274e-07
3886.3,-4.013770763661592e-07
3887.2,-3.874481035886111e-07
3888.1,-3.7371959958438446e-07
3889.0,-3.6837395103598153e-07
3889.9,-3.7316642216431554e-07
3890.8,-3.893909646754687e-07
3891.7,-4.0924688881583855e-07
3892.6,-4.323772375939188e-07
3893.5,-4.549225054968858e-07
3894.4,-4.7155564438273427e-07
3895.3,-4.815469205854795e-07
3896.2,-4.923890797460934e-07
3897.1,-5.013117085519368e-07
3898.0,-5.106444249198176e-07
3898.9,-5.169644954319394e-07
3899.8,-5.22043141415681e-07
3900.7,-5.246355156700459e-07
3901.6,-5.270463430843131e-07
3902.51,-5.294352579302197e-07
3903.41,-5.27354479069193e-07
3904.31,-5.250803418062739e-07
3905.21,-5.213643476007883e-07
3906.11,-5.206338039959859e-07
3907.01,-5.269430569883759e-07
3907.91,-5.395110305346581e-07
3908.81,-5.554746958962943e-07
3909.71,-5.714414526123096e-07
3910.61,-5.861372710322424e-07
3911.51,-6.006262145391616e-07
3912.41,-6.076249667054017e-07
3913.31,-6.085406982299322e-07
3914.21,-6.068458666949545e-07
3915.11,-6.018729862384824e-07
3916.01,-5.937663678326886e-07
3916.91,-5.883826449839604e-07
3917.81,-5.793700665188279e-07
3918.71,-5.669244553186627e-07
3919.61,-5.527932326942804e-07
3920.51,-5.434071274670495e-07
3921.41,-5.360587476732599e-07
3922.31,-5.278003918651929e-07
3923.21,-5.231454826688739e-07
3924.11,-5.192675541439494e-07
3925.01,-5.112032106338282e-07
3925.91,-4.947558845276933e-07
3926.81,-4.7156655753533386e-07
3927.71,-4.405367281581722e-07
3928.61,-4.0290782433012717e-07
3929.51,-3.6225759643080766e-07
3930.41,-3.187343742438734e-07
3931.31,-2.7668123710900785e-07
3932.21,-2.4092279381691133e-07
3933.11,-2.1197855018823929e-07
3934.01,-1.956096925174571e-07
3934.91,-1.9404875794271065e-07
3935.81,-2.0683290220070628e-07
3936.71,-2.332295907389442e-07
3937.61,-2.6998643450762624e-07
3938.51,-3.122808703375339e-07
3939.42,-3.574005756852781e-07
3940.32,-3.966601661102154e-07
3941.22,-4.282672585828334e-07
3942.12,-4.5293017633003085e-07
3943.02,-4.7288858929622003e-07
3943.92,-4.889892590879057e-07
3944.82,-5.048939322524304e-07
3945.72,-5.235604249392892e-07
3946.62,-5.39273057001469e-07
3947.52,-5.546070417808011e-07
3948.42,-5.703938057525499e-07
3949.32,-5.839883518883962e-07
3950.22,-5.942937433457281e-07
3951.12,-6.020066975046224e-07
3952.02,-6.104107208144921e-07
3952.92,-6.154099284918391e-07
3953.82,-6.18852124721896e-07
3954.72,-6.171163763917587e-07
3955.62,-6.156864922874974e-07
3956.52,-6.123489112662316e-07
3957.42,-6.067302164599668e-07
3958.32,-5.967855858606334e-07
3959.22,-5.891675023753876e-07
3960.12,-5.700170274823432e-07
3961.02,-5.470814724210731e-07
3961.92,-5.193331638785281e-07
3962.82,-4.830629741074117e-07
3963.72,-4.4672282635636063e-07
3964.62,-4.064638895825377e-07
3965.52,-3.6605131334528533e-07
3966.42,-3.2381533827831314e-07
3967.32,-2.855064029308133e-07
3968.22,-2.540208909297687e-07
3969.12,-2.3431694368554146e-07
3970.02,-2.2941968076472856e-07
3970.92,-2.426487337964782e-07
3971.82,-2.6938051899522646e-07
3972.72,-3.079244725559306e-07
3973.62,-3.5373491518950257e-07
3974.52,-4.001250544747134e-07
3975.42,-4.4674012539176144e-07
3976.32,-4.899340987855591e-07
3977.22,-5.299389999870917e-07
3978.13,-5.666187948061461e-07
3979.03,-5.970409380506751e-07
3979.93,-6.268941804472796e-07
3980.83,-6.478928121221291e-07
3981.73,-6.644541706765956e-07
3982.63,-6.711020131628571e-07
3983.53,-6.781259019782309e-07
3984.43,-6.810991596085007e-07
3985.33,-6.892162999173541e-07
3986.23,-6.967427893410911e-07
3987.13,-7.053930964817592e-07
3988.03,-7.148084577510164e-07
3988.93,-7.26234473168067e-07
3989.83,-7.374960717670147e-07
3990.73,-7.43149138300262e-07
3991.63,-7.536319518944194e-07
3992.53,-7.55723752706763e-07
3993.43,-7.57839002941556e-07
3994.33,-7.624046565043081e-07
3995.23,-7.572226371676527e-07
3996.13,-7.514671181222683e-07
3997.03,-7.48809017675571e-07
3997.93,-7.439176751109851e-07
3998.83,-7.521329805917287e-07
3999.73,-7.610853866676971e-07
4000.63,-7.768968559113899e-07
4001.53,-7.877863372798398e-07
4002.43,-7.967736295292788e-07
4003.33,-7.937713915432672e-07
4004.23,-7.864856225810685e-07
4005.13,-7.727310467627383e-07
4006.03,-7.676698003184702e-07
4006.93,-7.625756327591285e-07
4007.83,-7.621958590105323e-07
4008.73,-7.743847843002036e-07
4009.63,-7.874876377402189e-07
4010.53,-8.009761175647359e-07
4011.43,-8.146741720050978e-07
4012.33,-8.226019032657585e-07
4013.23,-8.257458899262835e-07
4014.13,-8.29312124439717e-07
4015.03,-8.344908004106285e-07
4015.93,-8.365075774514216e-07
4016.84,-8.406647442886548e-07
4017.74,-8.476830058449179e-07
4018.64,-8.513131320004002e-07
4019.54,-8.558082867580824e-07
4020.44,-8.583775813432194e-07
4021.34,-8.616315583359525e-07
4022.24,-8.6049101794741e-07
4023.14,-8.588859070564435e-07
4024.04,-8.601237630360967e-07
4024.94,-8.594961192937195e-07
4025.84,-8.661038613159853e-07
4026.74,-8.654396936935601e-07
4027.64,-8.70375945581559e-07
4028.54,-8.689262893245006e-07
4029.44,-8.586425143485023e-07
4030.34,-8.415149130672797e-07
4031.24,-8.138723604614346e-07
4032.14,-7.963409529618616e-07
4033.04,-7.838414512190725e-07
4033.94,-7.838942267756712e-07
4034.84,-7.956705650508057e-07
4035.74,-8.163199480374878e-07
4036.64,-8.417737822080219e-07
4037.54,-8.677389955770008e-07
4038.44,-8.868738246640214e-07
4039.34,-8.982516820277196e-07
4040.24,-9.063961056119359e-07
4041.14,-8.987502485892371e-07
4042.04,-8.892342348533368e-07
4042.94,-8.729836937767506e-07
4043.84,-8.482631948498652e-07
4044.74,-8.229852098930332e-07
4045.64,-8.015274649002165e-07
4046.54,-7.944327024260258e-07
4047.44,-8.008638536687773e-07
4048.34,-8.206016706385695e-07
4049.24,-8.455155546220285e-07
4050.14,-8.675384175086463e-07
4051.04,-8.875751878222991e-07
4051.94,-8.91927213487296e-07
4052.84,-8.92095125694764e-07
4053.74,-8.833629228122216e-07
4054.65,-8.688469291516582e-07
4055.55,-8.605644545675269e-07
4056.45,-8.467874476980034e-07
4057.35,-8.396935324460015e-07
4058.25,-8.394548253140047e-07
4059.15,-8.426662273291603e-07
4060.05,-8.467907337378421e-07
4060.95,-8.482026147654778e-07
4061.85,-8.440397466956467e-07
4062.75,-8.348524208166822e-07
4063.65,-8.241163331845217e-07
4064.55,-8.16087898718038e-07
4065.45,-8.173377160490961e-07
4066.35,-8.22288467116981e-07
4067.25,-8.354023658216248e-07
4068.15,-8.503380262375007e-07
4069.05,-8.611064523584572e-07
4069.95,-8.729261400304012e-07
4070.85,-8.76325002530285e-07
4071.75,-8.684229996715725e-07
4072.65,-8.674051174905837e-07
4073.55,-8.666412616822838e-07
4074.45,-8.601560962467016e-07
4075.35,-8.509200689402982e-07
4076.25,-8.413366293521978e-07
4077.15,-8.286640909220635e-07
4078.05,-8.190051450606643e-07
4078.95,-8.264536251352641e-07
4079.85,-8.388579891488142e-07
4080.75,-8.590126391936252e-07
4081.65,-8.817571260006724e-07
4082.55,-8.972091636396495e-07
4083.45,-9.08388767492915e-07
4084.35,-9.131221323861668e-07
4085.25,-9.128907374197158e-07
4086.15,-9.255707293684962e-07
4087.05,-9.315213644670017e-07
4087.95,-9.462036971578109e-07
4088.85,-9.582021194343883e-07
4089.75,-9.689118794304843e-07
4090.65,-9.760634361428686e-07
4091.55,-9.681958418729582e-07
4092.45,-9.6059382340268e-07
4093.36,-9.506232916504292e-07
4094.26,-9.316193111664961e-07
4095.16,-9.147568322021503e-07
4096.06,-8.888122769421566e-07
4096.96,-8.663503592283398e-07
4097.86,-8.370127052630552e-07
4098.76,-8.04531512164583e-07
4099.66,-7.740382203243739e-07
4100.56,-7.437570238644252e-07
4101.46,-7.154745125633001e-07
4102.36,-7.055354626161609e-07
4103.26,-7.066919198723416e-07
4104.16,-7.272309726589706e-07
4105.06,-7.573326591860144e-07
4105.96,-7.939557727581496e-07
4106.86,-8.292758170298475e-07
4107.76,-8.564421349692959e-07
4108.66,-8.794596344731242e-07
4109.56,-8.931427991755328e-07
4110.46,-8.980891312963057e-07
4111.36,-9.142723692955879e-07
4112.26,-9.200713606863472e-07
4113.16,-9.355494827176055e-07
4114.06,-9.500432006177637e-07
4114.96,-9.646633137299203e-07
4115.86,-9.740808042923544e-07
4116.76,-9.836120745845332e-07
4117.66,-9.762241166854198e-07
4118.56,-9.757205022428122e-07
4119.46,-9.692398823641867e-07
4120.36,-9.674172411177552e-07
4121.26,-9.605629873403794e-07
4122.16,-9.613876860177799e-07
4123.06,-9.6260435715964e-07
4123.96,-9.684300603311163e-07
4124.86,-9.746613883612914e-07
4125.76,-9.791982796908158e-07
4126.66,-9.76577112545748e-07
4127.56,-9.77490431968313e-07
4128.46,-9.664427956947494e-07
4129.36,-9.601706900739338e-07
4130.26,-9.53834951807015e-07
4131.17,-9.432134183346529e-07
4132.06,-9.33375898926077e-07
4132.97,-9.276212687811783e-07
4133.87,-9.303638739433908e-07
4134.77,-9.439648373922205e-07
4135.67,-9.578567556189173e-07
4136.57,-9.800601268522362e-07
4137.47,-1.002741299625936e-06
4138.37,-1.0214119261996928e-06
4139.27,-1.0321963615074971e-06
4140.17,-1.033650361763056e-06
4141.07,-1.026564215136977e-06
4141.97,-1.0101255923794123e-06
4142.87,-9.925791806350618e-07
4143.77,-9.730206589426274e-07
4144.67,-9.636811374487496e-07
4145.57,-9.600874903303541e-07
4146.47,-9.72225083247774e-07
4147.37,-9.863209079915873e-07
4148.27,-9.955404491630696e-07
4149.17,-1.0036841966594402e-06
4150.07,-1.0010683370497004e-06
4150.97,-1.000287175520062e-06
4151.87,-9.949021236963712e-07
4152.77,-9.934127191272995e-07
4153.67,-9.88699182639161e-07
4154.57,-9.793300264366361e-07
4155.47,-9.809661276603124e-07
4156.37,-9.821710635199315e-07
4157.27,-9.893659049579337e-07
4158.17,-9.989713233364378e-07
4159.07,-1.015160204202894e-06
4159.97,-1.029401638723518e-06
4160.87,-1.0439451387631738e-06
4161.77,-1.0611732458694015e-06
4162.67,-1.0689791349744728e-06
4163.57,-1.0759996496519137e-06
4164.47,-1.0799143306630842e-06
4165.37,-1.0782442870120337e-06
4166.27,-1.0714082554255932e-06
4167.17,-1.0647002130005876e-06
4168.07,-1.055619734268282e-06
4168.98,-1.0433869610405598e-06
4169.88,-1.0358507512871387e-06
4170.78,-1.0208850570594335e-06
4171.68,-1.0064710852166677e-06
4172.58,-9.913031347341055e-07
4173.48,-9.754277775931135e-07
4174.38,-9.650769528683042e-07
4175.28,-9.645080676559757e-07
4176.18,-9.694925606645138e-07
4177.08,-9.784871778516916e-07
4177.98,-9.85016845895517e-07
4178.88,-9.989572650600557e-07
4179.78,-1.0108878199372122e-06
4180.68,-1.0134363361722967e-06
4181.58,-1.025538566859138e-06
4182.48,-1.035843542235124e-06
4183.38,-1.0409611130793961e-06
4184.28,-1.044886036494826e-06
4185.18,-1.0453775562716325e-06
4186.08,-1.0480324902894605e-06
4186.98,-1.0527584417750612e-06
4187.88,-1.0526020559377557e-06
4188.78,-1.0541864469501998e-06
4189.68,-1.0620953675572176e-06
4190.58,-1.0687319666410593e-06
4191.48,-1.0795928184534508e-06
4192.38,-1.0863424590367405e-06
4193.28,-1.0966920455308333e-06
4194.18,-1.0975736915349884e-06
4195.08,-1.0947100220255772e-06
4195.98,-1.079997699428891e-06
4196.88,-1.0616689221493747e-06
4197.78,-1.0430354879362567e-06
4198.68,-1.0236095886020393e-06
4199.58,-1.0150585129739315e-06
4200.48,-1.0130328929265371e-06
4201.38,-1.0106149379859302e-06
4202.28,-1.0222223919303468e-06
4203.18,-1.0329819535507243e-06
4204.08,-1.046168838267852e-06
4204.98,-1.0645582605641904e-06
4205.88,-1.0832009836224067e-06
4206.79,-1.1032800105354866e-06
4207.69,-1.1157128585860708e-06
4208.59,-1.1303590719588568e-06
4209.49,-1.1448076160799776e-06
4210.39,-1.1479339194433467e-06
4211.29,-1.157379294490546e-06
4212.19,-1.1534226867458627e-06
4213.09,-1.151467983527056e-06
4213.99,-1.1395034199075963e-06
4214.89,-1.1297611768240796e-06
4215.79,-1.1197557855432199e-06
4216.69,-1.1277305852235634e-06
4217.59,-1.129064926209046e-06
4218.49,-1.1487720730032943e-06
4219.39,-1.16591620830229e-06
4220.29,-1.1792716696884545e-06
4221.19,-1.184748750678274e-06
4222.09,-1.172646145772085e-06
4222.99,-1.151570149378697e-06
4223.89,-1.111311922274909e-06
4224.79,-1.0690853783632437e-06
4225.69,-1.0202755170093115e-06
4226.59,-9.86830791419771e-07
4227.49,-9.767420644554206e-07
4228.39,-9.8753407874521e-07
4229.29,-1.0239468992928695e-06
4230.19,-1.0601853121986075e-06
4231.09,-1.1027173752529258e-06
4231.99,-1.1343932479685077e-06
4232.89,-1.1502722526208652e-06
4233.79,-1.1574603081335296e-06
4234.69,-1.1518489587970665e-06
4235.59,-1.1427901260209919e-06
4236.49,-1.1310548510019572e-06
4237.39,-1.1306102228329612e-06
4238.29,-1.1264469344324742e-06
4239.19,-1.1361495388174998e-06
4240.09,-1.1522939343554e-06
4240.99,-1.1673081213774643e-06
4241.89,-1.1872951657464088e-06
4242.79,-1.2025824594240217e-06
4243.69,-1.2177441375595986e-06
4244.59,-1.2303981757796868e-06
4245.5,-1.2330699213402321e-06
4246.4,-1.225272330982244e-06
4247.3,-1.2111043954170825e-06
4248.2,-1.1963747790947243e-06
4249.1,-1.177471821515959e-06
4250.0,-1.1588210940702151e-06
4250.9,-1.1481312881013147e-06
4251.8,-1.1524046928808055e-06
4252.7,-1.159069799209125e-06
4253.6,-1.1651406516674233e-06
4254.5,-1.1712258497802694e-06
4255.4,-1.178382121414479e-06
4256.3,-1.188507080032886e-06
4257.2,-1.1926068655496128e-06
4258.1,-1.1909368416266714e-06
4259.0,-1.1859342030640457e-06
4259.9,-1.177613794057385e-06
4260.8,-1.173305858546992e-06
4261.7,-1.1810528249317424e-06
4262.6,-1.1992162269839252e-06
4263.5,-1.2182418581726889e-06
4264.4,-1.2552076400231361e-06
4265.3,-1.2786422654692853e-06
4266.2,-1.285102045988042e-06
4267.1,-1.2850143862788198e-06
4268.0,-1.272348504411343e-06
4268.9,-1.2447856512388176e-06
4269.8,-1.2124055512528067e-06
4270.7,-1.1747626909383396e-06
4271.6,-1.1327475499541938e-06
4272.5,-1.1124601321693468e-06
4273.4,-1.1010250848103641e-06
4274.3,-1.1043094491165327e-06
4275.2,-1.1217705023633174e-06
4276.1,-1.1516586736353626e-06
4277.0,-1.1807345784565665e-06
