wave,flux
3700.85,-0.007984975235123868
3701.75,-0.008000243250445295
3702.65,-0.00787244203567714
3703.55,-0.007678396688157301
3704.45,-0.007420419667893597
3705.35,-0.007271045370310761
3706.25,-0.0071762622947902505
3707.15,-0.007247628638648735
3708.05,-0.007376721645862678
3708.96,-0.007597401823450351
3709.86,-0.007833844276514434
3710.76,-0.008147233397882293
3711.66,-0.008456998212902382
3712.56,-0.008865969806050015
3713.46,-0.009304677112103591
3714.36,-0.009738832213709707
3715.26,-0.010190456348055025
3716.16,-0.01045777300146967
3717.06,-0.010538643592580577
3717.96,-0.010461205546797366
3718.86,-0.01008003408739664
3719.76,-0.009623579292396238
3720.66,-0.009220936904743062
3721.56,-0.008835562134606206
3722.46,-0.008834315551398223
3723.36,-0.009176554735974576
3724.26,-0.00973973092999788
3725.16,-0.01042287703632271
3726.06,-0.011087228560476836
3726.96,-0.011555991170660694
3727.86,-0.011933285309780071
3728.76,-0.012181775735117029
3729.66,-0.012348437580525867
3730.56,-0.012296804981303233
3731.46,-0.012114410374997185
3732.36,-0.011673158235279204
3733.26,-0.011083326047453147
3734.16,-0.010542580803489965
3735.06,-0.010108159415602641
3735.96,-0.01000149167708652
3736.86,-0.010359927225722043
3737.76,-0.011009039670537107
3738.66,-0.012016579971923971
3739.56,-0.01308915907665564
3740.46,-0.01412462223568235
3741.36,-0.014912700044078553
3742.26,-0.015406715095993754
3743.16,-0.015530348350249567
3744.06,-0.015357765265031575
3744.96,-0.01507650440722135
3745.86,-0.014639051996898819
3746.76,-0.014143908889383123
3747.67,-0.013656355823685027
3748.57,-0.013244592835674526
3749.47,-0.013035938454028685
3750.37,-0.01326508337680609
3751.27,-0.013969012770324318
3752.17,-0.015159536647435386
3753.07,-0.0166072631738828
3753.97,-0.01825574297711459
3754.87,-0.019512645192319662
3755.77,-0.020441114958928232
3756.67,-0.020922122728591994
3757.57,-0.021032525934220975
3758.47,-0.020807911209206678
3759.37,-0.020677231234823915
3760.27,-0.02083633789957854
3761.17,-0.02135146140493094
3762.07,-0.021892499966077224
3762.97,-0.022753038111482233
3763.87,-0.023357362346277902
3764.77,-0.02391941708973271
3765.67,-0.02430430486360455
3766.57,-0.024465030803832367
3767.47,-0.02442072948538485
3768.37,-0.024213504052789454
3769.27,-0.02406224562964124
3770.17,-0.02413497716157667
3771.07,-0.02432991332583316
3771.97,-0.025053938148016083
3772.87,-0.02635517542077573
3773.77,-0.02777372231576958
3774.67,-0.029239829428427927
3775.57,-0.030665702772808123
3776.47,-0.03205698518156087
3777.37,-0.03331683211716954
3778.27,-0.034639253782641294
3779.17,-0.03619524298855484
3780.07,-0.03757156024578137
3780.97,-0.03894002812875259
3781.87,-0.04003015001060442
3782.77,-0.04115959459046438
3783.67,-0.04181746628939421
3784.57,-0.04222506514145613
3785.47,-0.042180631933714414
3786.38,-0.04203178215831287
3787.28,-0.041597094882083345
3788.18,-0.04154242716719717
3789.08,-0.041251666852036746
3789.98,-0.041586429589944664
3790.88,-0.04199282324399587
3791.78,-0.042229328443540236
3792.68,-0.04259512924738061
3793.58,-0.04241180626718372
3794.48,-0.04188211756938512
3795.38,-0.04104026405851612
3796.28,-0.03995656742449325
3797.18,-0.039143207442202135
3798.08,-0.03895425670927366
3798.98,-0.03947816299671777
3799.88,-0.04129707814868651
3800.78,-0.04458358082056446
3801.68,-0.04833453091102026
3802.58,-0.05255209670744869
3803.48,-0.056589768405165594
3804.38,-0.06001762977058845
3805.28,-0.06290465785660738
3806.18,-0.06471756296320212
3807.08,-0.06623737893298237
3807.98,-0.06778155410411073
3808.88,-0.06971432602061378
3809.78,-0.07189630197138167
3810.68,-0.07373357493492058
3811.58,-0.07503698471556375
3812.48,-0.0755301792623277
3813.38,-0.07522844029955332
3814.28,-0.07457159187033606
3815.18,-0.0745223028348711
3816.08,-0.07501812842652661
3816.98,-0.07615014826389883
3817.88,-0.07788456918314876
3818.78,-0.0795583648365267
3819.68,-0.08094706960098519
3820.58,-0.08170807958990171
3821.48,-0.08263245249043885
3822.38,-0.0839247606638136
3823.28,-0.08470151999319867
3824.18,-0.08508034938120039
3825.09,-0.08514819808245148
3825.99,-0.08510459460787037
3826.89,-0.0846811525776107
3827.79,-0.08555169775459341
3828.69,-0.086290580923103
3829.59,-0.0867030570826795
3830.49,-0.0873241239179757
3831.39,-0.08636484342287959
3832.29,-0.08483685677530439
3833.19,-0.0828157647397114
3834.09,-0.08078032638945416
3834.99,-0.0797154436724948
3835.89,-0.08000252793624162
3836.79,-0.08214952662341031
3837.69,-0.08548966441696412
3838.59,-0.0910421991889657
3839.49,-0.09703876014864224
3840.39,-0.10512485425353539
3841.29,-0.11458987568430597
3842.19,-0.12539639578741577
3843.09,-0.1360942972088983
3843.99,-0.14681488616011723
3844.89,-0.1579623585265732
3845.79,-0.16682115299243078
3846.69,-0.17437391140168054
3847.59,-0.18194136031325964
3848.49,-0.18823737391643158
3849.39,-0.1940497011397143
3850.29,-0.19965879581155646
3851.19,-0.2065824318542701
3852.09,-0.21319616558270277
3852.99,-0.22043542430438998
3853.89,-0.2282509237424882
3854.79,-0.23187223706861249
3855.69,-0.23736845391286543
3856.59,-0.24105771047733368
3857.49,-0.24094892732952577
3858.39,-0.24487407344898976
3859.29,-0.24923767216310655
3860.19,-0.25496833769439126
3861.09,-0.26642202196701065
3861.99,-0.2798927375853225
3862.9,-0.2974829825964259
3863.8,-0.3136783968457207
3864.7,-0.3298714831528521
3865.6,-0.34589299715438615
3866.5,-0.35748441394843544
3867.4,-0.37194103811871904
3868.3,-0.3811614979113077
3869.2,-0.3922422476188703
3870.1,-0.40014653461614313
3871.0,-0.40606121257682387
3871.9,-0.4104499125838959
3872.8,-0.4218854254705173
3873.7,-0.42982281985939413
3874.6,-0.4457728703842515
3875.5,-0.4685544328998442
3876.4,-0.4874087947119909
3877.3,-0.5078030894724129
3878.2,-0.5253249978819498
3879.1,-0.5438960732589737
3880.0,-0.567152133988435
3880.9,-0.5894846639098134
3881.8,-0.6174578163674695
3882.7,-0.6426167763719042
3883.6,-0.6666411520750952
3884.5,-0.6825193268458001
3885.4,-0.6969811775983404
3886.3,-0.7023870626641016
3887.2,-0.7075570307710627
3888.1,-0.719581375730727
3889.0,-0.7422373145631921
3889.9,-0.7843095474339421
3890.8,-0.8554334219982037
3891.7,-0.9508459297805758
3892.6,-1.0665977672208828
3893.5,-1.1993442723140826
3894.4,-1.3383748900445662
3895.3,-1.4934948916728354
3896.2,-1.6628122991012595
3897.1,-1.855964555045157
3898.0,-2.078177825279837
3898.9,-2.3429212073355825
3899.8,-2.664144579436153
3900.7,-3.0544547651763247
3901.6,-3.551103056036855
3902.51,-4.2042468761151515
3903.41,-5.107350306953575
3904.31,-6.462878381009615
3905.21,-8.744217096512497
3906.11,-13.415470349075795
3907.01,-28.69944022814242
3907.91,310.76376252200356
3908.81,25.54723478945844
3909.71,13.798639353519869
3910.61,9.643525639911319
3911.51,7.5223944585200435
3912.41,6.13471306502691
3913.31,5.18983438344122
3914.21,4.489116850624773
3915.11,3.960224580731697
3916.01,3.513376789653811
3916.91,3.1559757891404683
3917.81,2.862763538990328
3918.71,2.627117086515097
3919.61,2.414517601381988
3920.51,2.2434577184881928
3921.41,2.080511903633946
3922.31,1.9538675609361957
3923.21,1.8543813704394994
3924.11,1.7456965259153923
3925.01,1.6461039004520273
3925.91,1.546033945561148
3926.81,1.4227505597645533
3927.71,1.2910581724897983
3928.61,1.1439420000255918
3929.51,1.0026163124833474
3930.41,0.8589286885079415
3931.31,0.727989695477476
3932.21,0.6073097278315748
3933.11,0.517951403188444
3934.01,0.46263441700604596
3934.91,0.4447440881311016
3935.81,0.46327407664432246
3936.71,0.5154290061731738
3937.61,0.5859977721654774
3938.51,0.6737211666439737
3939.42,0.7519993813978523
3940.32,0.8234614315527241
3941.22,0.8777969965702203
3942.12,0.9167721148940612
3943.02,0.9436926842802804
3943.92,0.9596043659886677
3944.82,0.9725630979487421
3945.72,0.9936777517798463
3946.62,1.0032723060751254
3947.52,1.0138145364778899
3948.42,1.0207746093548087
3949.32,1.0200755112833761
3950.22,1.0205044377994268
3951.12,1.0217662782080947
3952.02,1.017405081723235
3952.92,1.0135160275711765
3953.82,1.0079289039691575
3954.72,0.9993643550059168
3955.62,0.995517318138754
3956.52,0.9813489899564217
3957.42,0.9638378393082899
3958.32,0.9518598078528063
3959.22,0.9300415278379489
3960.12,0.9009080446376804
3961.02,0.8665984169309482
3961.92,0.8239960684386229
3962.82,0.7717063188618174
3963.72,0.7114622517285315
3964.62,0.6451806739694305
3965.52,0.5789523652818553
3966.42,0.5080830354052485
3967.32,0.4389211061987703
3968.22,0.3834443116798722
3969.12,0.34905121430539454
3970.02,0.33865080202190945
3970.92,0.35396698234066976
3971.82,0.39589468974884306
3972.72,0.45032062764955355
3973.62,0.518331938155325
3974.52,0.5851150413345894
3975.42,0.6487365639866368
3976.32,0.7079006375212082
3977.22,0.7556958346663208
3978.13,0.801942373052765
3979.03,0.8362352632417329
3979.93,0.8649892032995001
3980.83,0.8911954290537113
3981.73,0.9000566788146525
3982.63,0.9084377806409026
3983.53,0.9091559284045301
3984.43,0.9185242950452519
3985.33,0.9216394027816265
3986.23,0.9283850339305542
3987.13,0.9412647287515836
3988.03,0.9426210005194348
3988.93,0.9515612214299269
3989.83,0.9627465536844254
3990.73,0.9679320296157532
3991.63,0.9789661991803399
3992.53,0.9815430507870062
3993.43,0.9858002884777965
3994.33,0.9790533668828239
3995.23,0.9764239104616541
3996.13,0.9636212384271516
3997.03,0.9569345839938099
3997.93,0.9492540855987671
3998.83,0.948511141657097
3999.73,0.9582003044203437
4000.63,0.9676442741574032
4001.53,0.9773680228062543
4002.43,0.9854088779473013
4003.33,0.985917706663546
4004.23,0.9825073223361994
4005.13,0.9715726044667174
4006.03,0.9606774239487237
4006.93,0.9579365790994143
4007.83,0.9648845164446479
4008.73,0.970633730952477
4009.63,0.9797673298448205
4010.53,0.9947316649280009
4011.43,1.0083546652575315
4012.33,1.0064013040820994
4013.23,1.0060788751574887
4014.13,1.0080154006069217
4015.03,1.0141686957945708
4015.93,1.0133450461423315
4016.84,1.0155814841184856
4017.74,1.0144052097867413
4018.64,1.0170566889883188
4019.54,1.0201416934499021
4020.44,1.018409549598576
4021.34,1.0223585075020112
4022.24,1.0276831909273205
4023.14,1.0229349597120878
4024.04,1.024496094064597
4024.94,1.0236481067704346
4025.84,1.0269739621642744
4026.74,1.032337993878525
4027.64,1.0387233806840297
4028.54,1.0361426647574585
4029.44,1.0275706048885773
4030.34,1.0083383391230607
4031.24,0.9928863440740883
4032.14,0.9725552293871405
4033.04,0.9655096670848062
4033.94,0.9675814748230831
4034.84,0.9751972106997245
4035.74,0.994044363647698
4036.64,1.016475682501317
4037.54,1.0377178170462258
4038.44,1.052782170887521
4039.34,1.0593475376386223
4040.24,1.063029293213676
4041.14,1.0577827771035333
4042.04,1.0451502516911966
4042.94,1.0333152586585825
4043.84,1.011593341797812
4044.74,0.9897537341949612
4045.64,0.9758113552516854
4046.54,0.9652339584412931
4047.44,0.9702580581864066
4048.34,0.9839958851551684
4049.24,1.0034967030870294
4050.14,1.02144416417417
4051.04,1.036958418506955
4051.94,1.0465546893350068
4052.84,1.043935565694657
4053.74,1.037190175542486
4054.65,1.0273737940891774
4055.55,1.0228938730090542
4056.45,1.013759410003944
4057.35,1.0130234374973623
4058.25,1.0176252583955954
4059.15,1.0183817665038595
4060.05,1.0182834290566052
4060.95,1.0212704604735523
4061.85,1.0101051833760517
4062.75,1.00389049115902
4063.65,0.9910182928743616
4064.55,0.9842926196076935
4065.45,0.9746042357104894
4066.35,0.9765469893450611
4067.25,0.9825578662090722
4068.15,0.995764192433342
4069.05,1.0092742023255585
4069.95,1.015705403463397
4070.85,1.0142889385743412
4071.75,1.0163058729410779
4072.65,1.0081950844929144
4073.55,1.0053100440558191
4074.45,0.9947624800794265
4075.35,0.9863505410974048
4076.25,0.9710875878273453
4077.15,0.9545247625356537
4078.05,0.9448727586175886
4078.95,0.941320476721937
4079.85,0.9522109363298384
4080.75,0.9657536264958839
4081.65,0.9844691196452144
4082.55,1.0001530441219681
4083.45,1.0076229256134717
4084.35,1.012944767666608
4085.25,1.019131129544875
4086.15,1.0255517433506758
4087.05,1.0310172905305668
4087.95,1.0434678509033761
4088.85,1.0577238732862275
4089.75,1.0667890193991347
4090.65,1.0714040271230723
4091.55,1.0642349334372612
4092.45,1.0605931098319035
4093.36,1.0503807144962691
4094.26,1.034728830081591
4095.16,1.0192915386529386
4096.06,0.9973390926506255
4096.96,0.972156124973511
4097.86,0.9410982390271503
4098.76,0.9085601002227103
4099.66,0.8699138856738229
4100.56,0.8335566413893383
4101.46,0.8033135490615517
4102.36,0.7840842612881948
4103.26,0.7838882989003226
4104.16,0.7972471228045077
4105.06,0.82796700027027
4105.96,0.8648787554234197
4106.86,0.9033574267975493
4107.76,0.9284088167944933
4108.66,0.9481312334184906
4109.56,0.964266161416984
4110.46,0.9783421529882768
4111.36,0.9838483618483765
4112.26,0.9951352168893032
4113.16,1.0027083056782826
4114.06,1.016747533451928
4114.96,1.031054493483588
4115.86,1.0370504552998068
4116.76,1.04000120364464
4117.66,1.03510650980586
4118.56,1.0288360460403225
4119.46,1.026439502802454
4120.36,1.0168327670651855
4121.26,1.0154131838714517
4122.16,1.0136531521965773
4123.06,1.0120002123527279
4123.96,1.0178308571618742
4124.86,1.0213522846509013
4125.76,1.0301092743474463
4126.66,1.0273999906671951
4127.56,1.0213233102376202
4128.46,1.0227209205171757
4129.36,1.0095746552255966
4130.26,1.0033865395521573
4131.17,0.9976164859096462
4132.06,0.9880135918505975
4132.97,0.9814383303986097
4133.87,0.980128678460439
4134.77,0.9842838371430073
4135.67,0.9917013031791388
4136.57,1.008347425049507
4137.47,1.0227261595087573
4138.37,1.0381666815657538
4139.27,1.0457554450985527
4140.17,1.0453635261693135
4141.07,1.0393960646955165
4141.97,1.0234720651359204
4142.87,1.0113306024602378
4143.77,0.9992705703414295
4144.67,0.9885584714615723
4145.57,0.9928774960620176
4146.47,0.9950482972137674
4147.37,1.0125114459260662
4148.27,1.0155814207632679
4149.17,1.0280229229567044
4150.07,1.0179128451299166
4150.97,1.0274966432534411
4151.87,1.0205491825927768
4152.77,1.016926837867932
4153.67,1.009830843051736
4154.57,1.004316588185272
4155.47,1.0044459453146901
4156.37,1.0063239245387445
4157.27,1.0087919262765443
4158.17,1.0147496603472508
4159.07,1.0207498405427053
4159.97,1.0313630497463702
4160.87,1.0410291273929004
4161.77,1.0486219514149797
4162.67,1.0477972798692368
4163.57,1.055305658703482
4164.47,1.0559660375387094
4165.37,1.0567055207245217
4166.27,1.0495068852354366
4167.17,1.046752805340527
4168.07,1.0365399742377692
4168.98,1.0337379622793863
4169.88,1.0176437169944959
4170.78,1.0073916586643812
4171.68,0.9925097936024722
4172.58,0.9752830486892913
4173.48,0.964170715894409
4174.38,0.9583530835603676
4175.28,0.9559902927729387
4176.18,0.9629160297885279
4177.08,0.9692711039737638
4177.98,0.9825640312262592
4178.88,0.9906811506640391
4179.78,0.9977172760996273
4180.68,1.003125604438788
4181.58,1.0081702557765477
4182.48,1.0113465910378556
4183.38,1.0142944119937152
4184.28,1.0148281567260906
4185.18,1.0102465684227757
4186.08,1.0074838839837377
4186.98,1.0074975031616722
4187.88,1.0029396505439798
4188.78,1.0044063754563284
4189.68,1.0081034185425841
4190.58,1.012530650945277
4191.48,1.0211412418586732
4192.38,1.0285328820274016
4193.28,1.0306659818632822
4194.18,1.0292146818511525
4195.08,1.0291067965869047
4195.98,1.022534058167209
4196.88,1.0120600252527097
4197.78,0.9980243616156481
4198.68,0.9908105680979074
4199.58,0.9757125919567364
4200.48,0.9671989373902958
4201.38,0.9680197029407139
4202.28,0.9724184816228535
4203.18,0.970749808253693
4204.08,0.981073178792441
4204.98,0.9862909791183161
4205.88,1.0023457700053253
4206.79,1.0101721036898497
4207.69,1.0228555857925639
4208.59,1.027847413377377
4209.49,1.0386334724120818
4210.39,1.0407893305431621
4211.29,1.0424039929059619
4212.19,1.044439298595159
4213.09,1.0393095706655235
4213.99,1.03390729156764
4214.89,1.0202598115777364
4215.79,1.017927450134532
4216.69,1.0092438163600808
4217.59,1.0107151006551995
4218.49,1.0137816900437024
4219.39,1.0210753849556053
4220.29,1.0319760991109452
4221.19,1.0337897988326983
4222.09,1.0273343831748862
4222.99,1.0146409542370742
4223.89,0.9920623688573142
4224.79,0.9600365002744988
4225.69,0.9359954801077275
4226.59,0.9098877357504195
4227.49,0.9022642090556877
4228.39,0.9117261135689445
4229.29,0.9291245323797416
4230.19,0.9623273743065852
4231.09,0.9843624892300904
4231.99,1.0049934893223278
4232.89,1.0158263767481845
4233.79,1.017021353039279
4234.69,1.0168248409074334
4235.59,1.0082941361847644
4236.49,1.000557184050071
4237.39,0.9957814175158619
4238.29,0.9996282627995295
4239.19,1.0025696387601817
4240.09,1.0136945789209786
4240.99,1.0216126599274094
4241.89,1.028593481573629
4242.79,1.039046920977091
4243.69,1.043693701921526
4244.59,1.048415114804065
4245.5,1.0425563965500377
4246.4,1.0332102880169547
4247.3,1.028171241672302
4248.2,1.0194030284088227
4249.1,1.0120991667884713
4250.0,1.0047856742269294
4250.9,1.0049876961828708
4251.8,1.009409804504025
4252.7,1.0128472534530866
4253.6,1.0224475467235783
4254.5,1.0298334383660808
4255.4,1.0308774564403305
4256.3,1.0362557722170678
4257.2,1.0365906412245076
4258.1,1.0287309616260276
4259.0,1.029193969599791
4259.9,1.02438864115175
4260.8,1.026253560204298
4261.7,1.0216788814993518
4262.6,1.0319881467674232
4263.5,1.0389385847067734
4264.4,1.0562270919097625
4265.3,1.0657324240376511
4266.2,1.0685754692547884
4267.1,1.0750656361514306
4268.0,1.0677582075780587
4268.9,1.0550100562384193
4269.8,1.0334426499634224
4270.7,1.018278726320283
4271.6,0.9959563343777502
4272.5,0.9795432594779405
4273.4,0.9740222989185235
4274.3,0.9719381423860188
4275.2,0.9810480872881322
4276.1,0.9971646983213585
4277.0,1.0096529147899305
4277.9,1.0291881650938723
4278.8,1.0351589442436429
4279.7,1.0373128197519657
4280.6,1.041986421962819
4281.5,1.035070544889935
4282.4,1.0343078334176563
4283.31,1.0290802202695724
4284.21,1.0231232021579248
4285.11,1.0119453251173838
4286.01,1.0033907542942566
4286.91,0.9885406881120261
4287.81,0.975744504521316
4288.71,0.9583978787701277
4289.61,0.949998015173957
4290.51,0.9424061336137983
4291.41,0.9454108135126695
4292.31,0.9515141822321699
4293.21,0.9612884936424471
4294.11,0.9694098000781217
4295.01,0.9690505402074013
4295.91,0.9658547895424587
4296.81,0.9522455068504942
4297.71,0.9317577700397285
4298.61,0.9096476878338057
4299.51,0.8814805771914224
4300.41,0.859878507988436
4301.31,0.8437351070927562
4302.21,0.831656835028747
4303.11,0.8289352452943426
4304.01,0.8296001585013512
4304.91,0.8317562525867287
4305.81,0.8312895969763154
4306.71,0.8315274652947566
4307.61,0.8278933755422853
4308.51,0.8265719143551696
4309.41,0.8214862006573997
4310.31,0.8282559185744912
4311.21,0.8388355188017229
4312.11,0.8562950796506009
4313.01,0.8847768629337438
4313.91,0.9145939236051865
4314.81,0.9511012052627199
4315.71,1.0001127333891737
4316.61,1.0346337876646723
4317.51,1.073585598613021
4318.41,1.0968757225623937
4319.31,1.109366776139209
4320.21,1.112848948609974
4321.12,1.1046875346223128
4322.02,1.0826917814401993
4322.92,1.0532439201736223
4323.82,1.031139065670748
4324.72,1.0087487260700971
4325.62,0.9903097376966983
4326.52,0.9861008676857601
4327.42,0.9901674123610117
4328.32,1.010463428019399
4329.22,1.0346722912495618
4330.12,1.0512091623539377
4331.02,1.06569200238124
4331.92,1.078052700411101
4332.82,1.0859872911224275
4333.72,1.0779100548849567
4334.62,1.0647194948326444
4335.52,1.0461083831583151
4336.42,1.0184033815215008
4337.32,0.9751824588572754
4338.22,0.9325600170093361
4339.12,0.8906790075914895
4340.02,0.8535307830694252
4340.92,0.831593490787671
4341.82,0.8264985123550563
4342.72,0.8441381618985292
4343.62,0.8743230284546336
4344.52,0.9086819442184386
4345.42,0.9486118957820254
4346.32,0.9826385923163495
4347.22,1.006098180445369
4348.12,1.0256141429451147
4349.02,1.0395783332064514
4349.92,1.0353810084775363
4350.82,1.0318775925080423
4351.72,1.0256337575135555
4352.62,1.0210318139976555
4353.52,1.0130322089584844
4354.42,1.0200498959108895
4355.32,1.0222284882436516
4356.22,1.034991034343534
4357.12,1.0481723693185245
