wave,flux
3700.85,-5.699183306762692e-05
3701.75,-5.653436171033318e-05
3702.65,-5.471948937309005e-05
3703.55,-5.1959462544666944e-05
3704.45,-4.87401121038552e-05
3705.35,-4.6091863280937204e-05
3706.25,-4.376281857043254e-05
3707.15,-4.2593019157432236e-05
3708.05,-4.2732968999481224e-05
3708.96,-4.3742644022306623e-05
3709.86,-4.583537837845187e-05
3710.76,-4.8549541412246604e-05
3711.66,-5.2115015679703485e-05
3712.56,-5.5352888474900376e-05
3713.46,-5.873149523640994e-05
3714.36,-6.124603716229453e-05
3715.26,-6.233604343148299e-05
3716.16,-6.197320125668723e-05
3717.06,-6.02897760140888e-05
3717.96,-5.739271300424935e-05
3718.86,-5.3218086344124265e-05
3719.76,-4.879472901108399e-05
3720.66,-4.5047195466035e-05
3721.56,-4.282522841366025e-05
3722.46,-4.251237043120055e-05
3723.36,-4.4793072254214686e-05
3724.26,-4.7787415690527303e-05
3725.16,-5.156083894190779e-05
3726.06,-5.4216253651717086e-05
3726.96,-5.6006438212690194e-05
3727.86,-5.673994480021378e-05
3728.76,-5.694205642286874e-05
3729.66,-5.6514698962012876e-05
3730.56,-5.550494709772883e-05
3731.46,-5.341523027448544e-05
3732.36,-5.046927217046978e-05
3733.26,-4.6730849734260076e-05
3734.16,-4.302680658470159e-05
3735.06,-4.0119550442165304e-05
3735.96,-3.89461617299676e-05
3736.86,-3.972051372830584e-05
3737.76,-4.2377970520436726e-05
3738.66,-4.6619592434588836e-05
3739.56,-5.107363878137029e-05
3740.46,-5.552389427870804e-05
3741.36,-5.821584737543088e-05
3742.26,-5.9062117797024425e-05
3743.16,-5.811133837330084e-05
3744.06,-5.562481239529647e-05
3744.96,-5.2711262012580324e-05
3745.86,-4.9606694515781805e-05
3746.76,-4.6886372559437156e-05
3747.67,-4.46543243526205e-05
3748.57,-4.33759748871891e-05
3749.47,-4.3190301792813055e-05
3750.37,-4.495678036454767e-05
3751.27,-4.871800699481142e-05
3752.17,-5.383189099102532e-05
3753.07,-5.970284894854371e-05
3753.97,-6.558533360128636e-05
3754.87,-6.937426197671065e-05
3755.77,-7.13629035877549e-05
3756.67,-7.106921855213058e-05
3757.57,-6.874763618754326e-05
3758.47,-6.552275478767666e-05
3759.37,-6.316775124289091e-05
3760.27,-6.220879935583552e-05
3761.17,-6.271688106336592e-05
3762.07,-6.377812850282839e-05
3762.97,-6.508876374657817e-05
3763.87,-6.625223282007422e-05
3764.77,-6.69460768882677e-05
3765.67,-6.730084201579096e-05
3766.57,-6.735281292886405e-05
3767.47,-6.765920531725298e-05
3768.37,-6.752842628784932e-05
3769.27,-6.848803503567445e-05
3770.17,-6.9790912367405e-05
3771.07,-7.185954660893222e-05
3771.97,-7.453897739368366e-05
3772.87,-7.763738755067958e-05
3773.77,-8.062182080638743e-05
3774.67,-8.295785752177435e-05
3775.57,-8.530174516442588e-05
3776.47,-8.68366821339091e-05
3777.37,-8.852821085050478e-05
3778.27,-9.022548096825177e-05
3779.17,-9.205763348502534e-05
3780.07,-9.43462688928602e-05
3780.97,-9.726408006161249e-05
3781.87,-9.889823095546106e-05
3782.77,-0.00010020735514427828
3783.67,-0.00010028369881621558
3784.57,-9.886687153146844e-05
3785.47,-9.65156272023293e-05
3786.38,-9.315861953666214e-05
3787.28,-8.874815254618498e-05
3788.18,-8.530985186353112e-05
3789.08,-8.27751946983729e-05
3789.98,-8.170358079476046e-05
3790.88,-8.108135431910829e-05
3791.78,-8.137545994900431e-05
3792.68,-8.11816913812554e-05
3793.58,-8.035183579405502e-05
3794.48,-7.838159435710972e-05
3795.38,-7.61647231088494e-05
3796.28,-7.36041441172533e-05
3797.18,-7.18257166815795e-05
3798.08,-7.104177346314623e-05
3798.98,-7.1848246456335e-05
3799.88,-7.39678102035391e-05
3800.78,-7.866126770250616e-05
3801.68,-8.454739626418442e-05
3802.58,-9.066517799118092e-05
3803.48,-9.658268228691047e-05
3804.38,-0.00010070733267519185
3805.28,-0.00010290003618341311
3806.18,-0.00010389760755086732
3807.08,-0.00010429495526932789
3807.98,-0.00010414707569331967
3808.88,-0.00010586340847837463
3809.78,-0.00010747074567815543
3810.68,-0.00010857877449564839
3811.58,-0.00010835623855842307
3812.48,-0.00010649773577181497
3813.38,-0.00010255182224294646
3814.28,-9.789533665263087e-05
3815.18,-9.36158732288846e-05
3816.08,-9.086776158173738e-05
3816.98,-8.937206423617691e-05
3817.88,-8.916797784849827e-05
3818.78,-8.867722817134069e-05
3819.68,-8.790780412600707e-05
3820.58,-8.670307558207753e-05
3821.48,-8.555959652458458e-05
3822.38,-8.479889231389812e-05
3823.28,-8.440795100389507e-05
3824.18,-8.301945473158035e-05
3825.09,-8.090865770394391e-05
3825.99,-7.806046686896735e-05
3826.89,-7.637111947768898e-05
3827.79,-7.493286017762721e-05
3828.69,-7.47883769456591e-05
3829.59,-7.52227073656139e-05
3830.49,-7.508113490764068e-05
3831.39,-7.430684016556672e-05
3832.29,-7.290307938227593e-05
3833.19,-7.082539422847235e-05
3834.09,-6.936274555593119e-05
3834.99,-6.881446963736835e-05
3835.89,-6.877782019844342e-05
3836.79,-6.950736436605382e-05
3837.69,-7.074156226800523e-05
3838.59,-7.230348577969009e-05
3839.49,-7.481892112162066e-05
3840.39,-7.862508047600467e-05
3841.29,-8.380058075714703e-05
3842.19,-9.028828939560435e-05
3843.09,-9.782617533243636e-05
3843.99,-0.00010491892728478806
3844.89,-0.00011049346766174971
3845.79,-0.00011521099712310002
3846.69,-0.00011860381097423762
3847.59,-0.0001202089204123629
3848.49,-0.00012170103957221092
3849.39,-0.00012222488076626937
3850.29,-0.0001225539081998288
3851.19,-0.00012308188535793216
3852.09,-0.00012299827035725558
3852.99,-0.00012405310267101348
3853.89,-0.00012422361878320232
3854.79,-0.00012314366166772266
3855.69,-0.00012099641843672293
3856.59,-0.00011791410685170526
3857.49,-0.00011523867355640797
3858.39,-0.00011249824808734892
3859.29,-0.00011047863462676764
3860.19,-0.00011071781249125489
3861.09,-0.00011339192371260608
3861.99,-0.00011843580860358799
3862.9,-0.00012538802366751975
3863.8,-0.0001306740762927637
3864.7,-0.00013550146448036091
3865.6,-0.0001378250024923098
3866.5,-0.00013865145102141553
3867.4,-0.00013780335483093263
3868.3,-0.00013677211250821836
3869.2,-0.00013410318913460582
3870.1,-0.0001318211210887949
3871.0,-0.00012847336802457166
3871.9,-0.00012679486499989992
3872.8,-0.00012684046074802486
3873.7,-0.00012831466444949586
3874.6,-0.00013214270990794628
3875.5,-0.0001368722973992845
3876.4,-0.00013888272406956364
3877.3,-0.0001405528753068477
3878.2,-0.00013859708066471478
3879.1,-0.0001375964475809442
3880.0,-0.000136361237752631
3880.9,-0.00013650504636699123
3881.8,-0.0001371920262344598
3882.7,-0.0001374833316526326
3883.6,-0.0001371010148296328
3884.5,-0.00013596768311684181
3885.4,-0.00013441090194544374
3886.3,-0.00013125371391802128
3887.2,-0.00012897475180477912
3888.1,-0.00012652161406064412
3889.0,-0.00012760679950900186
3889.9,-0.00013165908449981026
3890.8,-0.00013874921189560707
3891.7,-0.00014741349299178592
3892.6,-0.00015668856389989977
3893.5,-0.0001642244154352638
3894.4,-0.00017010029392114338
3895.3,-0.00017313850151498824
3896.2,-0.00017654131980212966
3897.1,-0.00017861318169082462
3898.0,-0.000181523881442308
3898.9,-0.00018419520136902105
3899.8,-0.00018540969418725687
3900.7,-0.00018736295674814685
3901.6,-0.00018876718121635939
3902.51,-0.00018806338564185784
3903.41,-0.0001877793104328306
3904.31,-0.00018604548729314683
3905.21,-0.00018545620621187475
3906.11,-0.0001856429349395183
3907.01,-0.00018988880477817857
3907.91,-0.00019614550918661315
3908.81,-0.0002040743740187011
3909.71,-0.00021299681931543664
3910.61,-0.00022111730491928294
3911.51,-0.0002266091467429779
3912.41,-0.00023058403999738153
3913.31,-0.00023356924210419044
3914.21,-0.00023403310010874893
3915.11,-0.00023306432061587063
3916.01,-0.00023182379828427146
3916.91,-0.000228418508550363
3917.81,-0.00022440674091845253
3918.71,-0.00021956707887531982
3919.61,-0.00021373193171126388
3920.51,-0.00020789229031381104
3921.41,-0.0002042559618647977
3922.31,-0.00020106235321250398
3923.21,-0.00019969608359475988
3924.11,-0.00019745735241255907
3925.01,-0.00019527149171107939
3925.91,-0.0001898459144182206
3926.81,-0.0001807149717473221
3927.71,-0.00016890738289738935
3928.61,-0.00015321255579154021
3929.51,-0.00013611690648349293
3930.41,-0.00011988464948678031
3931.31,-0.00010451248620160356
3932.21,-9.073362647561267e-05
3933.11,-8.04665111704036e-05
3934.01,-7.494783786574347e-05
3934.91,-7.521635578302039e-05
3935.81,-8.063278575171411e-05
3936.71,-9.194612343816051e-05
3937.61,-0.00010727007213482475
3938.51,-0.00012575008951936693
3939.42,-0.0001443261454576837
3940.32,-0.00016176423024633825
3941.22,-0.00017563957578661248
3942.12,-0.00018787075823577522
3943.02,-0.00019669151003511563
3943.92,-0.0002041584808633552
3944.82,-0.0002143162553960082
3945.72,-0.00022306233920707627
3946.62,-0.00023704319059156498
3947.52,-0.00024677264691845677
3948.42,-0.0002571984356557972
3949.32,-0.000268432949802573
3950.22,-0.00027589347410070486
3951.12,-0.00028209853018228587
3952.02,-0.00028848759803737795
3952.92,-0.0002925167980796319
3953.82,-0.00029621578449121386
3954.72,-0.00029799859828284357
3955.62,-0.00029785970220965797
3956.52,-0.00029881071294122845
3957.42,-0.0002957874033128906
3958.32,-0.0002929769314370588
3959.22,-0.0002893080620838333
3960.12,-0.0002794320051534389
3961.02,-0.00026679634330300606
3961.92,-0.0002510537106929865
3962.82,-0.0002330296762490707
3963.72,-0.00021441050410754404
3964.62,-0.00019521884357912586
3965.52,-0.00017611961200440657
3966.42,-0.0001570276750652142
3967.32,-0.0001388658459320023
3968.22,-0.00012444258397221848
3969.12,-0.0001167575540181189
3970.02,-0.0001161760257215477
3970.92,-0.00012470902801090897
3971.82,-0.00014034596302525134
3972.72,-0.00016258672676518416
3973.62,-0.00018691147955835087
3974.52,-0.00021388095089478875
3975.42,-0.00023970434822011765
3976.32,-0.00026658654284967816
3977.22,-0.0002911368972270293
3978.13,-0.00031513293389168824
3979.03,-0.00033693461677918827
3979.93,-0.00035497737690369334
3980.83,-0.0003684572321783461
3981.73,-0.00037938547250734357
3982.63,-0.00038762234457482376
3983.53,-0.0003930432684442324
3984.43,-0.00039678256161301985
3985.33,-0.0004009788310481921
3986.23,-0.00041069471867377936
3987.13,-0.0004163091637952981
3988.03,-0.0004240429951137305
3988.93,-0.00043372842288200115
3989.83,-0.00044253476147887124
3990.73,-0.00045008129892010895
3991.63,-0.00045634319081456576
3992.53,-0.00046276592251372006
3993.43,-0.0004668397903989819
3994.33,-0.0004704203678822317
3995.23,-0.00047014490522462164
3996.13,-0.00046982973165774443
3997.03,-0.00046673748760362826
3997.93,-0.0004716910813042328
3998.83,-0.0004759026958885771
3999.73,-0.0004873801818947306
4000.63,-0.000500156181620295
4001.53,-0.000510315408640958
4002.43,-0.0005198402896579306
4003.33,-0.0005216777782075272
4004.23,-0.0005186009105058725
4005.13,-0.0005099644825793572
4006.03,-0.0005058621155798664
4006.93,-0.0005040677846499306
4007.83,-0.0005057916004981446
4008.73,-0.0005167469632098924
4009.63,-0.0005318685774900705
4010.53,-0.0005444404158634123
4011.43,-0.0005571340425063797
4012.33,-0.0005668314508657168
4013.23,-0.0005751099360185206
4014.13,-0.000585055506140047
4015.03,-0.0005898394556429759
4015.93,-0.0005950989745803898
4016.84,-0.0006015307803568139
4017.74,-0.0006078887328418375
4018.64,-0.0006116497175671736
4019.54,-0.0006175264858841548
4020.44,-0.0006239066609038063
4021.34,-0.0006317982595089557
4022.24,-0.000631297951225771
4023.14,-0.0006322132990158566
4024.04,-0.0006351300955592172
4024.94,-0.0006388918178518427
4025.84,-0.0006436869205961664
4026.74,-0.0006555946219354327
4027.64,-0.0006597440668602939
4028.54,-0.0006606663244901285
4029.44,-0.0006524703176342864
4030.34,-0.0006394693140477897
4031.24,-0.0006212622050874647
4032.14,-0.0006025325393310361
4033.04,-0.0005934245009713997
4033.94,-0.0005953312387123127
4034.84,-0.0006030671925013111
4035.74,-0.0006277124264874491
4036.64,-0.000656333173633269
4037.54,-0.0006877747242460592
4038.44,-0.0007142477378195473
4039.34,-0.0007285138158155432
4040.24,-0.0007367981972863276
4041.14,-0.000739034280283343
4042.04,-0.0007279861923391007
4042.94,-0.0007144209874162616
4043.84,-0.0006945585243642072
4044.74,-0.00067394984253951
4045.64,-0.0006540038167249329
4046.54,-0.000646242140505723
4047.44,-0.0006542271906910688
4048.34,-0.0006788297794436621
4049.24,-0.0007106313938032066
4050.14,-0.0007427776097859808
4051.04,-0.0007684636656004279
4051.94,-0.000782607699473991
4052.84,-0.000785092140017767
4053.74,-0.0007786383927423346
4054.65,-0.0007716984066866971
4055.55,-0.000762124368260499
4056.45,-0.0007523587226200559
4057.35,-0.0007518658349480646
4058.25,-0.0007483988106419329
4059.15,-0.000753507279802294
4060.05,-0.0007636611052304926
4060.95,-0.0007637489676071327
4061.85,-0.0007641928951946235
4062.75,-0.0007587921356128647
4063.65,-0.0007499658839981109
4064.55,-0.000746855501721912
4065.45,-0.0007500421498605092
4066.35,-0.0007606533109802152
4067.25,-0.0007820209772204788
4068.15,-0.0008083019660557817
4069.05,-0.0008275863149460115
4069.95,-0.0008408190354777221
4070.85,-0.0008496609141777199
4071.75,-0.0008550236634052597
4072.65,-0.0008526492525906989
4073.55,-0.0008552634133735769
4074.45,-0.0008565705670362093
4075.35,-0.0008526267852196448
4076.25,-0.0008465133368083541
4077.15,-0.0008397740444693477
4078.05,-0.0008404673310114311
4078.95,-0.0008537284949061273
4079.85,-0.0008782359318993834
4080.75,-0.0009099551838453721
4081.65,-0.0009436893218499693
4082.55,-0.000970781325129777
4083.45,-0.0009841882011078758
4084.35,-0.0009954521963164917
4085.25,-0.0010142524374408993
4086.15,-0.001023248772840355
4087.05,-0.0010464416487183932
4087.95,-0.0010741976736828927
4088.85,-0.0010970031810049762
4089.75,-0.0011161434802137637
4090.65,-0.0011268064786835205
4091.55,-0.0011285271743863483
4092.45,-0.0011246930993708006
4093.36,-0.0011145363967733633
4094.26,-0.0011090063920181803
4095.16,-0.0010899307287765387
4096.06,-0.0010672720270140349
4096.96,-0.0010448331728547685
4097.86,-0.0010196088511507419
4098.76,-0.0009906449457407192
4099.66,-0.0009616099633924945
4100.56,-0.0009327665292758468
4101.46,-0.0009124631601515408
4102.36,-0.0009035703918667504
4103.26,-0.0009155504092578208
4104.16,-0.0009451962822329101
4105.06,-0.000990865861408092
4105.96,-0.0010437141188001527
4106.86,-0.0010907163725401973
4107.76,-0.0011293057743863946
4108.66,-0.0011561492032151446
4109.56,-0.0011822593373251456
4110.46,-0.0011879583594001531
4111.36,-0.0012046982291040952
4112.26,-0.0012207710062086751
4113.16,-0.0012448385118914724
4114.06,-0.0012658204679241905
4114.96,-0.0012920624292124586
4115.86,-0.0013132885346545456
4116.76,-0.001330076753133188
4117.66,-0.0013333777434254134
4118.56,-0.0013339119441269293
4119.46,-0.0013361084786624121
4120.36,-0.001326689467818524
4121.26,-0.001332991858196958
4122.16,-0.0013384492983553565
4123.06,-0.0013562891332684003
4123.96,-0.0013707714937133476
4124.86,-0.0013865643744064243
4125.76,-0.0013958357150267939
4126.66,-0.0014017024415104494
4127.56,-0.0014078066054969633
4128.46,-0.0013966715309378529
4129.36,-0.0013940018702081692
4130.26,-0.0013850562963910098
4131.17,-0.0013741383005311176
4132.06,-0.0013664000348152115
4132.97,-0.001359610032305612
4133.87,-0.001370419696027968
4134.77,-0.0013922483669443636
4135.67,-0.0014310450976326573
4136.57,-0.0014816156561210747
4137.47,-0.0015266180511082355
4138.37,-0.0015674520227003906
4139.27,-0.0015954705432793294
4140.17,-0.0016111568912692026
4141.07,-0.001604468781352083
4141.97,-0.0015816373902156947
4142.87,-0.0015530636151233775
4143.77,-0.0015303911261651075
4144.67,-0.0015162416569394121
4145.57,-0.0015247623752704315
4146.47,-0.0015514279749394694
4147.37,-0.0015790583283370688
4148.27,-0.0016163744465759852
4149.17,-0.0016380610663112856
4150.07,-0.0016549307385739444
4150.97,-0.0016543024146320042
4151.87,-0.001655231876724736
4152.77,-0.001656891301873282
4153.67,-0.001655681376228681
4154.57,-0.0016578797232872156
4155.47,-0.0016696850270050017
4156.37,-0.0016809719104526931
4157.27,-0.0017089882325320798
4158.17,-0.0017438211517589268
4159.07,-0.001788498647437004
4159.97,-0.001832504567976098
4160.87,-0.0018788072471803046
4161.77,-0.001926807980001299
4162.67,-0.0019635260468687126
4163.57,-0.001975651556515337
4164.47,-0.00200078694818515
4165.37,-0.002009563544168665
4166.27,-0.0020070403424284496
4167.17,-0.0019986640604496542
4168.07,-0.0019882369104266555
4168.98,-0.0019883241078714666
4169.88,-0.001975290564814059
4170.78,-0.0019629584633453143
4171.68,-0.0019466592985678233
4172.58,-0.0019081929055824076
4173.48,-0.0019037001038996828
4174.38,-0.0018914394801920014
4175.28,-0.0018981511447378775
4176.18,-0.0019190858163624222
4177.08,-0.001946882363464886
4177.98,-0.0019726227613402784
4178.88,-0.0020271119816964787
4179.78,-0.0020569569198689215
4180.68,-0.0020892787412840215
4181.58,-0.0021244727743153944
4182.48,-0.0021510146428723735
4183.38,-0.0021802868945681847
4184.28,-0.0022020605849494322
4185.18,-0.0022324142952691636
4186.08,-0.0022586144766022108
4186.98,-0.0022649286844710075
4187.88,-0.002265280281140077
4188.78,-0.0023001776043745184
4189.68,-0.002330479901374157
4190.58,-0.002366766857737784
4191.48,-0.0024151264126977155
4192.38,-0.002456638628755259
4193.28,-0.002501424983668252
4194.18,-0.002516714394879852
4195.08,-0.002508984305223744
4195.98,-0.002495863075520489
4196.88,-0.002460057721184687
4197.78,-0.0024193068568650025
4198.68,-0.002392030684808993
4199.58,-0.0023819618434504737
4200.48,-0.0023776393123223346
4201.38,-0.0024069276104488374
4202.28,-0.0024429064423122492
4203.18,-0.0024941982298805187
4204.08,-0.0025620050562785435
4204.98,-0.002624170520771761
4205.88,-0.002714070729096431
4206.79,-0.0027962723392128282
4207.69,-0.0028761927952334226
4208.59,-0.0029234481146810563
4209.49,-0.0029751409887533165
4210.39,-0.003007684367733643
4211.29,-0.0030292618103857764
4212.19,-0.003051246060695566
4213.09,-0.003041232066167122
4213.99,-0.003041806956784412
4214.89,-0.0030449701839293424
4215.79,-0.0030348113680954353
4216.69,-0.003056989786585609
4217.59,-0.003120318796456815
4218.49,-0.0031915254525849007
4219.39,-0.0032784555523286763
4220.29,-0.0033479456454170707
4221.19,-0.003390053119214885
4222.09,-0.0033710737894364355
4222.99,-0.0033155709815174284
4223.89,-0.003204414188725439
4224.79,-0.003060744599145095
4225.69,-0.002906091720882579
4226.59,-0.002806605435154226
4227.49,-0.002781773694637776
4228.39,-0.0028299946398557996
4229.29,-0.002969397576276089
4230.19,-0.003146716989329551
4231.09,-0.0033257960823580147
4231.99,-0.0034826938094503815
4232.89,-0.0035629316583916898
4233.79,-0.0036196848958345153
4234.69,-0.003626249245635222
4235.59,-0.0036189199461216554
4236.49,-0.0036171388379597257
4237.39,-0.003623741739130253
4238.29,-0.0036692252181508385
4239.19,-0.003731253875628651
4240.09,-0.0038015296601632944
4240.99,-0.003905020626252215
4241.89,-0.0039989715080518354
4242.79,-0.004131418818984739
4243.69,-0.0042234993433211635
4244.59,-0.004313575410394866
4245.5,-0.004351818478322217
4246.4,-0.004355462418654862
4247.3,-0.004335543103063898
4248.2,-0.004266480874085869
4249.1,-0.004192612127333472
4250.0,-0.004169265043646494
4250.9,-0.004148141389748697
4251.8,-0.004156780180709503
4252.7,-0.004190885211181366
4253.6,-0.004252449846559381
4254.5,-0.004317660294758201
4255.4,-0.0043815517806809635
4256.3,-0.004447644920967163
4257.2,-0.004498682537654725
4258.1,-0.004539785630313824
4259.0,-0.0045455726072448155
4259.9,-0.004539903484252109
4260.8,-0.004556727364636784
4261.7,-0.004631561654407309
4262.6,-0.004740842504605263
4263.5,-0.0049248435164735895
4264.4,-0.00508790396244111
4265.3,-0.005276920933967807
4266.2,-0.005375386160092835
4267.1,-0.005419924148872797
4268.0,-0.005379150737170091
4268.9,-0.005254414188951383
4269.8,-0.005128426555446733
4270.7,-0.004957533352666187
4271.6,-0.004788935053743922
4272.5,-0.004684309156578822
4273.4,-0.004620292530679256
4274.3,-0.0046724779094426735
4275.2,-0.004825000591802141
4276.1,-0.005026455151638589
4277.0,-0.005235407914399241
4277.9,-0.005496834884290314
4278.8,-0.005673073863253826
4279.7,-0.005798801305936051
4280.6,-0.0058851359457602415
4281.5,-0.005930971215589618
