wave,flux
3700.85,-9.663682155397057e-05
3701.75,-9.588838961034429e-05
3702.65,-9.314238684463574e-05
3703.55,-8.932805805740912e-05
3704.45,-8.522542852327556e-05
3705.35,-8.160509999761131e-05
3706.25,-7.949780558512866e-05
3707.15,-7.849724530812055e-05
3708.05,-7.908285787868896e-05
3708.96,-8.049901322154426e-05
3709.86,-8.338322592490766e-05
3710.76,-8.637805427423745e-05
3711.66,-9.086255828312374e-05
3712.56,-9.48113729262254e-05
3713.46,-9.90523250691972e-05
3714.36,-0.00010341885596923014
3715.26,-0.00010633581769108702
3716.16,-0.0001070187674026083
3717.06,-0.00010579388988177262
3717.96,-0.0001025321074350226
3718.86,-9.727698889721395e-05
3719.76,-9.090518095161893e-05
3720.66,-8.472579738392625e-05
3721.56,-8.077116244645421e-05
3722.46,-8.037280888358272e-05
3723.36,-8.323260739681289e-05
3724.26,-8.816522905069121e-05
3725.16,-9.412140695993231e-05
3726.06,-9.911986050528885e-05
3726.96,-0.0001027444615556243
3727.86,-0.00010452837291888311
3728.76,-0.00010518311375009631
3729.66,-0.00010509888067518375
3730.56,-0.00010375444267408142
3731.46,-0.00010096467226323318
3732.36,-9.599666586369607e-05
3733.26,-8.997710149029567e-05
3734.16,-8.372592049803396e-05
3735.06,-7.869125020460088e-05
3735.96,-7.663936470183337e-05
3736.86,-7.822620401799865e-05
3737.76,-8.280425891891756e-05
3738.66,-8.982514157262262e-05
3739.56,-9.711957606980678e-05
3740.46,-0.00010469887170851273
3741.36,-0.00010968174470807527
3742.26,-0.00011160607771046541
3743.16,-0.00011094909249359792
3744.06,-0.0001077486587500803
3744.96,-0.00010374968803256468
3745.86,-9.908892158686478e-05
3746.76,-9.392174249133341e-05
3747.67,-8.97249037080715e-05
3748.57,-8.649527967089123e-05
3749.47,-8.490873392932322e-05
3750.37,-8.68623199411306e-05
3751.27,-9.198275826088029e-05
3752.17,-9.946663614138412e-05
3753.07,-0.00010953766432513466
3753.97,-0.00011802930357932367
3754.87,-0.00012562520978493536
3755.77,-0.00012922954092097922
3756.67,-0.00013006227786231875
3757.57,-0.00012743586945533628
3758.47,-0.00012403909520552702
3759.37,-0.00012080724852720845
3760.27,-0.00012004648733562413
3761.17,-0.0001211290150583383
3762.07,-0.00012358544392630333
3762.97,-0.00012685871222278694
3763.87,-0.00012880080614412662
3764.77,-0.0001304287009451014
3765.67,-0.0001313428490025277
3766.57,-0.00013112662698386084
3767.47,-0.00013060392034467522
3768.37,-0.00012888839173597018
3769.27,-0.00012837827393918588
3770.17,-0.00012807579052842919
3771.07,-0.00012978415782171496
3771.97,-0.00013329851231159474
3772.87,-0.0001377879370903739
3773.77,-0.00014228444704852597
3774.67,-0.00014775756928580333
3775.57,-0.00015287619332241404
3776.47,-0.00015634649441940044
3777.37,-0.00016084403019685803
3778.27,-0.00016415911387133666
3779.17,-0.00016801715937329734
3780.07,-0.00017264569901483373
3780.97,-0.0001762651460882785
3781.87,-0.00017906149050678983
3782.77,-0.00018154427116620373
3783.67,-0.00018240420570813333
3784.57,-0.00018066641996813273
3785.47,-0.00017797156724402076
3786.38,-0.00017449281028321056
3787.28,-0.00016831835967904185
3788.18,-0.00016434274720836177
3789.08,-0.0001614762453634224
3789.98,-0.0001603326390201099
3790.88,-0.0001596095757340189
3791.78,-0.00015907910083459603
3792.68,-0.00015881617654391777
3793.58,-0.00015627723763011035
3794.48,-0.0001530852179941326
3795.38,-0.00014745755645497873
3796.28,-0.0001435374809223605
3797.18,-0.00013880280593354046
3798.08,-0.0001363233969764105
3798.98,-0.00013703033579327736
3799.88,-0.00014154237506604014
3800.78,-0.00015004971779933391
3801.68,-0.00016102544642380225
3802.58,-0.0001721912755067782
3803.48,-0.00018306819871952414
3804.38,-0.00019054970348026423
3805.28,-0.00019518835447171766
3806.18,-0.00019833827797298648
3807.08,-0.00019936050233850861
3807.98,-0.00020046746378183796
3808.88,-0.00020195416045075382
3809.78,-0.00020498503544064608
3810.68,-0.00020783807217487733
3811.58,-0.00020667604532118077
3812.48,-0.00020420362077237081
3813.38,-0.00019973821976607326
3814.28,-0.00019394768811348333
3815.18,-0.00018859379546031036
3816.08,-0.00018566541090424423
3816.98,-0.00018405225908163031
3817.88,-0.0001846701466922152
3818.78,-0.00018442706207557678
3819.68,-0.00018401998959437308
3820.58,-0.00018217395446593502
3821.48,-0.0001812169010059072
3822.38,-0.00017959554124113059
3823.28,-0.000178444548042508
3824.18,-0.00017635999613559386
3825.09,-0.0001729387108133466
3825.99,-0.00016831282209864577
3826.89,-0.00016518031874109974
3827.79,-0.0001625914500292898
3828.69,-0.00016181542090397652
3829.59,-0.00016031005323746187
3830.49,-0.00015980051259261287
3831.39,-0.00015634428114983645
3832.29,-0.0001517401196499889
3833.19,-0.0001470550721014413
3834.09,-0.00014153846021865553
3834.99,-0.00013919743807039677
3835.89,-0.00013809025041890903
3836.79,-0.00013899972219040744
3837.69,-0.0001418383712870857
3838.59,-0.00014635422358799376
3839.49,-0.00015239818316390544
3840.39,-0.00016026870279904547
3841.29,-0.00017165895072438126
3842.19,-0.00018535525889296154
3843.09,-0.00019889334961811317
3843.99,-0.00021288446902117418
3844.89,-0.00022332977261517366
3845.79,-0.00023118647818774012
3846.69,-0.00023885477739400782
3847.59,-0.0002420010488587118
3848.49,-0.00024511859220840147
3849.39,-0.0002464582566926486
3850.29,-0.0002486346003742335
3851.19,-0.00025031727954710883
3852.09,-0.00025142438816545506
3852.99,-0.00025271449920482246
3853.89,-0.00025600340962674304
3854.79,-0.0002547501030079882
3855.69,-0.0002512970341503448
3856.59,-0.0002484480346245927
3857.49,-0.0002426122572148618
3858.39,-0.00023760564066249978
3859.29,-0.00023355026974374845
3860.19,-0.00023423339761901747
3861.09,-0.0002381193274536492
3861.99,-0.0002464188177078542
3862.9,-0.00025677062625802967
3863.8,-0.00026626878553939336
3864.7,-0.00027556541837707893
3865.6,-0.00027960459920053427
3866.5,-0.00028326400830207385
3867.4,-0.00028307683362552766
3868.3,-0.0002827821624057567
3869.2,-0.00028185492263582847
3870.1,-0.0002773241450750354
3871.0,-0.0002724031784409541
3871.9,-0.0002667364555727668
3872.8,-0.0002641592058396389
3873.7,-0.0002634630395134976
3874.6,-0.0002661017243718183
3875.5,-0.0002703457841524587
3876.4,-0.00027440848397530213
3877.3,-0.0002753775246977457
3878.2,-0.0002749997267640417
3879.1,-0.0002729733005128599
3880.0,-0.00027292952049106186
3880.9,-0.00027425117027795925
3881.8,-0.00027651904229356256
3882.7,-0.00027754047068869825
3883.6,-0.0002764158463888417
3884.5,-0.00027318007777393273
3885.4,-0.0002664555918445986
3886.3,-0.0002592446343322896
3887.2,-0.00024976100223558393
3888.1,-0.0002431659375626829
3889.0,-0.0002414949361503343
3889.9,-0.0002429128201483696
3890.8,-0.00025242672121183243
3891.7,-0.0002660824799182406
3892.6,-0.0002798326635351006
3893.5,-0.000292341391955491
3894.4,-0.0003021456733388654
3895.3,-0.00031114791709857016
3896.2,-0.0003172740692145384
3897.1,-0.0003240097628722244
3898.0,-0.0003308148664478565
3898.9,-0.0003346258870954509
3899.8,-0.0003382729731841975
3900.7,-0.00034209296473359553
3901.6,-0.00034558567240210316
3902.51,-0.00034585355219600347
3903.41,-0.00034537925026071736
3904.31,-0.0003460562899410447
3905.21,-0.0003450422359270665
3906.11,-0.00034642991028911653
3907.01,-0.0003506369726264379
3907.91,-0.00035995610028301484
3908.81,-0.0003699229615630672
3909.71,-0.00038256318084578967
3910.61,-0.00039604579656164323
3911.51,-0.00040366725213871905
3912.41,-0.00041054671335160253
3913.31,-0.0004141947028168659
3914.21,-0.0004168469060003318
3915.11,-0.00041606810770865603
3916.01,-0.0004094538457320606
3916.91,-0.00040641742998821225
3917.81,-0.00040172195371868276
3918.71,-0.0003969582557920388
3919.61,-0.00039013361694890535
3920.51,-0.00038298779424344054
3921.41,-0.0003782874661673643
3922.31,-0.0003743719197007656
3923.21,-0.0003734116170427183
3924.11,-0.0003697231880357626
3925.01,-0.0003664952488977486
3925.91,-0.00035625499806769026
3926.81,-0.00034212926121989515
3927.71,-0.00032072899440862516
3928.61,-0.00029367845445286457
3929.51,-0.00026462453657500717
3930.41,-0.00023294508805023353
3931.31,-0.00020308233057592752
3932.21,-0.00017642584414245352
3933.11,-0.00015477478869185902
3934.01,-0.00014301535019423448
3934.91,-0.00014148946376630334
3935.81,-0.00015192970330879976
3936.71,-0.00017257770137879596
3937.61,-0.00020241365200434732
3938.51,-0.0002372330277280239
3939.42,-0.0002731823402523166
3940.32,-0.00030782466373509016
3941.22,-0.0003351401759535666
3942.12,-0.00035917460406256784
3943.02,-0.0003771921334378938
3943.92,-0.0003936339758625319
3944.82,-0.0004067281138399522
3945.72,-0.000425414835360874
3946.62,-0.0004413068379968047
3947.52,-0.0004566431233262144
3948.42,-0.0004724277996468807
3949.32,-0.00048311560262209404
3950.22,-0.0004943085425402761
3951.12,-0.0005050362673194454
3952.02,-0.0005130102552164724
3952.92,-0.0005196506894768796
3953.82,-0.0005257582047362566
3954.72,-0.0005268803505001805
3955.62,-0.0005307097463235538
3956.52,-0.0005300722409584005
3957.42,-0.0005304020759451098
3958.32,-0.0005243446297767337
3959.22,-0.0005168351962601596
3960.12,-0.000509899404338934
3961.02,-0.0004933748414292657
3961.92,-0.0004664813702412655
3962.82,-0.00043787381914228707
3963.72,-0.0004067607985870846
3964.62,-0.0003738345920669322
3965.52,-0.00033668775180246876
3966.42,-0.0002982976756175551
3967.32,-0.0002623045313213119
3968.22,-0.00023197117293449366
3969.12,-0.0002133092980314498
3970.02,-0.00021148974456938643
3970.92,-0.0002253476174036302
3971.82,-0.0002533435895851809
3972.72,-0.00029446755010302354
3973.62,-0.00033979279595464416
3974.52,-0.00038730487405365843
3975.42,-0.00043672644988280583
3976.32,-0.0004831314423693481
3977.22,-0.0005269265075373694
3978.13,-0.0005628071703297855
3979.03,-0.0005968821821074327
3979.93,-0.0006245788006365602
3980.83,-0.0006483478238657784
3981.73,-0.000660682194794059
3982.63,-0.0006734290265661626
3983.53,-0.0006832003510093003
3984.43,-0.0006903960541627871
3985.33,-0.0007027989646388848
3986.23,-0.0007106276982577787
3987.13,-0.0007281879272382991
3988.03,-0.0007401675468687647
3988.93,-0.0007519476453498608
3989.83,-0.0007640354941074996
3990.73,-0.0007758835485220853
3991.63,-0.0007870784124316134
3992.53,-0.0007969723726769996
3993.43,-0.0008022737845426139
3994.33,-0.0008076530320144914
3995.23,-0.0008066099438174242
3996.13,-0.0008054101225245139
3997.03,-0.0007991600078900596
3997.93,-0.0008038468737082631
3998.83,-0.000810282218254538
3999.73,-0.0008225041060430984
4000.63,-0.0008412169231343671
4001.53,-0.000855608792854853
4002.43,-0.000869276404192664
4003.33,-0.0008719310814902357
4004.23,-0.0008760892902063274
4005.13,-0.0008637005513175497
4006.03,-0.000866071223142846
4006.93,-0.0008648859325972967
4007.83,-0.0008767206120982873
4008.73,-0.0008877149187623593
4009.63,-0.0009086016909290159
4010.53,-0.0009315537351420624
4011.43,-0.000945205463644946
4012.33,-0.000958271037384615
4013.23,-0.0009659343192703804
4014.13,-0.0009767990528743622
4015.03,-0.00098413202258542
4015.93,-0.000986582787309941
4016.84,-0.000997586575061212
4017.74,-0.001006613778417396
4018.64,-0.0010150028542902562
4019.54,-0.001029536561992312
4020.44,-0.0010346469500274369
4021.34,-0.0010388224768724894
4022.24,-0.0010489298491020136
4023.14,-0.0010487586448872086
4024.04,-0.0010616574000247535
4024.94,-0.001069031474693114
4025.84,-0.001076653393953082
4026.74,-0.0010886353335150176
4027.64,-0.0011028037195128667
4028.54,-0.001109229818943612
4029.44,-0.0011071726277370492
4030.34,-0.0010893492019613843
4031.24,-0.001076331648523953
4032.14,-0.0010594696549590789
4033.04,-0.0010525995970306385
4033.94,-0.0010573350409548458
4034.84,-0.0010761927024868015
4035.74,-0.0011049126386383356
4036.64,-0.0011409161216328228
4037.54,-0.001180155644011153
4038.44,-0.0012064393555074485
4039.34,-0.001229727685520491
4040.24,-0.0012433045254761695
4041.14,-0.0012451101828742446
4042.04,-0.0012412192977532804
4042.94,-0.0012165384878050347
4043.84,-0.0011953259601338588
4044.74,-0.0011747610929242099
4045.64,-0.0011579936736211022
4046.54,-0.0011504177198619291
4047.44,-0.0011614184644649715
4048.34,-0.00119541632744355
4049.24,-0.001233108171684131
4050.14,-0.0012773527677013023
4051.04,-0.0013071490136205494
4051.94,-0.001326865820221389
4052.84,-0.0013365832291543985
4053.74,-0.0013341648368603175
4054.65,-0.0013303484326617986
4055.55,-0.0013273901528088323
4056.45,-0.0013288126852016736
4057.35,-0.0013282789051364287
4058.25,-0.0013385722743246146
4059.15,-0.0013528518174244107
4060.05,-0.001363410573642178
4060.95,-0.0013669589926260679
4061.85,-0.001370376660984388
4062.75,-0.001361765367987062
4063.65,-0.0013514658465135097
4064.55,-0.0013425547227084622
4065.45,-0.0013497636657534549
4066.35,-0.0013599782953528574
4067.25,-0.0013936110705726774
4068.15,-0.0014185847375998615
4069.05,-0.0014496319171665797
4069.95,-0.0014705317834185002
4070.85,-0.0014866656476992734
4071.75,-0.0014900131370141937
4072.65,-0.0014923319422539543
4073.55,-0.0014941446964012413
4074.45,-0.0014974279306290217
4075.35,-0.001487307876347058
4076.25,-0.0014755234074859706
4077.15,-0.0014669394185990523
4078.05,-0.0014709978828188514
4078.95,-0.00148016118361415
4079.85,-0.0015051144399207178
4080.75,-0.0015461914287917588
4081.65,-0.0015891625121715234
4082.55,-0.0016287343584451574
4083.45,-0.0016579193840541141
4084.35,-0.0016740486850745175
4085.25,-0.0017012216311020254
4086.15,-0.001718872255589145
4087.05,-0.00175787549852152
4087.95,-0.001795913190771402
4088.85,-0.0018451561982066216
4089.75,-0.0018627325856438281
4090.65,-0.0018817249542437675
4091.55,-0.0018988705973561717
4092.45,-0.001903394187655491
4093.36,-0.001883328086740178
4094.26,-0.001883474501545867
4095.16,-0.0018688636344513232
4096.06,-0.0018343041640708217
4096.96,-0.001801782431854175
4097.86,-0.001765167808559417
4098.76,-0.0017267001571666897
4099.66,-0.0016682891592186895
4100.56,-0.0016115666344486137
4101.46,-0.0015709941311174808
4102.36,-0.0015513725216157927
4103.26,-0.0015613372591583986
4104.16,-0.0016000627203130349
4105.06,-0.0016785631661855585
4105.96,-0.0017595412047417933
4106.86,-0.0018371951622448833
4107.76,-0.0019034123088186874
4108.66,-0.0019646719702403424
4109.56,-0.0020029330875076983
4110.46,-0.0020349170398104056
4111.36,-0.0020602055222434168
4112.26,-0.002101594305410036
4113.16,-0.0021401410679575653
4114.06,-0.002181317604843303
4114.96,-0.002209003333777792
4115.86,-0.00225014514851366
4116.76,-0.002272499137821443
4117.66,-0.0022763208192008114
4118.56,-0.0022868146180176933
4119.46,-0.002276947386350777
4120.36,-0.002288871910142478
4121.26,-0.0022910078196858898
4122.16,-0.0023018970788525757
4123.06,-0.002332448810165211
4123.96,-0.0023512298881157006
4124.86,-0.0023878251795483646
4125.76,-0.002416380749697682
4126.66,-0.0024258834751044803
4127.56,-0.0024364626489534456
4128.46,-0.002445816665532693
4129.36,-0.0024418854738715487
4130.26,-0.0024295185501213676
4131.17,-0.0024319661556772916
4132.06,-0.0024217308059941186
4132.97,-0.0024151418493066133
4133.87,-0.0024296887708359573
4134.77,-0.0024676169101378364
4135.67,-0.0025101524612841665
4136.57,-0.002578538928743276
4137.47,-0.002644990416137719
4138.37,-0.0027008445090429814
4139.27,-0.0027487424604744214
4140.17,-0.002778123720862238
4141.07,-0.002774468868756075
4141.97,-0.0027499164553537745
4142.87,-0.0027073281313076143
4143.77,-0.0026864181663569186
4144.67,-0.0026738911708363983
4145.57,-0.002707754264372544
4146.47,-0.0027619135197670544
4147.37,-0.0028185019630228747
4148.27,-0.002863590873436383
4149.17,-0.0029122496714695835
4150.07,-0.0029474471193068675
4150.97,-0.002965545535847278
4151.87,-0.002964600746699914
4152.77,-0.002983461795827973
4153.67,-0.0029888737688731205
4154.57,-0.0029957984314819297
4155.47,-0.003008783044789401
4156.37,-0.0030294394754882235
4157.27,-0.003076274859112817
4158.17,-0.003131153575237038
4159.07,-0.0031894662027511984
4159.97,-0.003242180866057663
4160.87,-0.0033202997114108596
4161.77,-0.0033644438911983217
4162.67,-0.0033992221221737966
4163.57,-0.0034458973574093784
4164.47,-0.0034795019716916207
4165.37,-0.0035036248277002698
4166.27,-0.003500118737870166
4167.17,-0.0035095888742384318
4168.07,-0.003492090432592999
4168.98,-0.0034884565530457915
4169.88,-0.0034877296542641673
4170.78,-0.003468319602849874
4171.68,-0.0034462792348067465
4172.58,-0.0034170857920377534
4173.48,-0.003391124800965503
4174.38,-0.003396161251877141
4175.28,-0.003411815918596626
4176.18,-0.0034534376996525704
4177.08,-0.0035117159760679945
4177.98,-0.003593017133769014
4178.88,-0.0036422308825279585
4179.78,-0.0037041759223223206
4180.68,-0.0037685691170886606
4181.58,-0.003810792890789073
4182.48,-0.003856345431899871
4183.38,-0.0038944621397764578
4184.28,-0.003923079173751333
4185.18,-0.003957622902717318
4186.08,-0.003984701127296529
4186.98,-0.003981567469218915
4187.88,-0.004003021780624548
4188.78,-0.004038643803772142
4189.68,-0.004112247842204083
4190.58,-0.00414021960116932
4191.48,-0.004212666404866105
4192.38,-0.004264581883301862
4193.28,-0.004340426870465122
4194.18,-0.004370996111435252
4195.08,-0.004406899109286566
4195.98,-0.004368799247408382
4196.88,-0.004358123669496491
4197.78,-0.004311169009651997
4198.68,-0.004281269999318087
4199.58,-0.004280222166994361
4200.48,-0.004297483346372353
4201.38,-0.004304823712001135
4202.28,-0.004368674974434767
4203.18,-0.004443660930305864
4204.08,-0.004499217824850726
4204.98,-0.004600111152615116
4205.88,-0.004701379358068639
4206.79,-0.004812248891761224
4207.69,-0.004907997610754237
4208.59,-0.004989523876146219
4209.49,-0.005076199215751492
4210.39,-0.00514260647296803
4211.29,-0.0051849507232452794
4212.19,-0.005237600905146055
4213.09,-0.005250668857378743
4213.99,-0.005263644974911915
4214.89,-0.0052535143943565465
4215.79,-0.005241533901479552
4216.69,-0.005251979372553214
4217.59,-0.005305088135112641
4218.49,-0.005384909587128836
4219.39,-0.005465526346146517
4220.29,-0.005594165193385854
4221.19,-0.00562845846719784
4222.09,-0.005651651834578389
4222.99,-0.005584115872349526
4223.89,-0.005481702579745323
4224.79,-0.005329176422145886
4225.69,-0.005149741196583904
4226.59,-0.005020289671892937
4227.49,-0.00500715245136151
4228.39,-0.00510873699061456
4229.29,-0.0052926115810215755
4230.19,-0.005517109390644817
4231.09,-0.005764588881127575
4231.99,-0.005941774208714794
4232.89,-0.0060713962370503105
4233.79,-0.006175650368323793
4234.69,-0.006189666084411045
4235.59,-0.006174179328360094
4236.49,-0.006203968406349322
4237.39,-0.006223275959955966
4238.29,-0.00628841909615828
4239.19,-0.006367080967558491
4240.09,-0.0064676272780783105
4240.99,-0.006610849003742104
4241.89,-0.006743916942644338
4242.79,-0.006883301684280622
4243.69,-0.006976340174557994
4244.59,-0.007072362832840296
4245.5,-0.007120199107712466
4246.4,-0.007132383885782668
4247.3,-0.007087470669979781
4248.2,-0.007089035490593053
4249.1,-0.007051381921235965
4250.0,-0.007025529485699965
4250.9,-0.007072282246617618
4251.8,-0.007136420731928032
4252.7,-0.007247238723906659
4253.6,-0.007376554501009427
4254.5,-0.007477022277855679
4255.4,-0.00754784552426329
4256.3,-0.0076439425043855576
4257.2,-0.00773109133109961
4258.1,-0.007778957899093035
4259.0,-0.00778439920511662
4259.9,-0.007808547626370738
4260.8,-0.007866306256284407
4261.7,-0.007979839788509899
4262.6,-0.008128132038997562
4263.5,-0.0083171570922513
4264.4,-0.00851014224852697
4265.3,-0.008690264777713516
4266.2,-0.00887010902446953
4267.1,-0.008922100198393948
4268.0,-0.00890988482734348
4268.9,-0.008840075229640086
4269.8,-0.00870879118713335
4270.7,-0.008575256153869176
4271.6,-0.008454313863832918
4272.5,-0.008324222672045075
4273.4,-0.008298375852869196
4274.3,-0.008389745537124627
4275.2,-0.008550425656976932
4276.1,-0.008795436083106598
4277.0,-0.009095655552706354
4277.9,-0.009385365639266074
4278.8,-0.009585850808183497
4279.7,-0.009784284132569447
4280.6,-0.009817051648978796
4281.5,-0.009850152412870855
4282.4,-0.00993912142407066
4283.31,-0.009977109843895798
