wave,flux
3700.85,-3.896770636580557e-05
3701.75,-3.806975673978117e-05
3702.65,-3.642687230860716e-05
3703.55,-3.374601325689099e-05
3704.45,-3.087760533763068e-05
3705.35,-2.809549978793819e-05
3706.25,-2.59197151651911e-05
3707.15,-2.467890347591216e-05
3708.05,-2.458993707835889e-05
3708.96,-2.5526303378411157e-05
3709.86,-2.7559422762692175e-05
3710.76,-3.057654215431353e-05
3711.66,-3.421311816542889e-05
3712.56,-3.759964785685906e-05
3713.46,-4.0318193023826736e-05
3714.36,-4.216602786321032e-05
3715.26,-4.18696758376553e-05
3716.16,-4.009869925176939e-05
3717.06,-3.726208832124654e-05
3717.96,-3.337363214814224e-05
3718.86,-2.926980507136746e-05
3719.76,-2.553561297984442e-05
3720.66,-2.266922179537048e-05
3721.56,-2.1292125763012447e-05
3722.46,-2.170672929742376e-05
3723.36,-2.3448655830709086e-05
3724.26,-2.61106739981914e-05
3725.16,-2.8758848098352117e-05
3726.06,-3.073905901687784e-05
3726.96,-3.1761475601237385e-05
3727.86,-3.201580388140416e-05
3728.76,-3.2091858051692586e-05
3729.66,-3.146487610476389e-05
3730.56,-3.062966642971899e-05
3731.46,-2.9047186547149417e-05
3732.36,-2.6856603981944548e-05
3733.26,-2.3901774899965602e-05
3734.16,-2.1138884130988005e-05
3735.06,-1.897388481535851e-05
3735.96,-1.790657367762736e-05
3736.86,-1.8182200141901478e-05
3737.76,-1.987796037328587e-05
3738.66,-2.2553266147206137e-05
3739.56,-2.5798631302215005e-05
3740.46,-2.853196430998784e-05
3741.36,-3.0322054314421642e-05
3742.26,-3.079600358126345e-05
3743.16,-2.9535667266495673e-05
3744.06,-2.7467830712801197e-05
3744.96,-2.5045493693408347e-05
3745.86,-2.2727606139223833e-05
3746.76,-2.1205452481373216e-05
3747.67,-2.00904101609346e-05
3748.57,-2.0054909453936674e-05
3749.47,-2.0852741569442165e-05
3750.37,-2.2923199576961176e-05
3751.27,-2.626800408948253e-05
3752.17,-3.0234115544365565e-05
3753.07,-3.447896635432828e-05
3753.97,-3.80181379496638e-05
3754.87,-4.0495722121798485e-05
3755.77,-4.1154181736356005e-05
3756.67,-4.030954453097798e-05
3757.57,-3.802399042159478e-05
3758.47,-3.544547747290397e-05
3759.37,-3.356670057708917e-05
3760.27,-3.2740435834859706e-05
3761.17,-3.281344898781327e-05
3762.07,-3.347246882810976e-05
3762.97,-3.390197601408654e-05
3763.87,-3.451411771052506e-05
3764.77,-3.46932023087406e-05
3765.67,-3.4989119821187084e-05
3766.57,-3.576458381229301e-05
3767.47,-3.706391576096842e-05
3768.37,-3.923223550566186e-05
3769.27,-4.183285759634389e-05
3770.17,-4.4960564405568224e-05
3771.07,-4.8155045841517975e-05
3771.97,-5.083964367048494e-05
3772.87,-5.281212341072287e-05
3773.77,-5.3975146650572414e-05
3774.67,-5.465845810779651e-05
3775.57,-5.481305167560178e-05
3776.47,-5.507879116489915e-05
3777.37,-5.513715007468262e-05
3778.27,-5.558117835990403e-05
3779.17,-5.6647793248057885e-05
3780.07,-5.795355655701529e-05
3780.97,-5.919926052791129e-05
3781.87,-6.049538357399398e-05
3782.77,-6.063813134437197e-05
3783.67,-6.07924954818354e-05
3784.57,-5.895686839041686e-05
3785.47,-5.646497147598578e-05
3786.38,-5.3106990805935536e-05
3787.28,-4.953580272905691e-05
3788.18,-4.633333848524442e-05
3789.08,-4.4248713321568724e-05
3789.98,-4.3285070489004136e-05
3790.88,-4.339720444418819e-05
3791.78,-4.4094617639917796e-05
3792.68,-4.469327399744082e-05
3793.58,-4.453730046591103e-05
3794.48,-4.401810627418945e-05
3795.38,-4.298119285270011e-05
3796.28,-4.190870914982509e-05
3797.18,-4.136994076565726e-05
3798.08,-4.098958627392325e-05
3798.98,-4.140471036543499e-05
3799.88,-4.280158238984575e-05
3800.78,-4.526001622183458e-05
3801.68,-4.8711864490172287e-05
3802.58,-5.222085591694747e-05
3803.48,-5.5308191296748597e-05
3804.38,-5.770858595545875e-05
3805.28,-5.8599049448211414e-05
3806.18,-5.821918063457823e-05
3807.08,-5.772079069166974e-05
3807.98,-5.728065431971096e-05
3808.88,-5.7571305188181416e-05
3809.78,-5.7657734897869034e-05
3810.68,-5.8366501326210515e-05
3811.58,-5.811059072026575e-05
3812.48,-5.615019363539982e-05
3813.38,-5.3012934229352936e-05
3814.28,-4.9302374893080104e-05
3815.18,-4.58813145096794e-05
3816.08,-4.307214869058341e-05
3816.98,-4.09592200783112e-05
3817.88,-3.9729660068611245e-05
3818.78,-3.866917087113732e-05
3819.68,-3.7734035247052e-05
3820.58,-3.63966408055708e-05
3821.48,-3.5592573300803105e-05
3822.38,-3.49590901373475e-05
3823.28,-3.438550094578728e-05
3824.18,-3.3821275663241617e-05
3825.09,-3.284822762916318e-05
3825.99,-3.172741622706179e-05
3826.89,-3.111208626361489e-05
3827.79,-3.112931386175101e-05
3828.69,-3.1677924772847914e-05
3829.59,-3.258968312355982e-05
3830.49,-3.33805274458757e-05
3831.39,-3.401565983106425e-05
3832.29,-3.417114233203751e-05
3833.19,-3.404330603082359e-05
3834.09,-3.441023433789047e-05
3834.99,-3.4959416246421366e-05
3835.89,-3.594715230737439e-05
3836.79,-3.682555890963143e-05
3837.69,-3.695645275834582e-05
3838.59,-3.677797411781199e-05
3839.49,-3.6821104290601524e-05
3840.39,-3.785048599300093e-05
3841.29,-3.957779936653159e-05
3842.19,-4.32346571466535e-05
3843.09,-4.714651005306759e-05
3843.99,-5.12778216685233e-05
3844.89,-5.4891381003527976e-05
3845.79,-5.706090437217617e-05
3846.69,-5.85276452486671e-05
3847.59,-5.888388941307859e-05
3848.49,-5.8664913982335575e-05
3849.39,-5.8155740601813445e-05
3850.29,-5.7029124317714786e-05
3851.19,-5.682163116960424e-05
3852.09,-5.6912193215997414e-05
3852.99,-5.661496867815604e-05
3853.89,-5.6164580037188215e-05
3854.79,-5.507112603291167e-05
3855.69,-5.335730753910851e-05
3856.59,-5.088890802417858e-05
3857.49,-4.855629829152249e-05
3858.39,-4.643255657303029e-05
3859.29,-4.509369142076776e-05
3860.19,-4.499294000435335e-05
3861.09,-4.685531789009214e-05
3861.99,-5.031387359753096e-05
3862.9,-5.4481276476005246e-05
3863.8,-5.844663735842214e-05
3864.7,-6.122648321769178e-05
3865.6,-6.29026175584588e-05
3866.5,-6.321874383378637e-05
3867.4,-6.253447833842148e-05
3868.3,-6.139719969419813e-05
3869.2,-5.981137633476785e-05
3870.1,-5.800713492847119e-05
3871.0,-5.654286102293788e-05
3871.9,-5.6356698016971426e-05
3872.8,-5.7632866941598926e-05
3873.7,-6.048437833209469e-05
3874.6,-6.414639179522531e-05
3875.5,-6.76662301965659e-05
3876.4,-6.965837181821763e-05
3877.3,-6.964961625644424e-05
3878.2,-6.85213122797564e-05
3879.1,-6.67368553443355e-05
3880.0,-6.543104901580624e-05
3880.9,-6.556026857887155e-05
3881.8,-6.634935272489847e-05
3882.7,-6.779914850375895e-05
3883.6,-6.972873299125384e-05
3884.5,-7.123806790352118e-05
3885.4,-7.192775669566559e-05
3886.3,-7.23841746929615e-05
3887.2,-7.282468129966997e-05
3888.1,-7.416757036996943e-05
3889.0,-7.819075983308268e-05
3889.9,-8.458212605936871e-05
3890.8,-9.176514948099398e-05
3891.7,-9.943224103055391e-05
3892.6,-0.00010517028171666514
3893.5,-0.00011026341601479673
3894.4,-0.00011170604858464856
3895.3,-0.00011207021550744375
3896.2,-0.0001114092736394131
3897.1,-0.0001108509648772683
3898.0,-0.0001103825085982708
3898.9,-0.00010945390443041657
3899.8,-0.00011013424120570031
3900.7,-0.00010942242642101506
3901.6,-0.0001094045164741108
3902.51,-0.00010881641280785971
3903.41,-0.00010770345894310801
3904.31,-0.00010680635539839278
3905.21,-0.00010653793619236313
3906.11,-0.00010768570211694338
3907.01,-0.00011107438722205149
3907.91,-0.00011669999542835803
3908.81,-0.00012323903999064163
3909.71,-0.00013044448548340756
3910.61,-0.00013704388914828776
3911.51,-0.0001424778150155148
3912.41,-0.0001467151641108482
3913.31,-0.00014918276028913794
3914.21,-0.00015039005255670858
3915.11,-0.0001492640975509656
3916.01,-0.00014807715342855134
3916.91,-0.00014463965649889955
3917.81,-0.00013969640837707816
3918.71,-0.00013405754712440365
3919.61,-0.00012735937808816907
3920.51,-0.00012098817136525754
3921.41,-0.00011512498392142115
3922.31,-0.00011149743104451306
3923.21,-0.00011000101525542363
3924.11,-0.00010908236889388587
3925.01,-0.00010846117436784215
3925.91,-0.00010663716524006302
3926.81,-0.00010224048607278498
3927.71,-9.536025769846232e-05
3928.61,-8.728037143003173e-05
3929.51,-7.800496569578699e-05
3930.41,-6.936661725144124e-05
3931.31,-6.122424493336983e-05
3932.21,-5.474283234581969e-05
3933.11,-5.007560108124777e-05
3934.01,-4.7952618777433193e-05
3934.91,-4.858192918155793e-05
3935.81,-5.226285274048388e-05
3936.71,-5.879713533698991e-05
3937.61,-6.774454615929106e-05
3938.51,-7.749811549090493e-05
3939.42,-8.758724185360232e-05
3940.32,-9.662245656357693e-05
3941.22,-0.00010332196965748402
3942.12,-0.00010851524306958761
3943.02,-0.00011169101597778214
3943.92,-0.00011535232820057611
3944.82,-0.00012128287567128004
3945.72,-0.0001283107527878408
3946.62,-0.00013754684534073348
3947.52,-0.00014781509914786207
3948.42,-0.0001580167598169806
3949.32,-0.0001665629392870223
3950.22,-0.0001752803450338259
3951.12,-0.00018255660922042316
3952.02,-0.00018713503514688142
3952.92,-0.0001909849587091302
3953.82,-0.00019344889406658298
3954.72,-0.00019533253265429658
3955.62,-0.00019487738243267273
3956.52,-0.00019334207945932778
3957.42,-0.00019040070984779236
3958.32,-0.00018574142539668
3959.22,-0.0001789077518659525
3960.12,-0.00016999296418183953
3961.02,-0.00015898113479574446
3961.92,-0.00014632955961337205
3962.82,-0.00013287020568056982
3963.72,-0.00012213950785070656
3964.62,-0.00011197225695412324
3965.52,-0.00010253266311223964
3966.42,-9.33333052397367e-05
3967.32,-8.522662485074133e-05
3968.22,-7.842727117103886e-05
3969.12,-7.557162550033317e-05
3970.02,-7.67111972110498e-05
3970.92,-8.315035175807727e-05
3971.82,-9.373402167349688e-05
3972.72,-0.00010816605869471546
3973.62,-0.00012486079023678431
3974.52,-0.0001431757523644973
3975.42,-0.00016169898718672922
3976.32,-0.00018069173783794823
3977.22,-0.0001988470494226955
3978.13,-0.00021586947319092846
3979.03,-0.00023244247675460625
3979.93,-0.00024773673045664133
3980.83,-0.0002575177075263719
3981.73,-0.00026594453611884485
3982.63,-0.0002707549074169912
3983.53,-0.00027436946024481383
3984.43,-0.00027873328445533616
3985.33,-0.0002828459781893005
3986.23,-0.00028905962841547573
3987.13,-0.00029552602013046495
3988.03,-0.0003021952707402673
3988.93,-0.0003087328083396679
3989.83,-0.0003145321616964185
3990.73,-0.0003180770851944804
3991.63,-0.00032443971238362745
3992.53,-0.00032619346045178354
3993.43,-0.0003296126953862371
3994.33,-0.0003323395677535023
3995.23,-0.00033440021693289363
3996.13,-0.0003337504797667221
3997.03,-0.000332855090503694
3997.93,-0.0003333134790167756
3998.83,-0.00034229466622366785
3999.73,-0.00035005591514917437
4000.63,-0.00036155631150421844
4001.53,-0.0003706827773029127
4002.43,-0.00037629499649580736
4003.33,-0.0003781721176263727
4004.23,-0.00037282816514988505
4005.13,-0.0003671188453226327
4006.03,-0.00036006400292455817
4006.93,-0.00035807617082418426
4007.83,-0.0003624421530654292
4008.73,-0.0003706982842508417
4009.63,-0.0003835154679528912
4010.53,-0.0003969078565780202
4011.43,-0.00040788596405016216
4012.33,-0.0004185037806020483
4013.23,-0.00042725290544225224
4014.13,-0.00043623275650201863
4015.03,-0.0004407356463681172
4015.93,-0.0004425926180100651
4016.84,-0.0004493579563086018
4017.74,-0.0004528141060399036
4018.64,-0.00045925194723267965
4019.54,-0.00046345249670285115
4020.44,-0.00046649336469505866
4021.34,-0.0004712113784477739
4022.24,-0.0004689390392281814
4023.14,-0.0004709350274761993
4024.04,-0.0004732702944071923
4024.94,-0.00047506671138087864
4025.84,-0.0004792276695119161
4026.74,-0.0004806859465952248
4027.64,-0.0004871426181467235
4028.54,-0.0004864193950327869
4029.44,-0.00047666572987252
4030.34,-0.00046013110027400846
4031.24,-0.00043688012916139426
4032.14,-0.0004176964667039576
4033.04,-0.0004038755166962854
4033.94,-0.0003980257530900519
4034.84,-0.00040696229549570833
4035.74,-0.00042785601132922554
4036.64,-0.0004558592272435576
4037.54,-0.0004879883667629469
4038.44,-0.0005150791987180417
4039.34,-0.0005338650562635492
4040.24,-0.0005446020188529972
4041.14,-0.0005452144239304661
4042.04,-0.0005369098995457826
4042.94,-0.0005162022205586786
4043.84,-0.0004901846536712898
4044.74,-0.000464571066857836
4045.64,-0.0004388853238841601
4046.54,-0.00042847395145659663
4047.44,-0.0004327071928496485
4048.34,-0.0004547220589053824
4049.24,-0.0004871208522352079
4050.14,-0.0005231620784306187
4051.04,-0.0005532469140963632
4051.94,-0.0005740921137549718
4052.84,-0.0005822381189963966
4053.74,-0.0005801798616639577
4054.65,-0.000572935552721287
4055.55,-0.0005600233569264648
4056.45,-0.0005508578481287637
4057.35,-0.0005414521165529548
4058.25,-0.0005364975909870727
4059.15,-0.0005378931842040616
4060.05,-0.000538345032741842
4060.95,-0.0005361983243572076
4061.85,-0.000531174337666158
4062.75,-0.0005203778976730372
4063.65,-0.0005100443579330331
4064.55,-0.0005035184803587275
4065.45,-0.0005058254812803926
4066.35,-0.000520057446380191
4067.25,-0.000542455923838642
4068.15,-0.0005659225882191638
4069.05,-0.0005855910240793079
4069.95,-0.0005948242954748604
4070.85,-0.0006007623536106922
4071.75,-0.0006038497272703937
4072.65,-0.000600343127028715
4073.55,-0.0006035840262834381
4074.45,-0.000608279156010249
4075.35,-0.0006134305178845554
4076.25,-0.0006142239319564719
4077.15,-0.0006203551378262629
4078.05,-0.000621548843103773
4078.95,-0.0006394687245191556
4079.85,-0.0006633639096525247
4080.75,-0.0006927526980199504
4081.65,-0.0007208610461246657
4082.55,-0.0007488453070970736
4083.45,-0.0007701109262212728
4084.35,-0.0007792355544679574
4085.25,-0.0007896364294702844
4086.15,-0.00080398696750781
4087.05,-0.0008275433715626784
4087.95,-0.0008536744484078975
4088.85,-0.0008751054148686211
4089.75,-0.0008908702764718694
4090.65,-0.0009009144320848955
4091.55,-0.0009027388632614206
4092.45,-0.0008985552701335972
4093.36,-0.0008826497545523443
4094.26,-0.0008661481899106643
4095.16,-0.0008495630201313464
4096.06,-0.0008291854167769058
4096.96,-0.0008088072948890995
4097.86,-0.0007887172548394792
4098.76,-0.0007735159687319917
4099.66,-0.0007590535990150781
4100.56,-0.0007444345948174382
4101.46,-0.000743875689024518
4102.36,-0.0007431203179276611
4103.26,-0.0007587572985927873
4104.16,-0.0007815805400186632
4105.06,-0.0008148525164094221
4105.96,-0.0008497697077456378
4106.86,-0.0008817555862319845
4107.76,-0.0009012144160320682
4108.66,-0.0009206340728914799
4109.56,-0.0009259883261449116
4110.46,-0.0009273349924778518
4111.36,-0.0009260536515026395
4112.26,-0.0009336996308232219
4113.16,-0.0009483760709402658
4114.06,-0.0009625036898562746
4114.96,-0.0009815769289553673
4115.86,-0.0009952236179330365
4116.76,-0.0010088530361735207
4117.66,-0.0010108342683524925
4118.56,-0.0010073439849432081
4119.46,-0.0010047609704368465
4120.36,-0.0010024050630577216
4121.26,-0.0010026117004862903
4122.16,-0.0010080586214993642
4123.06,-0.0010237608498461354
4123.96,-0.001035423263804337
4124.86,-0.001050959051393581
4125.76,-0.0010622162594497242
4126.66,-0.0010695366089231528
4127.56,-0.0010682212743817413
4128.46,-0.0010581063070613937
4129.36,-0.0010486070798117885
4130.26,-0.001028254833238841
4131.17,-0.0010078732494430344
4132.06,-0.0009871442252866347
4132.97,-0.0009753652683661341
4133.87,-0.0009773163367611775
4134.77,-0.0009985105308708772
4135.67,-0.0010327590007496873
4136.57,-0.0010698361802758962
4137.47,-0.0011170812474783597
4138.37,-0.001152179400639557
4139.27,-0.0011712639425747544
4140.17,-0.001180617924089006
4141.07,-0.0011617604435183245
4141.97,-0.0011341533041499075
4142.87,-0.0010915638945442768
4143.77,-0.001059681321557752
4144.67,-0.0010471182203755905
4145.57,-0.0010451464573792073
4146.47,-0.0010759672798018713
4147.37,-0.0011091570992618491
4148.27,-0.001138749530635854
4149.17,-0.001165055566759531
4150.07,-0.0011744717030698782
4150.97,-0.0011771410694175106
4151.87,-0.0011749286458160087
4152.77,-0.0011769734946608667
4153.67,-0.0011763227194981404
4154.57,-0.0011787070973526214
4155.47,-0.0011895552724796282
4156.37,-0.0012008352296217315
4157.27,-0.001229266584731783
4158.17,-0.0012646934348500083
4159.07,-0.001300817803551293
4159.97,-0.0013554873514684586
4160.87,-0.0013945050434345928
4161.77,-0.0014366073682942526
4162.67,-0.0014672533003489178
4163.57,-0.0014890718789477867
4164.47,-0.0014926297494635156
4165.37,-0.001484269970816818
4166.27,-0.0014730983606618716
4167.17,-0.0014672465083347638
4168.07,-0.0014594099637135459
4168.98,-0.0014430351130483537
4169.88,-0.001448439045326423
4170.78,-0.0014410804298773292
4171.68,-0.0014282575684128425
4172.58,-0.0014082341667398814
4173.48,-0.0013992256763774406
4174.38,-0.0013826599411087394
4175.28,-0.0013843142435839267
4176.18,-0.001393446838354569
4177.08,-0.0014140677330505165
4177.98,-0.001441394261805545
4178.88,-0.0014729741106811137
4179.78,-0.0014983283548427931
4180.68,-0.001522482984536689
4181.58,-0.001544168902570754
4182.48,-0.0015734459937502632
4183.38,-0.0016028542360180026
4184.28,-0.0016285410346665548
4185.18,-0.0016530433468701158
4186.08,-0.001665847234813698
4186.98,-0.0016829242320127568
4187.88,-0.001689426271436915
4188.78,-0.001700515021439935
4189.68,-0.0017246323289215777
4190.58,-0.0017557766435765656
4191.48,-0.001788821439522747
4192.38,-0.0018238364212206275
4193.28,-0.0018513057898927896
4194.18,-0.0018616270610352474
4195.08,-0.001844343599971936
4195.98,-0.001811643957691954
4196.88,-0.0017735206502511275
4197.78,-0.0017298166460565465
4198.68,-0.001702838158635437
4199.58,-0.001684160810491297
4200.48,-0.0016891125359198098
4201.38,-0.0017176203039495437
4202.28,-0.001750823712837359
4203.18,-0.0018165744210971073
4204.08,-0.0018812118204742983
4204.98,-0.001968781601205745
4205.88,-0.002058738357982109
4206.79,-0.0021488196344875534
4207.69,-0.0022157802972558823
4208.59,-0.002268025316981912
4209.49,-0.0023086864759010346
4210.39,-0.002316406969029252
4211.29,-0.0023167766143441784
4212.19,-0.0023106433293411744
4213.09,-0.002296800991304299
4213.99,-0.0022787873940614467
4214.89,-0.0022588602426317946
4215.79,-0.0022619472865742386
4216.69,-0.002287698089559384
4217.59,-0.002347879092109763
4218.49,-0.0024403203973407156
4219.39,-0.0025213451057849736
4220.29,-0.0025790241366918376
4221.19,-0.002603675273900056
4222.09,-0.0025727788879612292
4222.99,-0.002478338644348365
4223.89,-0.002336896695933241
4224.79,-0.002181465950165786
4225.69,-0.0020014526566109253
4226.59,-0.0018683177781361284
4227.49,-0.0018163916077807358
4228.39,-0.001867454463738095
4229.29,-0.0019883257819472253
4230.19,-0.0021705278617389296
4231.09,-0.0023568290687202686
4231.99,-0.0025321432342120427
4232.89,-0.0026276898852443157
4233.79,-0.002694133039349633
4234.69,-0.0027232282056481785
4235.59,-0.002721772672264315
4236.49,-0.002728807978518548
4237.39,-0.0027427788427158125
4238.29,-0.0028066735941128834
4239.19,-0.002868965653741255
4240.09,-0.002957076109585574
4240.99,-0.0030735586904821594
4241.89,-0.0031988390925042666
4242.79,-0.0033270583528736057
4243.69,-0.0034503021205997547
4244.59,-0.0035518830562253855
4245.5,-0.003594626525404843
4246.4,-0.003603191251404926
4247.3,-0.0035675513667658364
4248.2,-0.003462112519227863
4249.1,-0.003362918935281185
4250.0,-0.0032474602488607404
4250.9,-0.00314953085071994
4251.8,-0.0031138364978456606
4252.7,-0.003089686745779886
4253.6,-0.0031347110309240226
4254.5,-0.003165763303692464
4255.4,-0.0032464093988821864
4256.3,-0.0033075441520137036
4257.2,-0.003388531506098534
4258.1,-0.003442108575760689
4259.0,-0.003493958080721258
4259.9,-0.0035129617078378693
4260.8,-0.003529829088815131
4261.7,-0.0035879051701231852
4262.6,-0.0037304784331798203
4263.5,-0.003926978769687408
4264.4,-0.004105458109976297
4265.3,-0.004272746169170208
4266.2,-0.00439558085350688
4267.1,-0.004437162849569218
4268.0,-0.0043556993962343546
4268.9,-0.00421546825389279
4269.8,-0.00400757819286978
4270.7,-0.003765713055233853
4271.6,-0.003545388815578362
4272.5,-0.003381864845012935
4273.4,-0.0033011570432892445
4274.3,-0.003331499780452314
4275.2,-0.003453484889735118
4276.1,-0.003663615391120581
4277.0,-0.003926695249007411
4277.9,-0.004212269038186776
4278.8,-0.004426345470165318
4279.7,-0.004596701193029769
4280.6,-0.004705513262193003
4281.5,-0.0047638508852242915
