wave,flux
3700.85,-4.051060733257131e-07
3701.75,-4.006732177382039e-07
3702.65,-3.8713170919022116e-07
3703.55,-3.6976138835631595e-07
3704.45,-3.502374092548869e-07
3705.35,-3.3411211351660524e-07
3706.25,-3.2207699837954837e-07
3707.15,-3.169795429622352e-07
3708.05,-3.1954061064033076e-07
3708.96,-3.2509399662734717e-07
3709.86,-3.3345116795274616e-07
3710.76,-3.437828445853138e-07
3711.66,-3.5904087817405534e-07
3712.56,-3.7763223268204985e-07
3713.46,-3.918614689528034e-07
3714.36,-4.062183805841957e-07
3715.26,-4.170731585799653e-07
3716.16,-4.1889034893537584e-07
3717.06,-4.149570677728312e-07
3717.96,-4.003756344903462e-07
3718.86,-3.7729465254397043e-07
3719.76,-3.5351762094584876e-07
3720.66,-3.2883292829293295e-07
3721.56,-3.1094261731198666e-07
3722.46,-3.0714796776874675e-07
3723.36,-3.1604297865006837e-07
3724.26,-3.3346554892187173e-07
3725.16,-3.5499171095175654e-07
3726.06,-3.7283787629805837e-07
3726.96,-3.825607986732291e-07
3727.86,-3.886496545864809e-07
3728.76,-3.891563301685382e-07
3729.66,-3.872047489281239e-07
3730.56,-3.7939542754943925e-07
3731.46,-3.659695404769018e-07
3732.36,-3.461399463764298e-07
3733.26,-3.217497633080223e-07
3734.16,-2.9763127239137905e-07
3735.06,-2.810490389765339e-07
3735.96,-2.735062232131882e-07
3736.86,-2.784848247690773e-07
3737.76,-2.962415325861851e-07
3738.66,-3.212692354642367e-07
3739.56,-3.486622576165238e-07
3740.46,-3.7238643084995255e-07
3741.36,-3.9028054690891214e-07
3742.26,-3.9300899119955746e-07
3743.16,-3.8921655872786515e-07
3744.06,-3.761942946295967e-07
3744.96,-3.5904095569026053e-07
3745.86,-3.4085075081476364e-07
3746.76,-3.2383343207385864e-07
3747.67,-3.061310388071811e-07
3748.57,-2.931873712763134e-07
3749.47,-2.861083034600763e-07
3750.37,-2.8869210502766683e-07
3751.27,-3.0378366042457667e-07
3752.17,-3.289963002681227e-07
3753.07,-3.607245768093299e-07
3753.97,-3.910304365488802e-07
3754.87,-4.1496582704283643e-07
3755.77,-4.2799769700356604e-07
3756.67,-4.266844899569022e-07
3757.57,-4.1926053962072677e-07
3758.47,-4.071912015789452e-07
3759.37,-3.925066019516921e-07
3760.27,-3.8938430481059434e-07
3761.17,-3.9133896832317263e-07
3762.07,-3.9697973079205836e-07
3762.97,-4.0557182453088197e-07
3763.87,-4.0817981829349233e-07
3764.77,-4.10946609677821e-07
3765.67,-4.1281589600126997e-07
3766.57,-4.0803354133167456e-07
3767.47,-4.0136042780375735e-07
3768.37,-3.9160984005334545e-07
3769.27,-3.864086093545207e-07
3770.17,-3.850866886030379e-07
3771.07,-3.8640452303756423e-07
3771.97,-3.955777723641638e-07
3772.87,-4.0893485860363707e-07
3773.77,-4.245784463414716e-07
3774.67,-4.4089557061609016e-07
3775.57,-4.5305499977331834e-07
3776.47,-4.661579173673464e-07
3777.37,-4.771277370123536e-07
3778.27,-4.858704394537153e-07
3779.17,-4.977196785064511e-07
3780.07,-5.122173840716033e-07
3780.97,-5.208554307939165e-07
3781.87,-5.304699658415582e-07
3782.77,-5.338515415155014e-07
3783.67,-5.344495876556087e-07
3784.57,-5.296351015451431e-07
3785.47,-5.174138228360592e-07
3786.38,-5.011795845457267e-07
3787.28,-4.845151777538066e-07
3788.18,-4.6967136858429697e-07
3789.08,-4.569355344292618e-07
3789.98,-4.4816133738335164e-07
3790.88,-4.44524426061292e-07
3791.78,-4.3971541478355747e-07
3792.68,-4.330950338400306e-07
3793.58,-4.2446269846368783e-07
3794.48,-4.130509633145662e-07
3795.38,-3.937685289520692e-07
3796.28,-3.786954523536357e-07
3797.18,-3.648293812431497e-07
3798.08,-3.550173945432955e-07
3798.98,-3.5523270250147907e-07
3799.88,-3.674691493894953e-07
3800.78,-3.8850569698309337e-07
3801.68,-4.1635581820121615e-07
3802.58,-4.477727607264047e-07
3803.48,-4.73411535119844e-07
3804.38,-4.954551624659357e-07
3805.28,-5.054086958992209e-07
3806.18,-5.133559991490077e-07
3807.08,-5.164680249996074e-07
3807.98,-5.19190822356334e-07
3808.88,-5.245137618441988e-07
3809.78,-5.274495325046356e-07
3810.68,-5.355562465786174e-07
3811.58,-5.348042841418926e-07
3812.48,-5.251989438509678e-07
3813.38,-5.117652216015497e-07
3814.28,-4.922764234072423e-07
3815.18,-4.771554931468805e-07
3816.08,-4.681089036053731e-07
3816.98,-4.6390170157189044e-07
3817.88,-4.6610010077521886e-07
3818.78,-4.6366808017697567e-07
3819.68,-4.613577827517867e-07
3820.58,-4.5499936307550997e-07
3821.48,-4.5080476476209207e-07
3822.38,-4.4485823802153723e-07
3823.28,-4.3891572315543903e-07
3824.18,-4.309191324966411e-07
3825.09,-4.220442063298859e-07
3825.99,-4.084456336553027e-07
3826.89,-3.9741502105797434e-07
3827.79,-3.889429378747702e-07
3828.69,-3.827426367682498e-07
3829.59,-3.781374036760919e-07
3830.49,-3.7168684034583173e-07
3831.39,-3.635143373839875e-07
3832.29,-3.5021553450321536e-07
3833.19,-3.3385478484880577e-07
3834.09,-3.204894403801061e-07
3834.99,-3.101300579289124e-07
3835.89,-3.065373154815196e-07
3836.79,-3.073627541313673e-07
3837.69,-3.129585044339191e-07
3838.59,-3.2219922148997536e-07
3839.49,-3.3584746883984244e-07
3840.39,-3.572591429672611e-07
3841.29,-3.8103158016399064e-07
3842.19,-4.0754921563999076e-07
3843.09,-4.360118181785958e-07
3843.99,-4.6342824980430274e-07
3844.89,-4.843771155770375e-07
3845.79,-5.032012199464354e-07
3846.69,-5.179063130843771e-07
3847.59,-5.257879047789097e-07
3848.49,-5.293443369900447e-07
3849.39,-5.318262422308899e-07
3850.29,-5.339902249208131e-07
3851.19,-5.370722566451702e-07
3852.09,-5.402562151070283e-07
3852.99,-5.419781340801482e-07
3853.89,-5.426912371129228e-07
3854.79,-5.419521595568501e-07
3855.69,-5.339550412197972e-07
3856.59,-5.231784976603899e-07
3857.49,-5.109368186982061e-07
3858.39,-5.021431334193229e-07
3859.29,-4.95213183006899e-07
3860.19,-4.935043296628261e-07
3861.09,-5.011223655494369e-07
3861.99,-5.153978799595276e-07
3862.9,-5.348733155262068e-07
3863.8,-5.461836230689979e-07
3864.7,-5.585466617193415e-07
3865.6,-5.679903583855944e-07
3866.5,-5.661939573856932e-07
3867.4,-5.654424368198179e-07
3868.3,-5.608154564917467e-07
3869.2,-5.550662569320827e-07
3870.1,-5.439770299043196e-07
3871.0,-5.345993258134997e-07
3871.9,-5.250424418354499e-07
3872.8,-5.161476177606611e-07
3873.7,-5.150127449222988e-07
3874.6,-5.164846134083901e-07
3875.5,-5.248359125657383e-07
3876.4,-5.279740451691702e-07
3877.3,-5.264122240805846e-07
3878.2,-5.220265956123279e-07
3879.1,-5.167022137582388e-07
3880.0,-5.109496165636036e-07
3880.9,-5.089819407657886e-07
3881.8,-5.0696941728425e-07
3882.7,-5.036226895136956e-07
3883.6,-4.970307141909627e-07
3884.5,-4.864463766787809e-07
3885.4,-4.719749357817547e-07
3886.3,-4.515898730613278e-07
3887.2,-4.337496746574652e-07
3888.1,-4.193024257334869e-07
3889.0,-4.1152010047864256e-07
3889.9,-4.1461122252528173e-07
3890.8,-4.298975003662011e-07
3891.7,-4.528061740133816e-07
3892.6,-4.749850854071568e-07
3893.5,-4.983830034829919e-07
3894.4,-5.179083003837495e-07
3895.3,-5.311070325114882e-07
3896.2,-5.433674414973757e-07
3897.1,-5.542010069756295e-07
3898.0,-5.633799832881944e-07
3898.9,-5.685277929972409e-07
3899.8,-5.762838191806101e-07
3900.7,-5.830218454021188e-07
3901.6,-5.852610509029988e-07
3902.51,-5.853139523126713e-07
3903.41,-5.827699277732479e-07
3904.31,-5.784233453154195e-07
3905.21,-5.762519281708235e-07
3906.11,-5.779613069983113e-07
3907.01,-5.865554867080825e-07
3907.91,-5.955795968578773e-07
3908.81,-6.127746366478948e-07
3909.71,-6.326408827506451e-07
3910.61,-6.476973888947847e-07
3911.51,-6.581741034830691e-07
3912.41,-6.66344207859846e-07
3913.31,-6.693287889139905e-07
3914.21,-6.66778418181081e-07
3915.11,-6.617784452145406e-07
3916.01,-6.555014823283603e-07
3916.91,-6.453283714805697e-07
3917.81,-6.365844874897632e-07
3918.71,-6.244492951095206e-07
3919.61,-6.1174289776604e-07
3920.51,-6.048017484392337e-07
3921.41,-5.937935153329457e-07
3922.31,-5.842839551659125e-07
3923.21,-5.818864266231365e-07
3924.11,-5.747686960777485e-07
3925.01,-5.653049963965365e-07
3925.91,-5.498958509199996e-07
3926.81,-5.252609569681925e-07
3927.71,-4.904830647635537e-07
3928.61,-4.514692168202427e-07
3929.51,-4.0343540568855475e-07
3930.41,-3.5777879627892937e-07
3931.31,-3.1061615346618807e-07
3932.21,-2.700107701345321e-07
3933.11,-2.376614354458417e-07
3934.01,-2.1971174232110378e-07
3934.91,-2.1655373557112193e-07
3935.81,-2.3156033331760308e-07
3936.71,-2.5949212796955016e-07
3937.61,-3.0131287107614077e-07
3938.51,-3.4748370003635054e-07
3939.42,-3.983889692476948e-07
3940.32,-4.410840346198625e-07
3941.22,-4.773870239223177e-07
3942.12,-5.034120560571857e-07
3943.02,-5.275440393267823e-07
3943.92,-5.459471041910145e-07
3944.82,-5.617233121300636e-07
3945.72,-5.813319358813987e-07
3946.62,-5.990009910624154e-07
3947.52,-6.163661195752764e-07
3948.42,-6.313702858401624e-07
3949.32,-6.450449018543994e-07
3950.22,-6.55541200075402e-07
3951.12,-6.620657424896276e-07
3952.02,-6.696055559502869e-07
3952.92,-6.761613044535297e-07
3953.82,-6.778493722509598e-07
3954.72,-6.79540731541337e-07
3955.62,-6.775863428211219e-07
3956.52,-6.741606862674502e-07
3957.42,-6.665862213739046e-07
3958.32,-6.596067011538935e-07
3959.22,-6.485036880767884e-07
3960.12,-6.332622496886063e-07
3961.02,-6.060540319171266e-07
3961.92,-5.739312969141049e-07
3962.82,-5.376926242818664e-07
3963.72,-4.972348242158213e-07
3964.62,-4.5367062967148173e-07
3965.52,-4.080296205821972e-07
3966.42,-3.612798770992723e-07
3967.32,-3.1610333171030546e-07
3968.22,-2.810397330270799e-07
3969.12,-2.5888508109765454e-07
3970.02,-2.5342907516524797e-07
3970.92,-2.674536979932899e-07
3971.82,-2.9750146727085174e-07
3972.72,-3.3862231050108363e-07
3973.62,-3.902520196739756e-07
3974.52,-4.396757259662265e-07
3975.42,-4.8991464041406e-07
3976.32,-5.354445635755075e-07
3977.22,-5.81107024509643e-07
3978.13,-6.248612681592962e-07
3979.03,-6.585884814119681e-07
3979.93,-6.870913257679074e-07
3980.83,-7.067338826446192e-07
3981.73,-7.247033703813215e-07
3982.63,-7.307061270531898e-07
3983.53,-7.394677938330817e-07
3984.43,-7.458648680267441e-07
3985.33,-7.501843351026518e-07
3986.23,-7.629611865668141e-07
3987.13,-7.747651688009384e-07
3988.03,-7.814612263725187e-07
3988.93,-7.94434556408278e-07
3989.83,-8.011004444269046e-07
3990.73,-8.102787596427859e-07
3991.63,-8.184234004841643e-07
3992.53,-8.302843513067353e-07
3993.43,-8.294120304672927e-07
3994.33,-8.326113646673977e-07
3995.23,-8.25606638838045e-07
3996.13,-8.173145509410107e-07
3997.03,-8.13553055539682e-07
3997.93,-8.135753674125761e-07
3998.83,-8.173258857173148e-07
3999.73,-8.313348268347005e-07
4000.63,-8.420567465012546e-07
4001.53,-8.533618346935885e-07
4002.43,-8.638323739361962e-07
4003.33,-8.650757439434293e-07
4004.23,-8.52998134075463e-07
4005.13,-8.450482321557245e-07
4006.03,-8.342242739368856e-07
4006.93,-8.279862459713147e-07
4007.83,-8.324238768477658e-07
4008.73,-8.456514048503804e-07
4009.63,-8.577821332236771e-07
4010.53,-8.729538877937301e-07
4011.43,-8.828838415669352e-07
4012.33,-8.956916576631988e-07
4013.23,-9.012311799025999e-07
4014.13,-9.053406183094788e-07
4015.03,-9.095774538956408e-07
4015.93,-9.073277905441142e-07
4016.84,-9.137477806514523e-07
4017.74,-9.181499434983587e-07
4018.64,-9.168747829541346e-07
4019.54,-9.216229542296111e-07
4020.44,-9.26834914541779e-07
4021.34,-9.279745853375428e-07
4022.24,-9.285659563098675e-07
4023.14,-9.27026841098441e-07
4024.04,-9.294141047803549e-07
4024.94,-9.315901179759482e-07
4025.84,-9.341788810129641e-07
4026.74,-9.401894013668127e-07
4027.64,-9.46261777414405e-07
4028.54,-9.434479807185355e-07
4029.44,-9.336953508553177e-07
4030.34,-9.132547143277338e-07
4031.24,-8.925446615273925e-07
4032.14,-8.746425472383321e-07
4033.04,-8.602626201273313e-07
4033.94,-8.646772813099486e-07
4034.84,-8.691747790709708e-07
4035.74,-8.943137824110617e-07
4036.64,-9.200015810664372e-07
4037.54,-9.440912922019724e-07
4038.44,-9.663324131904102e-07
4039.34,-9.779300959311535e-07
4040.24,-9.841387588309764e-07
4041.14,-9.80742132022454e-07
4042.04,-9.690313240091173e-07
4042.94,-9.445228662488527e-07
4043.84,-9.224402646249124e-07
4044.74,-8.99857948916987e-07
4045.64,-8.79391455093705e-07
4046.54,-8.67328159723053e-07
4047.44,-8.780559847855413e-07
4048.34,-8.990448981505485e-07
4049.24,-9.260401548827492e-07
4050.14,-9.490018159213971e-07
4051.04,-9.668699994129645e-07
4051.94,-9.718299122085112e-07
4052.84,-9.697436363748317e-07
4053.74,-9.629319585267308e-07
4054.65,-9.5226539764647e-07
4055.55,-9.377531902958674e-07
4056.45,-9.309980112197116e-07
4057.35,-9.249776874834813e-07
4058.25,-9.27634217982329e-07
4059.15,-9.28937819707117e-07
4060.05,-9.314524766854731e-07
4060.95,-9.321565469206184e-07
4061.85,-9.265741385174076e-07
4062.75,-9.225693768310437e-07
4063.65,-9.094158098209665e-07
4064.55,-8.99877852904248e-07
4065.45,-8.985619726488774e-07
4066.35,-9.070233257156018e-07
4067.25,-9.197019867019749e-07
4068.15,-9.342449619345458e-07
4069.05,-9.452272730080749e-07
4069.95,-9.592487728770712e-07
4070.85,-9.593964284228471e-07
4071.75,-9.578026393225892e-07
4072.65,-9.511547095923048e-07
4073.55,-9.46747193935929e-07
4074.45,-9.405803505175621e-07
4075.35,-9.323903549153678e-07
4076.25,-9.213454134963596e-07
4077.15,-9.070995961162086e-07
4078.05,-9.031457887764638e-07
4078.95,-9.075318555986377e-07
4079.85,-9.131703081487675e-07
4080.75,-9.352024111584409e-07
4081.65,-9.604804711689254e-07
4082.55,-9.76518438501582e-07
4083.45,-9.870538864039054e-07
4084.35,-9.897738101455926e-07
4085.25,-9.958377187044304e-07
4086.15,-1.0028034471663728e-06
4087.05,-1.014047285353201e-06
4087.95,-1.0309204360998594e-06
4088.85,-1.0404951669422853e-06
4089.75,-1.0561289751790294e-06
4090.65,-1.0578207778765405e-06
4091.55,-1.057173822059933e-06
4092.45,-1.0490158894143926e-06
4093.36,-1.0370259425604288e-06
4094.26,-1.0173837250522007e-06
4095.16,-9.983255413425404e-07
4096.06,-9.75379085932646e-07
4096.96,-9.485032735002447e-07
4097.86,-9.191963561899958e-07
4098.76,-8.823996997157861e-07
4099.66,-8.465738012625906e-07
4100.56,-8.114560263956563e-07
4101.46,-7.865995675828659e-07
4102.36,-7.727911715688083e-07
4103.26,-7.733086769650263e-07
4104.16,-7.932940085097904e-07
4105.06,-8.24857639218601e-07
4105.96,-8.647412491611271e-07
4106.86,-9.072777766679826e-07
4107.76,-9.351451394896585e-07
4108.66,-9.62461792077878e-07
4109.56,-9.7821736405407e-07
4110.46,-9.845022063735858e-07
4111.36,-9.984023980186126e-07
4112.26,-1.0111447452439132e-06
4113.16,-1.0228875172592888e-06
4114.06,-1.0388671039433492e-06
4114.96,-1.052004042393446e-06
4115.86,-1.0598921469818028e-06
4116.76,-1.0659182803129084e-06
4117.66,-1.0649177762850633e-06
4118.56,-1.0642959093431574e-06
4119.46,-1.0605523218874205e-06
4120.36,-1.0552091525685745e-06
4121.26,-1.0519629958938857e-06
4122.16,-1.052744148230464e-06
4123.06,-1.0523710802218544e-06
4123.96,-1.05893358929384e-06
4124.86,-1.0644914168424049e-06
4125.76,-1.0699239539910532e-06
4126.66,-1.069012622601384e-06
4127.56,-1.0694811557955857e-06
4128.46,-1.0651286632638782e-06
4129.36,-1.05496587799655e-06
4130.26,-1.0454148137706882e-06
4131.17,-1.0351852742097518e-06
4132.06,-1.0294661203538772e-06
4132.97,-1.0216689747615068e-06
4133.87,-1.0220440241200281e-06
4134.77,-1.0354728847218232e-06
4135.67,-1.0506138482499298e-06
4136.57,-1.0741711921197166e-06
4137.47,-1.0975344827106958e-06
4138.37,-1.1176685721126529e-06
4139.27,-1.1264311315173e-06
4140.17,-1.1234688839257837e-06
4141.07,-1.1210052973382226e-06
4141.97,-1.1044711295772705e-06
4142.87,-1.08274746823927e-06
4143.77,-1.0692054712912761e-06
4144.67,-1.0549189355415476e-06
4145.57,-1.053991269195567e-06
4146.47,-1.0743739964775315e-06
4147.37,-1.084392736590269e-06
4148.27,-1.0938088007249011e-06
4149.17,-1.1019637122790716e-06
4150.07,-1.1078243106981882e-06
4150.97,-1.0995412363082341e-06
4151.87,-1.0957888511753414e-06
4152.77,-1.09211148074035e-06
4153.67,-1.0895142764870408e-06
4154.57,-1.083689399340624e-06
4155.47,-1.080553858950187e-06
4156.37,-1.0870059743143456e-06
4157.27,-1.0971668390706455e-06
4158.17,-1.1011112000785844e-06
4159.07,-1.1197031188400112e-06
4159.97,-1.1331559200644833e-06
4160.87,-1.1502092305803006e-06
4161.77,-1.1585921461423895e-06
4162.67,-1.1720256538772125e-06
4163.57,-1.1832791947121604e-06
4164.47,-1.182373888685067e-06
4165.37,-1.176239575273755e-06
4166.27,-1.1714909475703852e-06
4167.17,-1.165470192802931e-06
4168.07,-1.1582310474892757e-06
4168.98,-1.1501959892869654e-06
4169.88,-1.1392138056962562e-06
4170.78,-1.1199359764364159e-06
4171.68,-1.099929758367987e-06
4172.58,-1.0903698074246045e-06
4173.48,-1.070891452199168e-06
4174.38,-1.063868717718375e-06
4175.28,-1.0663298949147612e-06
4176.18,-1.0720567716717338e-06
4177.08,-1.0804386101991507e-06
4177.98,-1.0910101066811981e-06
4178.88,-1.1046724073751627e-06
4179.78,-1.1130944706250936e-06
4180.68,-1.1208207015213015e-06
4181.58,-1.1334644734786609e-06
4182.48,-1.1400673058986617e-06
4183.38,-1.1438104522836486e-06
4184.28,-1.1472018616477078e-06
4185.18,-1.1465168271052588e-06
4186.08,-1.150368403598676e-06
4186.98,-1.1528736854070217e-06
4187.88,-1.149596423314816e-06
4188.78,-1.1520437443753188e-06
4189.68,-1.154465623517659e-06
4190.58,-1.1649110573018256e-06
4191.48,-1.173927552392797e-06
4192.38,-1.1880928624551102e-06
4193.28,-1.197827737091363e-06
4194.18,-1.2042707834329912e-06
4195.08,-1.1946788055090908e-06
4195.98,-1.1839626302866785e-06
4196.88,-1.1639042300721108e-06
4197.78,-1.1449542146836748e-06
4198.68,-1.1311272929116522e-06
4199.58,-1.1173550485573444e-06
4200.48,-1.1104207735079763e-06
4201.38,-1.1158213710265959e-06
4202.28,-1.1204651556746118e-06
4203.18,-1.1290017331885745e-06
4204.08,-1.1409217251765264e-06
4204.98,-1.1621694090709957e-06
4205.88,-1.178366891428513e-06
4206.79,-1.2020862157188449e-06
4207.69,-1.2153353082645123e-06
4208.59,-1.2337718135325416e-06
4209.49,-1.2458183131819698e-06
4210.39,-1.2532867188106421e-06
4211.29,-1.2584348201841939e-06
4212.19,-1.2543553213386887e-06
4213.09,-1.247731942056299e-06
4213.99,-1.2438436175624873e-06
4214.89,-1.2381573897377112e-06
4215.79,-1.2252381990550714e-06
4216.69,-1.2192269030008811e-06
4217.59,-1.225624125265242e-06
4218.49,-1.2445097712736042e-06
4219.39,-1.2548010225604725e-06
4220.29,-1.2735177805338788e-06
4221.19,-1.2771980033840901e-06
4222.09,-1.2729387160896508e-06
4222.99,-1.2506270419631032e-06
4223.89,-1.2094941086260546e-06
4224.79,-1.1654551437838338e-06
4225.69,-1.1164619716533329e-06
4226.59,-1.0855688897610696e-06
4227.49,-1.0709641068320534e-06
4228.39,-1.080092480961033e-06
4229.29,-1.1147105950190406e-06
4230.19,-1.1567537527744251e-06
4231.09,-1.1992258463063778e-06
4231.99,-1.234291206038883e-06
4232.89,-1.2510179132771543e-06
4233.79,-1.2509119792719377e-06
4234.69,-1.2504493569089344e-06
4235.59,-1.2384248382206855e-06
4236.49,-1.2288242566895696e-06
4237.39,-1.224214558829609e-06
4238.29,-1.2312603039868494e-06
4239.19,-1.2350771175594908e-06
4240.09,-1.2441020975261141e-06
4240.99,-1.2671419312225887e-06
4241.89,-1.281279666274054e-06
4242.79,-1.2956484272378667e-06
4243.69,-1.3138427261612865e-06
4244.59,-1.3191614808442693e-06
4245.5,-1.3246754038698277e-06
4246.4,-1.3148329486326739e-06
4247.3,-1.300857665915142e-06
4248.2,-1.2825031531462897e-06
4249.1,-1.2673585689927844e-06
4250.0,-1.2531286502733827e-06
4250.9,-1.252230417853886e-06
4251.8,-1.254534680761065e-06
4252.7,-1.2616097986473706e-06
4253.6,-1.2682708807139777e-06
4254.5,-1.274549455765144e-06
4255.4,-1.2786494877095828e-06
4256.3,-1.2908443983175708e-06
4257.2,-1.2931738704204124e-06
4258.1,-1.2866665563886025e-06
4259.0,-1.2807082471994695e-06
4259.9,-1.2815898355858584e-06
4260.8,-1.2720886608001054e-06
4261.7,-1.2791623079322802e-06
4262.6,-1.2989470855885754e-06
4263.5,-1.3149823329540744e-06
4264.4,-1.342741928244994e-06
4265.3,-1.3700670909223287e-06
4266.2,-1.3810212582845216e-06
4267.1,-1.382266688198368e-06
4268.0,-1.367807501452752e-06
4268.9,-1.3433096065658797e-06
4269.8,-1.3095478654498226e-06
4270.7,-1.2738260867361165e-06
4271.6,-1.239505429872003e-06
4272.5,-1.2123158516154338e-06
4273.4,-1.2018387687439195e-06
4274.3,-1.1978574480855228e-06
4275.2,-1.2274563133211082e-06
4276.1,-1.2529528140880432e-06
4277.0,-1.2870896436302634e-06
