wave,flux
3700.85,-0.016397933324056382
3701.75,-0.01651362789547594
3702.65,-0.01613552106419328
3703.55,-0.015489228469895443
3704.45,-0.014807531116842899
3705.35,-0.014129314849579702
3706.25,-0.013632434914207956
3707.15,-0.013519363354588757
3708.05,-0.013750681155283672
3708.96,-0.0141765872115162
3709.86,-0.01493467088789171
3710.76,-0.015789066001785295
3711.66,-0.017081203745711787
3712.56,-0.018213561011753344
3713.46,-0.019433368263881912
3714.36,-0.02040937880116104
3715.26,-0.02110032699552422
3716.16,-0.02133504304873504
3717.06,-0.021067306660841466
3717.96,-0.02040167319834973
3718.86,-0.01937960216564439
3719.76,-0.018053288108257553
3720.66,-0.01696641185085363
3721.56,-0.01624517888307393
3722.46,-0.016356169315579067
3723.36,-0.01721407429505196
3724.26,-0.018588844808671484
3725.16,-0.020050070573125807
3726.06,-0.02146902095280663
3726.96,-0.022386978530258186
3727.86,-0.022847859521499696
3728.76,-0.023160166400937335
3729.66,-0.023345107810407766
3730.56,-0.02306984529140265
3731.46,-0.022584811331023358
3732.36,-0.021500856226305484
3733.26,-0.020174504553964252
3734.16,-0.01894413515555322
3735.06,-0.01800176844400461
3735.96,-0.017818170434984085
3736.86,-0.018475690108557197
3737.76,-0.019836246457548532
3738.66,-0.022043301427568246
3739.56,-0.024412316095560754
3740.46,-0.02655526859767208
3741.36,-0.028100365728508644
3742.26,-0.02885088580811529
3743.16,-0.028692642734574128
3744.06,-0.027996588236198286
3744.96,-0.026999938125767488
3745.86,-0.025903016431466246
3746.76,-0.024826473679997144
3747.67,-0.023887987238803053
3748.57,-0.02338692090838084
3749.47,-0.02332197882194122
3750.37,-0.02440587173229592
3751.27,-0.026652700175872995
3752.17,-0.029668721740184936
3753.07,-0.033101436287963394
3753.97,-0.03676261204947532
3754.87,-0.03951351436018318
3755.77,-0.04107270271228897
3756.67,-0.04151643818411708
3757.57,-0.040985990190546204
3758.47,-0.03976575069760473
3759.37,-0.039033841921570424
3760.27,-0.03885029936769948
3761.17,-0.03961788974820963
3762.07,-0.040877249455741546
3762.97,-0.04242549329930339
3763.87,-0.04366630107796436
3764.77,-0.04475278414217842
3765.67,-0.045448998064268484
3766.57,-0.0460277322213673
3767.47,-0.046308048909472384
3768.37,-0.04682355203445451
3769.27,-0.04758991397136345
3770.17,-0.048790169685977526
3771.07,-0.05080581416057714
3771.97,-0.05314577735677925
3772.87,-0.05608772520081844
3773.77,-0.05901830951018433
3774.67,-0.062224363815121975
3775.57,-0.06472454674960876
3776.47,-0.06740701156691542
3777.37,-0.06964011617154107
3778.27,-0.07224913825458903
3779.17,-0.07527282939547279
3780.07,-0.07825746174891295
3780.97,-0.08158392735311328
3781.87,-0.08410283694765235
3782.77,-0.08693405707251121
3783.67,-0.08853270088844066
3784.57,-0.08920134148495133
3785.47,-0.08786501935735637
3786.38,-0.08644023621622156
3787.28,-0.0842530984773487
3788.18,-0.08203526814097876
3789.08,-0.0810761021481434
3789.98,-0.08125412430790156
3790.88,-0.08225026530713853
3791.78,-0.08307348870929848
3792.68,-0.08429020690146086
3793.58,-0.08469365461181197
3794.48,-0.08354895404058556
3795.38,-0.0823467530462847
3796.28,-0.08125921650561996
3797.18,-0.08014476610648656
3798.08,-0.0803304992991993
3798.98,-0.08226906882325519
3799.88,-0.08683745245849359
3800.78,-0.0938590789314357
3801.68,-0.10265465789990628
3802.58,-0.1124190429664231
3803.48,-0.12141144283926897
3804.38,-0.12921615527994415
3805.28,-0.13485838104156742
3806.18,-0.13853118534966888
3807.08,-0.1427333255939425
3807.98,-0.14577680982862337
3808.88,-0.1501518111753417
3809.78,-0.15620644702252404
3810.68,-0.1602255710735066
3811.58,-0.16404872573847795
3812.48,-0.16425980717328353
3813.38,-0.16163365947725272
3814.28,-0.1588667968255843
3815.18,-0.15613632495109453
3816.08,-0.1549645025098513
3816.98,-0.1565232782563227
3817.88,-0.15996097837746082
3818.78,-0.16329140217799432
3819.68,-0.16583211291480943
3820.58,-0.16798777155196082
3821.48,-0.17044888633131872
3822.38,-0.17233017894308086
3823.28,-0.17523416501865108
3824.18,-0.17642079944061717
3825.09,-0.17675367694146346
3825.99,-0.17471692088195695
3826.89,-0.17424987254360616
3827.79,-0.17600529114908603
3828.69,-0.1791749214035148
3829.59,-0.18340571614892734
3830.49,-0.18772894142365767
3831.39,-0.1900384575734976
3832.29,-0.18985888808861978
3833.19,-0.18930990152263855
3834.09,-0.18841073185869966
3834.99,-0.19109283871278723
3835.89,-0.1960033369421561
3836.79,-0.20359059035020363
3837.69,-0.21426508852023324
3838.59,-0.226277696347329
3839.49,-0.2431924185921937
3840.39,-0.26329217069092675
3841.29,-0.2903160610117301
3842.19,-0.3242982073898334
3843.09,-0.3593713994295774
3843.99,-0.3955920357773369
3844.89,-0.4331664740259736
3845.79,-0.4659050224491871
3846.69,-0.4948099884824577
3847.59,-0.5252441067697444
3848.49,-0.5497511546499408
3849.39,-0.5791107950861035
3850.29,-0.6045140857359523
3851.19,-0.6345539116310245
3852.09,-0.6676779193629131
3852.99,-0.701096144558557
3853.89,-0.7341770900858268
3854.79,-0.7682410804278287
3855.69,-0.7942741157870578
3856.59,-0.8176178823350873
3857.49,-0.8448498483950682
3858.39,-0.8795683878614047
3859.29,-0.9179167544051369
3860.19,-0.975280289310016
3861.09,-1.0668432596400341
3861.99,-1.1888553438780771
3862.9,-1.3385551805517675
3863.8,-1.509150393038368
3864.7,-1.6884983502075785
3865.6,-1.8742547713753304
3866.5,-2.0692800885065483
3867.4,-2.3049763446885385
3868.3,-2.5721626712304593
3869.2,-2.8848201922928016
3870.1,-3.2993578131333163
3871.0,-3.8497134585312938
3871.9,-4.687035241276473
3872.8,-6.043430018500691
3873.7,-8.699262774217413
3874.6,-15.21337210510999
3875.5,-52.50467534104744
3876.4,40.15413809513159
3877.3,14.710850587247716
3878.2,9.014319228402945
3879.1,6.46427883272727
3880.0,5.0486289663838875
3880.9,4.147453208698824
3881.8,3.548253149437966
3882.7,3.1012628752026266
3883.6,2.738597273074607
3884.5,2.4399972919196715
3885.4,2.1694452729196056
3886.3,1.9471418580792823
3887.2,1.7383072233904804
3888.1,1.5847823704620756
3889.0,1.4881308124715822
3889.9,1.4359837634602088
3890.8,1.424906147395796
3891.7,1.435073282344227
3892.6,1.4489907948798304
3893.5,1.4531266507110179
3894.4,1.4405452126179987
3895.3,1.4189086235436534
3896.2,1.3895525385024483
3897.1,1.3613914455757556
3898.0,1.337564702326238
3898.9,1.3047651035805585
3899.8,1.2851420354709961
3900.7,1.2519483355259273
3901.6,1.225950235613011
3902.51,1.1936811935754903
3903.41,1.157631123947728
3904.31,1.1171045292478106
3905.21,1.084741817015632
3906.11,1.0575758789599885
3907.01,1.0545101526887832
3907.91,1.0628465303736359
3908.81,1.0814869593350624
3909.71,1.0935220904403806
3910.61,1.1141569049630689
3911.51,1.1194537952121502
3912.41,1.1162440853724651
3913.31,1.102182405864069
3914.21,1.0873116923581354
3915.11,1.0571909816240688
3916.01,1.0346085291073794
3916.91,1.004891380956441
3917.81,0.9683565532112557
3918.71,0.9394709427890345
3919.61,0.9045827683301663
3920.51,0.8714865098491388
3921.41,0.8434939497405247
3922.31,0.8198670782810807
3923.21,0.8079495262011919
3924.11,0.7936263422217644
3925.01,0.7707158826148888
3925.91,0.7394330792430779
3926.81,0.694693079730328
3927.71,0.6383762061567277
3928.61,0.5750148877875916
3929.51,0.5083430903437679
3930.41,0.43960447287071386
3931.31,0.37818950700806264
3932.21,0.32421279159886507
3933.11,0.28299837917285814
3934.01,0.26040355242798974
3934.91,0.25741620160197337
3935.81,0.2740370221045762
3936.71,0.3095594029929927
3937.61,0.35600168552054173
3938.51,0.41457878472007575
3939.42,0.4721165454168854
3940.32,0.5216824297245092
3941.22,0.5656267917290306
3942.12,0.5940427912355268
3943.02,0.6207921864503039
3943.92,0.6369717862506745
3944.82,0.6546504117406771
3945.72,0.6844502578470786
3946.62,0.7064838463750792
3947.52,0.7310283026326821
3948.42,0.7530870485623905
3949.32,0.7692091214070268
3950.22,0.7851901018109381
3951.12,0.7976955408511458
3952.02,0.8058403315013936
3952.92,0.8112857276185265
3953.82,0.8121752231749196
3954.72,0.8119966019209551
3955.62,0.8075360756899054
3956.52,0.8005521360996629
3957.42,0.7911431518821549
3958.32,0.7792553506267114
3959.22,0.7641469214665692
3960.12,0.7357916501328261
3961.02,0.7037448027211156
3961.92,0.658028559165318
3962.82,0.6067712720746209
3963.72,0.5563400421834251
3964.62,0.5053245874439716
3965.52,0.4517259820147079
3966.42,0.39900921917956356
3967.32,0.34896984692346367
3968.22,0.3119026446538426
3969.12,0.2868526909238982
3970.02,0.2849497568473495
3970.92,0.3031262846869823
3971.82,0.3378419260157956
3972.72,0.38673812531582674
3973.62,0.4450486319292148
3974.52,0.5037617770778452
3975.42,0.5596941328175575
3976.32,0.6143007852547853
3977.22,0.6686513095606937
3978.13,0.7125340193824262
3979.03,0.7560841861448315
3979.93,0.7925433725931345
3980.83,0.816747194754369
3981.73,0.836904592358258
3982.63,0.8440970745326732
3983.53,0.856278225519982
3984.43,0.8556370131388318
3985.33,0.8660682815905729
3986.23,0.873334196534207
3987.13,0.8852350538305243
3988.03,0.8997046103258115
3988.93,0.9103564114279409
3989.83,0.9198497939056267
3990.73,0.9310236817140427
3991.63,0.9401197538158705
3992.53,0.9433753771205544
3993.43,0.948070187338407
3994.33,0.95079706387981
3995.23,0.9437863296865734
3996.13,0.9335500135033276
3997.03,0.9284783073768447
3997.93,0.9282208274102992
3998.83,0.930228886001275
3999.73,0.949952166348191
4000.63,0.9644704486969398
4001.53,0.9819823442717683
4002.43,0.9870526550909701
4003.33,0.9861813049570558
4004.23,0.9760830435748128
4005.13,0.9585615751405628
4006.03,0.9431724671237448
4006.93,0.934360645642629
4007.83,0.937088090608191
4008.73,0.9554900782086607
4009.63,0.9685653020253707
4010.53,0.9862250584669299
4011.43,1.0027957998064552
4012.33,1.011486465049614
4013.23,1.0215898207449778
4014.13,1.0256243059751669
4015.03,1.0337330800494244
4015.93,1.0345045601641754
4016.84,1.0397762747265191
4017.74,1.0412631019114476
4018.64,1.0468582730730114
4019.54,1.047259433836611
4020.44,1.053602693325708
4021.34,1.0575115727292377
4022.24,1.0563364538522613
4023.14,1.0520851248396885
4024.04,1.047100942399625
4024.94,1.049149188999397
4025.84,1.0496255954779605
4026.74,1.056601332745957
4027.64,1.0653235524676308
4028.54,1.053719086722208
4029.44,1.036365526770609
4030.34,1.0122586182789177
4031.24,0.9772571097071777
4032.14,0.946508556623428
4033.04,0.9315593167115441
4033.94,0.9242366589352097
4034.84,0.9401482403973076
4035.74,0.9653151360073846
4036.64,0.9965687141098329
4037.54,1.0341864905428368
4038.44,1.0618881722572462
4039.34,1.0821159767635984
4040.24,1.0905615738094374
4041.14,1.0833996095964864
4042.04,1.0620395589415943
4042.94,1.0353837184781318
4043.84,1.0074307948634675
4044.74,0.9655353471590312
4045.64,0.9362285460406795
4046.54,0.9239485029829031
4047.44,0.9348040380232986
4048.34,0.9560323249173239
4049.24,0.9912800477650694
4050.14,1.024433594146279
4051.04,1.0460791128955693
4051.94,1.0529312742846995
4052.84,1.055096732295994
4053.74,1.0444336555264966
4054.65,1.0218504131559367
4055.55,1.0035948799853114
4056.45,0.9908851697114285
4057.35,0.9767353173798666
4058.25,0.9734507680138498
4059.15,0.9739236090301825
4060.05,0.9745387947677561
4060.95,0.9755993936897627
4061.85,0.9681407790684383
4062.75,0.9568132355711818
4063.65,0.943986346781318
4064.55,0.9319716189889407
4065.45,0.9326803880360737
4066.35,0.9374215023253832
4067.25,0.9613271115733585
4068.15,0.9785065556616663
4069.05,0.9936393271355161
4069.95,0.9979456860385513
4070.85,0.9994475246752969
4071.75,0.9990568422291418
4072.65,0.9917328661855422
4073.55,0.9871347333317539
4074.45,0.9776405062118098
4075.35,0.9697194715793407
4076.25,0.9564496296200962
4077.15,0.9442680442590788
4078.05,0.9333878704775121
4078.95,0.9388301209557454
4079.85,0.95700597864899
4080.75,0.9820257626913925
4081.65,1.011912745092363
4082.55,1.027984409057042
4083.45,1.041739174514916
4084.35,1.0440235442172645
4085.25,1.0492399911239685
4086.15,1.0565995671668165
4087.05,1.0652826484846065
4087.95,1.0817094375411076
4088.85,1.0972450274864045
4089.75,1.1145535382323464
4090.65,1.1075136817203313
4091.55,1.1119704399486448
4092.45,1.0963923008791971
4093.36,1.0849869012989397
4094.26,1.0581345778536986
4095.16,1.038183733368121
4096.06,1.0091413521742119
4096.96,0.9800206232487154
4097.86,0.9467731420096767
4098.76,0.9109732017497667
4099.66,0.8770315088264476
4100.56,0.8432870307578317
4101.46,0.8157742264596239
4102.36,0.8056792970685652
4103.26,0.8052981959044715
4104.16,0.8255656248321742
4105.06,0.8579349301804147
4105.96,0.8988101360023945
4106.86,0.9347497158937926
4107.76,0.9617534460649678
4108.66,0.9832013295151972
4109.56,0.9950651247944756
4110.46,1.0006630147428648
4111.36,1.0074897277727672
4112.26,1.0155740207017223
4113.16,1.0263579490231305
4114.06,1.0411008717774095
4114.96,1.0506077742421052
4115.86,1.0623006760511182
4116.76,1.062038808972988
4117.66,1.0624365934987743
4118.56,1.0532040333252615
4119.46,1.0397782576864925
4120.36,1.03742585621259
4121.26,1.0254526845572682
4122.16,1.0264635150215176
4123.06,1.0305903051265892
4123.96,1.033367299595345
4124.86,1.0389589791414249
4125.76,1.0335936040063003
4126.66,1.0324522324956815
4127.56,1.027394641614198
4128.46,1.021205548827656
4129.36,1.0090126870198304
4130.26,0.9936604267963799
4131.17,0.9811845701789991
4132.06,0.9700088818139351
4132.97,0.962060099252486
4133.87,0.9595549412321767
4134.77,0.9707226535105576
4135.67,0.9853776772433721
4136.57,1.0072467281368835
4137.47,1.0341164222815298
4138.37,1.0556089270230986
4139.27,1.0623391886438376
4140.17,1.0651656226963024
4141.07,1.0539927992618756
4141.97,1.03335792468069
4142.87,1.0039229991505905
4143.77,0.9858782404463341
4144.67,0.9730233211138716
4145.57,0.9699673233694454
4146.47,0.9775659676471643
4147.37,0.9906967458608484
4148.27,1.0013576942605056
4149.17,1.0067851505270065
4150.07,1.0054677854116054
4150.97,0.9947654853160512
4151.87,0.9933101266521008
4152.77,0.9863949624674172
4153.67,0.974259637031239
4154.57,0.9711301269246848
4155.47,0.9702608249600198
4156.37,0.9709697228886177
4157.27,0.9711485590412006
4158.17,0.9874706576830198
4159.07,0.9988674795016741
4159.97,1.0234628784213253
4160.87,1.0351255872526133
4161.77,1.0466705393517861
4162.67,1.0601134154974061
4163.57,1.065435093757745
4164.47,1.066522591022586
4165.37,1.0616290126896688
4166.27,1.0532748197426027
4167.17,1.045549554134268
4168.07,1.0330918357994476
4168.98,1.0212037039483999
4169.88,1.009175999123672
4170.78,0.9948164026239913
4171.68,0.9794581044955168
4172.58,0.9553156694539375
4173.48,0.9416605916936989
4174.38,0.9296103681866938
4175.28,0.9243435458671139
4176.18,0.9267157819427334
4177.08,0.9346541805327965
4177.98,0.9427137696965587
4178.88,0.9533199086364509
4179.78,0.9656735659061079
4180.68,0.9701909749266298
4181.58,0.9777877410130309
4182.48,0.9850034393843257
4183.38,0.9899740987674973
4184.28,0.9937948244534215
4185.18,0.9966139631316688
4186.08,0.99656803094134
4186.98,1.0005174530387941
4187.88,0.9937672356110129
4188.78,1.0010058095520977
4189.68,1.0036054985419138
4190.58,1.0121216467620622
4191.48,1.0238631537031981
4192.38,1.0311140173054503
4193.28,1.0351456258924994
4194.18,1.0367267474189015
4195.08,1.0254225692702583
4195.98,1.0111060340909697
4196.88,0.9916201283438408
4197.78,0.9662545206192081
4198.68,0.9499663205420411
4199.58,0.9398300662167262
4200.48,0.9330947612260024
4201.38,0.9351716148603996
4202.28,0.942187291608837
4203.18,0.9497674867457224
4204.08,0.9684357750870803
4204.98,0.9857761668334741
4205.88,1.0035037733610912
4206.79,1.0243678889483203
4207.69,1.044790780564697
4208.59,1.0517643890131796
4209.49,1.0601894230194708
4210.39,1.0653929608964243
4211.29,1.06557199322722
4212.19,1.069537171804288
4213.09,1.0575062073512767
4213.99,1.0473683098794244
4214.89,1.038650592482579
4215.79,1.0298733647698013
4216.69,1.027573224592301
4217.59,1.0328447333779205
4218.49,1.0530823395529367
4219.39,1.0700392480359848
4220.29,1.0840691689632442
4221.19,1.0844345581646113
4222.09,1.0804514732023087
4222.99,1.0510868844830548
4223.89,1.0104790548568292
4224.79,0.9592173331364883
4225.69,0.9125374366020647
4226.59,0.8781020388498187
4227.49,0.8591371982557909
4228.39,0.8689592468362332
4229.29,0.9011494332571172
4230.19,0.9474554879315075
4231.09,0.9870454256866651
4231.99,1.0187060814721112
4232.89,1.0358076439238044
4233.79,1.042195675367667
4234.69,1.0308556484808378
4235.59,1.0209342218501876
4236.49,1.0102098605266665
4237.39,1.0061129455698727
4238.29,1.0051207433818965
4239.19,1.0141294337187343
4240.09,1.024201217615091
4240.99,1.040041645291533
4241.89,1.0622715641059872
4242.79,1.0754128574175497
4243.69,1.091597798583498
4244.59,1.0998780251766058
4245.5,1.1068506604878712
4246.4,1.1015974719698438
4247.3,1.0853607777446466
4248.2,1.0612182471591947
4249.1,1.0447074905108458
4250.0,1.0235474003910905
4250.9,1.0101079414185643
4251.8,1.0100105684386687
4252.7,1.0041381710799453
4253.6,1.0169906003617961
4254.5,1.0211680737556035
4255.4,1.0275590885653856
4256.3,1.031843601563284
4257.2,1.031832947640732
4258.1,1.0307519204801947
4259.0,1.0202015159419795
4259.9,1.012307805846486
4260.8,1.0101474139612887
4261.7,1.0215228801018106
4262.6,1.0320333095930823
4263.5,1.060537533082185
4264.4,1.0850688204386767
4265.3,1.1123654996406842
4266.2,1.1191393969963803
4267.1,1.1160057814051474
4268.0,1.0992462998297305
4268.9,1.07193824779898
4269.8,1.035623233687532
4270.7,0.9929338248303997
4271.6,0.9537944314062269
4272.5,0.9277980307020802
4273.4,0.9164719143130978
4274.3,0.917359889648433
4275.2,0.9321069538957895
4276.1,0.9591698338933281
4277.0,0.9933804290270489
4277.9,1.0243251609659463
4278.8,1.044488092502164
4279.7,1.0558215902136523
4280.6,1.0642246194691427
4281.5,1.0576217434321562
4282.4,1.0526916888378814
4283.31,1.048105128974814
4284.21,1.039748271411257
4285.11,1.033210593042075
4286.01,1.0098729334528385
4286.91,1.0014485370534059
4287.81,0.9762648572196442
4288.71,0.9580527965318038
4289.61,0.9421052705562356
4290.51,0.9288914676183887
4291.41,0.9299452867231784
4292.31,0.9326619874472939
4293.21,0.9481872472274888
4294.11,0.9613465482838067
4295.01,0.9623507203404978
4295.91,0.9569574552558555
4296.81,0.938466840263577
4297.71,0.9157083509826346
4298.61,0.8856141635224821
4299.51,0.851384337898796
4300.41,0.8189587643830963
4301.31,0.7936562816838882
4302.21,0.7833836548022746
4303.11,0.7778719439574716
4304.01,0.7783986051716912
4304.91,0.7764373712202473
4305.81,0.7759567485675867
4306.71,0.7695534062748465
4307.61,0.7639061660777917
4308.51,0.7575002380626199
4309.41,0.7582794448800302
4310.31,0.7724818889345931
4311.21,0.7929952826012779
4312.11,0.8253269503965268
4313.01,0.8705566198844671
4313.91,0.9208002922857351
4314.81,0.9714669018074634
4315.71,1.026058449807823
4316.61,1.071856926287588
4317.51,1.1167453812990946
4318.41,1.149593838561851
4319.31,1.1660593975759022
4320.21,1.159762668690222
4321.12,1.145229099936558
4322.02,1.1098902986946877
4322.92,1.0708132533549928
4323.82,1.0243216960295418
4324.72,0.9867774523124571
4325.62,0.9565808074280546
4326.52,0.9472521534863293
4327.42,0.9589741376367004
4328.32,0.9843827017759362
4329.22,1.022958867181288
4330.12,1.0590865865941903
4331.02,1.0913391133174448
4331.92,1.1089422810624745
4332.82,1.1197895549889783
4333.72,1.1233538591277514
4334.62,1.1160881211991478
4335.52,1.0915753677973807
4336.42,1.0580351433303785
4337.32,1.0132152591584003
4338.22,0.9584529561436297
4339.12,0.9103389486245899
4340.02,0.867949299485999
4340.92,0.8408544653417993
4341.82,0.8345678302269153
4342.72,0.8549207460709946
4343.62,0.8891430184072473
4344.52,0.9259195126531516
4345.42,0.9693929583272545
4346.32,1.0022558178115393
4347.22,1.0387649214878938
4348.12,1.0593472879683392
4349.02,1.065005020516995
4349.92,1.0640392958063254
4350.82,1.0594463478098273
4351.72,1.042768839223075
4352.62,1.0296442157043857
4353.52,1.0189424982666988
4354.42,1.0218370625935678
4355.32,1.0321998629179672
4356.22,1.045571662808737
4357.12,1.0627509568617466
4358.02,1.0740959686737686
4358.92,1.083322011665631
4359.83,1.0900349582329083
