wave,flux
3700.85,0.016566058147349745
3701.75,0.016514077807024515
3702.65,0.01605938955598901
3703.55,0.015334038391187039
3704.45,0.01433446133046616
3705.35,0.013499183430966675
3706.25,0.012891224716338457
3707.15,0.012520216556747813
3708.05,0.012549299429743255
3708.96,0.013010607220655787
3709.86,0.013807731929770013
3710.76,0.014823711680364872
3711.66,0.01614017916895458
3712.56,0.01752136492076648
3713.46,0.018694568977021365
3714.36,0.019626058746991516
3715.26,0.020019816375282003
3716.16,0.019964921028064454
3717.06,0.01932708975890101
3717.96,0.01820172419091889
3718.86,0.016746814573645272
3719.76,0.015311026237318514
3720.66,0.014149933727583677
3721.56,0.013459173651467071
3722.46,0.013585540037817173
3723.36,0.01440793396429766
3724.26,0.015624259988798347
3725.16,0.017091987720000753
3726.06,0.018185480183761843
3726.96,0.018890364500132456
3727.86,0.019261787557738885
3728.76,0.019398497904656455
3729.66,0.019360198272778226
3730.56,0.019051854391908225
3731.46,0.0185118117588471
3732.36,0.017522257295578342
3733.26,0.016203772492274168
3734.16,0.014844647923001626
3735.06,0.013858847019800209
3735.96,0.013435291458138746
3736.86,0.013659537082032564
3737.76,0.014800214514269886
3738.66,0.016463842317717203
3739.56,0.018382908261177968
3740.46,0.020204909814787106
3741.36,0.02144705887106189
3742.26,0.02192028940495245
3743.16,0.021529074826905605
3744.06,0.020598238133193454
3744.96,0.019528790945071116
3745.86,0.018380098176346275
3746.76,0.017447530733571838
3747.67,0.016688853639555957
3748.57,0.01632673624898726
3749.47,0.016527641335655454
3750.37,0.017594739320100396
3751.27,0.0193972907811409
3752.17,0.021727472434267293
3753.07,0.024528520942822058
3753.97,0.02706345186712009
3754.87,0.028888410431857945
3755.77,0.02983861348969411
3756.67,0.029716769624038204
3757.57,0.02888029491707689
3758.47,0.02754300598432142
3759.37,0.026556001191296995
3760.27,0.0263601459968043
3761.17,0.026600764002441428
3762.07,0.02733051161693345
3762.97,0.02817978204857443
3763.87,0.028843980544136116
3764.77,0.029269263472577946
3765.67,0.029574053540557407
3766.57,0.030082598749678634
3767.47,0.030402586235903566
3768.37,0.03127009274312721
3769.27,0.03227743639720374
3770.17,0.03366066446059408
3771.07,0.035277782107758685
3771.97,0.03673083296800268
3772.87,0.03864158025107076
3773.77,0.04016060929514886
3774.67,0.0416544727513618
3775.57,0.04261301582742765
3776.47,0.04356022105025091
3777.37,0.04442726964851332
3778.27,0.04542128714436938
3779.17,0.046988752677862226
3780.07,0.04828751387843534
3780.97,0.05007010894915883
3781.87,0.05126726958175287
3782.77,0.05245128321825942
3783.67,0.05291472429605652
3784.57,0.052466117522538235
3785.47,0.05140912746844677
3786.38,0.04965883704827626
3787.28,0.047452439646784576
3788.18,0.04563978523565605
3789.08,0.04438898726450732
3789.98,0.04397735949460835
3790.88,0.044397083957478524
3791.78,0.044740016335746036
3792.68,0.0452934929724233
3793.58,0.04514666588862481
3794.48,0.044738307523089736
3795.38,0.04402207981690995
3796.28,0.04326289052356078
3797.18,0.042428828747137416
3798.08,0.04229302535771016
3798.98,0.04308806029162725
3799.88,0.04497832723018688
3800.78,0.04780718101044552
3801.68,0.05185815319513817
3802.58,0.056248736752740586
3803.48,0.06010001769481671
3804.38,0.0629580813254226
3805.28,0.06489438448971428
3806.18,0.0657447492527804
3807.08,0.06635228592827087
3807.98,0.06656582417446467
3808.88,0.06813875072849164
3809.78,0.06951378868751103
3810.68,0.07054766009566676
3811.58,0.07124460237299837
3812.48,0.07030206400359021
3813.38,0.06796546048443977
3814.28,0.06496645448971457
3815.18,0.06240365987454552
3816.08,0.060320984851676376
3816.98,0.05945742384758168
3817.88,0.05910406713432149
3818.78,0.059051594818473586
3819.68,0.05858441598538385
3820.58,0.05801071825219997
3821.48,0.057758136190687474
3822.38,0.05748508286271806
3823.28,0.05765152852675918
3824.18,0.056693719026590546
3825.09,0.05550974824024423
3825.99,0.054321518611845636
3826.89,0.0530705819139076
3827.79,0.05267343592587848
3828.69,0.0533146779609796
3829.59,0.05401399712707218
3830.49,0.05487502804191542
3831.39,0.05525683526342527
3832.29,0.05508824728227695
3833.19,0.054507883359522426
3834.09,0.05410896783356154
3834.99,0.054411209306169696
3835.89,0.055674488367335115
3836.79,0.056704112392605706
3837.69,0.05774306554430942
3838.59,0.059063098673682896
3839.49,0.060920823895540786
3840.39,0.0636435476491278
3841.29,0.06869322944468828
3842.19,0.07505231492389669
3843.09,0.08233954965096668
3843.99,0.08959554238985212
3844.89,0.09610055277108992
3845.79,0.10083462489572076
3846.69,0.10517205898645954
3847.59,0.10730101926211398
3848.49,0.10849878283715039
3849.39,0.10981122630648105
3850.29,0.10990513479458706
3851.19,0.11126199951631077
3852.09,0.1124021310934569
3852.99,0.11338701655283519
3853.89,0.11444402668596572
3854.79,0.11411630951481117
3855.69,0.11280023234103133
3856.59,0.11021749576380224
3857.49,0.10784269291737517
3858.39,0.10512914794156009
3859.29,0.10410698061494733
3860.19,0.10497870601346766
3861.09,0.10839962595804108
3861.99,0.11522877594664253
3862.9,0.12336910214577705
3863.8,0.1316719619247247
3864.7,0.1378090075890033
3865.6,0.1421228011031757
3866.5,0.14426382150071307
3867.4,0.14454986413143997
3868.3,0.14280707890451802
3869.2,0.1415186062002816
3870.1,0.13834564583213688
3871.0,0.136636614136489
3871.9,0.13616262062932183
3872.8,0.13746724747305472
3873.7,0.14136427143133543
3874.6,0.1486943628766468
3875.5,0.15509587911755213
3876.4,0.1604469030894261
3877.3,0.16224062924523072
3878.2,0.1628398874597654
3879.1,0.16168893688647204
3880.0,0.16121430328756356
3880.9,0.16104984445764556
3881.8,0.16363225064493425
3882.7,0.1656476081104393
3883.6,0.1687190127779119
3884.5,0.17108014104896954
3885.4,0.1715494906266704
3886.3,0.17062367800866152
3887.2,0.16954074595111157
3888.1,0.1706182090455366
3889.0,0.17417901911767675
3889.9,0.1831038160128207
3890.8,0.19537977627723874
3891.7,0.21021515229692683
3892.6,0.22523424643045548
3893.5,0.23736343670373966
3894.4,0.2441766537782305
3895.3,0.2509194138535032
3896.2,0.256206046298936
3897.1,0.26132630584306693
3898.0,0.2649478040343721
3898.9,0.27048902551969917
3899.8,0.2737830120109623
3900.7,0.2771523275649239
3901.6,0.2810631074134303
3902.51,0.2825038778351724
3903.41,0.2820217816114801
3904.31,0.2816940414267054
3905.21,0.28139898053660095
3906.11,0.28429391101827456
3907.01,0.2934064242205052
3907.91,0.3052547486124416
3908.81,0.3208308435821436
3909.71,0.33793753423849343
3910.61,0.35473504055763116
3911.51,0.36732281494507274
3912.41,0.37704271746913415
3913.31,0.3845594092416789
3914.21,0.38835810272468346
3915.11,0.389302704969126
3916.01,0.38678060115856633
3916.91,0.3840526624657373
3917.81,0.3791873049875557
3918.71,0.3713066501171595
3919.61,0.3628761516227986
3920.51,0.35195015301326343
3921.41,0.34399277621387286
3922.31,0.33973099121486183
3923.21,0.337658504890683
3924.11,0.3361624046894839
3925.01,0.3335741517538756
3925.91,0.32565340862042885
3926.81,0.31267755292857097
3927.71,0.2915867788125704
3928.61,0.26639659999869947
3929.51,0.2380401820720936
3930.41,0.2101243407808555
3931.31,0.18299305503818544
3932.21,0.1615540463601064
3933.11,0.14529030316870148
3934.01,0.13747609656697596
3934.91,0.13851054380453628
3935.81,0.149145173243263
3936.71,0.1685148541404305
3937.61,0.19769096685526377
3938.51,0.22957527818495932
3939.42,0.2645436599579537
3940.32,0.2978934651338695
3941.22,0.324326287078566
3942.12,0.34753527847970067
3943.02,0.36575218474163046
3943.92,0.3814399725538286
3944.82,0.40035651538383893
3945.72,0.4243703476460835
3946.62,0.4481953401715605
3947.52,0.47442304832396903
3948.42,0.5010623336028762
3949.32,0.523861858696909
3950.22,0.5452727194920733
3951.12,0.5609739618573851
3952.02,0.5734640609406342
3952.92,0.5846949230382197
3953.82,0.5918486281476614
3954.72,0.595100894305374
3955.62,0.6000578490117239
3956.52,0.5995694102998858
3957.42,0.5962874007558675
3958.32,0.5904364386950173
3959.22,0.578623940261725
3960.12,0.5568829361876569
3961.02,0.5314491255600106
3961.92,0.49480406064898336
3962.82,0.45532433214007845
3963.72,0.4177036630853503
3964.62,0.37963330279920526
3965.52,0.34236952668371173
3966.42,0.30635456860417004
3967.32,0.2723897871764092
3968.22,0.24423900150877248
3969.12,0.2293144820980187
3970.02,0.2289937562837759
3970.92,0.24715634994209815
3971.82,0.27919579835115677
3972.72,0.3203785234958189
3973.62,0.37107962831013236
3974.52,0.4238783220904682
3975.42,0.47833343699853964
3976.32,0.5306875868416314
3977.22,0.5815014449104164
3978.13,0.6315057421888105
3979.03,0.6764378152076259
3979.93,0.7158602014034474
3980.83,0.7437156632150751
3981.73,0.7651201576917247
3982.63,0.778161317331329
3983.53,0.7878312571644436
3984.43,0.79531138114515
3985.33,0.8039274739549194
3986.23,0.8167766828014155
3987.13,0.8322154438102907
3988.03,0.8460878303806065
3988.93,0.8634200549032136
3989.83,0.8783849471999821
3990.73,0.8927817801545438
3991.63,0.9016784318005562
3992.53,0.9093287144508448
3993.43,0.9161814893321986
3994.33,0.9189944639122466
3995.23,0.9168648666577983
3996.13,0.9058622124769127
3997.03,0.9051951851593191
3997.93,0.9068319658633743
3998.83,0.9131907919510165
3999.73,0.9346304034996274
4000.63,0.9509696309936031
4001.53,0.97212886560239
4002.43,0.9842606566006602
4003.33,0.9830471678423458
4004.23,0.9679948854602765
4005.13,0.951915867095868
4006.03,0.9364758829154295
4006.93,0.9268087901951939
4007.83,0.9319615049079862
4008.73,0.9428600886845637
4009.63,0.9706073263693815
4010.53,0.9876933613850492
4011.43,1.0100412177591267
4012.33,1.024083005081391
4013.23,1.032734806708267
4014.13,1.0407373905418078
4015.03,1.049777627367152
4015.93,1.0514651589823145
4016.84,1.0538892524539194
4017.74,1.056244032598228
4018.64,1.0595716428164557
4019.54,1.06302717248587
4020.44,1.0674610218667935
4021.34,1.0690527335510853
4022.24,1.06974101688843
4023.14,1.0649074038281297
4024.04,1.0606239966187185
4024.94,1.0590836704691986
4025.84,1.0669254622666593
4026.74,1.064741531385814
4027.64,1.07444624038294
4028.54,1.0704045135179505
4029.44,1.0513860643303443
4030.34,1.019393474123605
4031.24,0.9825919753934467
4032.14,0.946837697312034
4033.04,0.9237842572698514
4033.94,0.9161845975623397
4034.84,0.9256916419968625
4035.74,0.9569440924112282
4036.64,0.9922532598614565
4037.54,1.0328977063357532
4038.44,1.0711897224147608
4039.34,1.0872474386156696
4040.24,1.0937596810012826
4041.14,1.0894502672165096
4042.04,1.0710339173227836
4042.94,1.037972020460693
4043.84,0.9964913895594479
4044.74,0.952388383485602
4045.64,0.9131591490154751
4046.54,0.8954233680806166
4047.44,0.9005033120828637
4048.34,0.9269182027546478
4049.24,0.9711796952786396
4050.14,1.014359498946635
4051.04,1.045335497349283
4051.94,1.0562839836890552
4052.84,1.05870623700411
4053.74,1.0462398205613297
4054.65,1.0285470701428943
4055.55,1.0072231667809703
4056.45,0.9902105700225607
4057.35,0.9748993508766118
4058.25,0.9633472850257607
4059.15,0.9647507621788776
4060.05,0.9601543863688649
4060.95,0.9580942621141305
4061.85,0.9530067856398341
4062.75,0.9322117134062109
4063.65,0.9165642579398076
4064.55,0.899902077130122
4065.45,0.8988734211664025
4066.35,0.9080887681990176
4067.25,0.9337972009797707
4068.15,0.9492980446735871
4069.05,0.9713380184394623
4069.95,0.9809008542634904
4070.85,0.9833576305628826
4071.75,0.9780599356999999
4072.65,0.9770299620099168
4073.55,0.9671788266098693
4074.45,0.959437535575896
4075.35,0.9549418543245408
4076.25,0.9426634630031753
4077.15,0.9314175153903257
4078.05,0.9274261150299751
4078.95,0.9279860781955821
4079.85,0.955206987910588
4080.75,0.9832363872021621
4081.65,1.0123720174039552
4082.55,1.036048256764969
4083.45,1.046997939434349
4084.35,1.0532898460584779
4085.25,1.057791743711729
4086.15,1.0673550669990766
4087.05,1.0856026970879487
4087.95,1.1002078579159518
4088.85,1.1193816018175353
4089.75,1.1356298348537746
4090.65,1.131138721449116
4091.55,1.1323578902843092
4092.45,1.1184516111852025
4093.36,1.0979174539103655
4094.26,1.083403404045826
4095.16,1.0513124494391841
4096.06,1.0282015876343762
4096.96,0.9955291208012256
4097.86,0.9618874310686973
4098.76,0.9353802141581143
4099.66,0.9033459281197014
4100.56,0.8709324240085476
4101.46,0.8532023089513143
4102.36,0.8403353248755233
4103.26,0.8510352742446295
4104.16,0.8657455642579798
4105.06,0.8986751486371194
4105.96,0.93335584606468
4106.86,0.9669578828162056
4107.76,0.9968913316259695
4108.66,1.0115596110772977
4109.56,1.0147468460441236
4110.46,1.0184116374393517
4111.36,1.022141884873294
4112.26,1.022996980390724
4113.16,1.0328563717950154
4114.06,1.0450701910581548
4114.96,1.0542307747138024
4115.86,1.0670378578852182
4116.76,1.0665161856515406
4117.66,1.0635971678665024
4118.56,1.0544085940977121
4119.46,1.0500462363838319
4120.36,1.0350760031146669
4121.26,1.0318535865801903
4122.16,1.0318674973695758
4123.06,1.030600810738327
4123.96,1.0340923378508051
4124.86,1.0397604423831022
4125.76,1.0409821866644848
4126.66,1.0386387831745476
4127.56,1.0340207073269052
4128.46,1.0204516588868628
4129.36,1.002854652826859
4130.26,0.9894287646833253
4131.17,0.9726763484980525
4132.06,0.9535972780730525
4132.97,0.9412013664149973
4133.87,0.9406988556649585
4134.77,0.9495683793911954
4135.67,0.9678075300534248
4136.57,0.9943026319761372
4137.47,1.0230256297428355
4138.37,1.0405197185349673
4139.27,1.0504730244997562
4140.17,1.051892260789179
4141.07,1.0361786061811684
4141.97,1.0102364088545777
4142.87,0.9838350511614858
4143.77,0.9580852978066827
4144.67,0.942112161980635
4145.57,0.9402439770588075
4146.47,0.947859320370615
4147.37,0.9660115996646976
4148.27,0.9796666621701552
4149.17,0.9907550463516622
4150.07,0.9923728412337254
4150.97,0.9868007679867941
4151.87,0.9784259168940944
4152.77,0.9740937799045232
4153.67,0.9657878394376888
4154.57,0.9617586895988882
4155.47,0.959490383659237
4156.37,0.9608561727005305
4157.27,0.966090935630125
4158.17,0.9833915273134058
4159.07,0.9954898168011723
4159.97,1.019891931130561
4160.87,1.0366913686971457
4161.77,1.0518010715056594
4162.67,1.0664505228035341
4163.57,1.0722625071191392
4164.47,1.0748582798694644
4165.37,1.0682595914822557
4166.27,1.0535175282387752
4167.17,1.0437574842537634
4168.07,1.0291917044195487
4168.98,1.0170894131011934
4169.88,1.00797582832102
4170.78,0.995519839346271
4171.68,0.9737954493948249
4172.58,0.9575228385277824
4173.48,0.9423037056418385
4174.38,0.9254976006558392
4175.28,0.922363555432925
4176.18,0.9276250190156431
4177.08,0.9334184451793525
4177.98,0.9445005968429366
4178.88,0.9553531501255678
4179.78,0.9670332129882458
4180.68,0.9751933855671054
4181.58,0.9815357782763938
4182.48,0.9875286427468636
4183.38,0.9907614575581115
4184.28,0.998640856626916
4185.18,0.999701885327106
4186.08,0.9998224571013021
4186.98,0.9992959494006495
4187.88,0.9964156262429891
4188.78,0.9953581958372228
4189.68,1.0002445858030613
4190.58,1.0109600676256767
4191.48,1.020854156901454
4192.38,1.0284539311115277
4193.28,1.0397658221375983
4194.18,1.0405941035462911
4195.08,1.02763361645075
4195.98,1.0065344575207409
4196.88,0.984011641367304
4197.78,0.9614202366694591
4198.68,0.9383475189821924
4199.58,0.9291227759386536
4200.48,0.9214261023185266
4201.38,0.9246371445080429
4202.28,0.9324482349876717
4203.18,0.9468083564428315
4204.08,0.9633531229563094
4204.98,0.990051227832073
4205.88,1.0143920274398097
4206.79,1.0353718990387863
4207.69,1.0634963525070236
4208.59,1.0744387771319057
4209.49,1.0842570740792528
4210.39,1.089642671101026
4211.29,1.085099751789294
4212.19,1.0777146064081413
4213.09,1.0690225491511924
4213.99,1.061505121755297
4214.89,1.047361424375896
4215.79,1.0333867361855265
4216.69,1.0346540578390926
4217.59,1.050221268628178
4218.49,1.066198289314371
4219.39,1.0972471078281363
4220.29,1.1052930570070083
4221.19,1.1032217929632402
4222.09,1.0919186206321996
4222.99,1.0612113489506467
4223.89,1.0083188326755703
4224.79,0.9518089187428164
4225.69,0.8918006697774387
4226.59,0.8447356159550229
4227.49,0.8252222947786486
4228.39,0.8340892686542071
4229.29,0.8741152424788237
4230.19,0.9229444384151578
4231.09,0.9772634878760674
4231.99,1.0117616233159614
4232.89,1.0353096189855788
4233.79,1.0418180303040891
4234.69,1.0419315956270467
4235.59,1.0273154370311184
4236.49,1.0158846679652933
4237.39,1.009707592434414
4238.29,1.0099648655197684
4239.19,1.0196094616713205
4240.09,1.0372197980512625
4240.99,1.056943224280915
4241.89,1.077183361036932
4242.79,1.1033143582140064
4243.69,1.1227534183635735
4244.59,1.131605699649255
4245.5,1.138021122216381
4246.4,1.1293139764547258
4247.3,1.107438187736901
4248.2,1.0877429102868268
4249.1,1.054712562380885
4250.0,1.033599355223564
4250.9,1.0110108807859404
4251.8,1.0026885260942744
4252.7,1.0030232619655
4253.6,1.00723580823355
4254.5,1.0110818341963628
4255.4,1.0106160136700124
4256.3,1.0246213077836899
4257.2,1.0280135924935283
4258.1,1.0270388459610658
4259.0,1.0199955624122092
4259.9,1.0147093482815301
4260.8,1.0041846299980914
4261.7,1.0129851408165367
4262.6,1.032338913984163
4263.5,1.065579532334487
4264.4,1.0957303840935042
4265.3,1.1246711242877823
4266.2,1.1339908982130964
4267.1,1.1349670671133014
4268.0,1.1181197301205732
4268.9,1.075216716020146
4269.8,1.0322819774740808
4270.7,0.9802493195443054
4271.6,0.9372601156559187
4272.5,0.8989777744294536
4273.4,0.8836799872508186
4274.3,0.8875954764181613
4275.2,0.9032832161810737
4276.1,0.9353892253958794
4277.0,0.9755503551053529
4277.9,1.010236705983602
4278.8,1.0381755549832183
4279.7,1.0565847702044586
4280.6,1.058909697384203
4281.5,1.0608121602554978
4282.4,1.052071158891474
4283.31,1.0501696932425635
4284.21,1.038347051430839
4285.11,1.030584779297903
4286.01,1.0104825711449712
4286.91,0.9956630086612187
4287.81,0.9782489233502716
4288.71,0.949576088725375
4289.61,0.9373368922304439
4290.51,0.9199671948945862
4291.41,0.9240095015167686
4292.31,0.9266513749094563
4293.21,0.9395284866328564
4294.11,0.9505329072953391
4295.01,0.9566213697170154
4295.91,0.9432705278032181
4296.81,0.9286097172495194
4297.71,0.9009994664199106
4298.61,0.8612178839036021
4299.51,0.8248714377179345
4300.41,0.7833139659705224
4301.31,0.760681899364336
4302.21,0.7447051814721373
4303.11,0.7376491768023078
4304.01,0.7364118596926282
4304.91,0.7339151900616941
4305.81,0.7286263413914826
4306.71,0.7193595492102897
4307.61,0.7090227578867669
4308.51,0.6991514283543029
4309.41,0.6999479135763701
4310.31,0.7154585707371368
4311.21,0.7398126342943332
4312.11,0.7832126535593256
4313.01,0.8336306445982008
4313.91,0.8953866965492898
4314.81,0.962865965605336
4315.71,1.0247353045970993
4316.61,1.0924240978102027
4317.51,1.1473768869086054
4318.41,1.1885101622173995
4319.31,1.202696169449613
4320.21,1.2001549662149036
4321.12,1.1800320397949446
4322.02,1.1310754450655471
4322.92,1.0862333682379772
4323.82,1.0265433126811254
4324.72,0.97460470090204
4325.62,0.9472423636744813
4326.52,0.9366522013735966
4327.42,0.9528741292023097
4328.32,0.9863383405387681
4329.22,1.0338285183503102
4330.12,1.0805328861163688
4331.02,1.1193849870463355
4331.92,1.1467168179621723
4332.82,1.1623487797940892
4333.72,1.169349069916785
4334.62,1.162144131758027
4335.52,1.1468784880026632
4336.42,1.1103722406567795
4337.32,1.06825330516405
4338.22,1.0158418201420583
4339.12,0.9627343536853235
4340.02,0.9222423819127131
4340.92,0.8959529628796998
4341.82,0.8954538575306968
4342.72,0.9123877992244435
4343.62,0.9453848134573491
4344.52,0.9817561669342657
4345.42,1.0208925516911116
4346.32,1.0606745337052803
4347.22,1.084690977108523
4348.12,1.1021133406377353
4349.02,1.1108681468836155
4349.92,1.1051305915574383
4350.82,1.0811475937539488
4351.72,1.0666034776932858
4352.62,1.0435784138449262
4353.52,1.0287353962614278
4354.42,1.027540827976126
4355.32,1.0339138840042716
4356.22,1.052934927320495
4357.12,1.0654626506735376
4358.02,1.0810285051613187
4358.92,1.0943702066167602
4359.83,1.1019850598658791
4360.73,1.1141360393303252
4361.63,1.1206493580392074
4362.53,1.1377885555290297
