wave,flux
3700.85,0.0577212610791689
3701.75,0.057453774378407686
3702.65,0.05572970102478268
3703.55,0.0529809131839098
3704.45,0.04979381348235188
3705.35,0.04681954339226002
3706.25,0.044724993031239474
3707.15,0.04346516681033704
3708.05,0.043483569554957954
3708.96,0.04486429170565352
3709.86,0.04729432908547524
3710.76,0.05031602928704415
3711.66,0.054296467887313245
3712.56,0.05818618099555772
3713.46,0.061833539424632634
3714.36,0.06480908163102463
3715.26,0.06613013176795367
3716.16,0.06575221983665543
3717.06,0.06379758220337713
3717.96,0.06033616491260257
3718.86,0.05625972342521543
3719.76,0.05129012864931476
3720.66,0.04744567276369492
3721.56,0.045198984607916895
3722.46,0.04526363680532989
3723.36,0.04760102035187879
3724.26,0.05128714314313536
3725.16,0.05490872597880205
3726.06,0.05850909329414154
3726.96,0.0602785575477629
3727.86,0.061334247560124025
3728.76,0.061439225390011384
3729.66,0.060843287450375295
3730.56,0.06000032675751878
3731.46,0.057995791060087024
3732.36,0.054682763812459546
3733.26,0.05079303655897769
3734.16,0.046649074839999964
3735.06,0.043627768112304184
3735.96,0.042619792542924806
3736.86,0.04378164936950504
3737.76,0.04707385838623341
3738.66,0.05214352091685344
3739.56,0.057789604054819504
3740.46,0.06240800070871436
3741.36,0.06574430326292952
3742.26,0.06688813532779365
3743.16,0.06570207600497542
3744.06,0.06280506731136051
3744.96,0.05967033487605441
3745.86,0.05616212392141142
3746.76,0.053290892170899565
3747.67,0.050963404421018196
3748.57,0.04975048436567919
3749.47,0.04969915064134106
3750.37,0.05191557143134264
3751.27,0.0570231077404348
3752.17,0.06344661631261449
3753.07,0.0706182927873357
3753.97,0.07783465867195852
3754.87,0.0829476000995549
3755.77,0.08505099258210272
3756.67,0.08485211578358497
3757.57,0.0817162467838812
3758.47,0.07812871293193702
3759.37,0.0756572108682086
3760.27,0.0742333206626441
3761.17,0.07506022998856673
3762.07,0.07667051236545104
3762.97,0.07881548859428675
3763.87,0.08017999828307511
3764.77,0.08133851361459488
3765.67,0.08189615048162281
3766.57,0.08218614514372992
3767.47,0.08292761081349062
3768.37,0.08413784200851378
3769.27,0.08552111024250113
3770.17,0.08790615027493423
3771.07,0.0908747521089936
3771.97,0.0946372280547651
3772.87,0.09963134871294745
3773.77,0.10383647594512763
3774.67,0.10720721770335091
3775.57,0.10965520698361614
3776.47,0.11206793265987754
3777.37,0.1146802568190356
3778.27,0.11662313806821958
3779.17,0.12027053955807784
3780.07,0.12405033061553612
3780.97,0.12698624559251415
3781.87,0.130289773914946
3782.77,0.1329607065287424
3783.67,0.13344696267466208
3784.57,0.13244359417790913
3785.47,0.128873136705789
3786.38,0.1239303745797111
3787.28,0.11842191526343891
3788.18,0.11331104916521326
3789.08,0.1102907181541945
3789.98,0.10897951458577901
3790.88,0.10856546740691293
3791.78,0.10971680307405803
3792.68,0.11004888404126113
3793.58,0.10874136567716218
3794.48,0.10748118306203899
3795.38,0.10460901897573892
3796.28,0.10189598030694365
3797.18,0.0992362966690155
3798.08,0.09877164341611812
3798.98,0.10007434580669365
3799.88,0.10415787072684887
3800.78,0.11073895370438683
3801.68,0.11978556575118053
3802.58,0.12885122700876994
3803.48,0.13680779405161014
3804.38,0.14295433481782358
3805.28,0.14727866442030146
3806.18,0.148318914252207
3807.08,0.14963709290907437
3807.98,0.15121603116528942
3808.88,0.15328767928629802
3809.78,0.15664747926545788
3810.68,0.1588276167932772
3811.58,0.15868912837423435
3812.48,0.15637377703047672
3813.38,0.15103480924187487
3814.28,0.14466668620647852
3815.18,0.1386111843182947
3816.08,0.1347189123353084
3816.98,0.13185648814022144
3817.88,0.1319382289321154
3818.78,0.1315490003634627
3819.68,0.1304797635390961
3820.58,0.1295581113941803
3821.48,0.12850363954069063
3822.38,0.12769632737125047
3823.28,0.12742416115511543
3824.18,0.12605159902992075
3825.09,0.12277141931006269
3825.99,0.11960391143672162
3826.89,0.11670746862187054
3827.79,0.11566329271700239
3828.69,0.11624835772578805
3829.59,0.11726864818279602
3830.49,0.11821457384202767
3831.39,0.11811443502819886
3832.29,0.11638513801423664
3833.19,0.11476278647404106
3834.09,0.11254638114852293
3834.99,0.11243320386192207
3835.89,0.11337919177123035
3836.79,0.11510234831950501
3837.69,0.11844637133110537
3838.59,0.12075239092832532
3839.49,0.12480055424311971
3840.39,0.13066301423621415
3841.29,0.13924372444719985
3842.19,0.1505948120222761
3843.09,0.16155235451696334
3843.99,0.17472367814889053
3844.89,0.18430514743815182
3845.79,0.19330387107202854
3846.69,0.1988678248692147
3847.59,0.20212091354776787
3848.49,0.2052525192886784
3849.39,0.206438801462689
3850.29,0.2074863552118561
3851.19,0.20871514508714492
3852.09,0.21009085996273116
3852.99,0.21131355828909865
3853.89,0.21247196729148668
3854.79,0.21048180625411794
3855.69,0.20930287354714472
3856.59,0.20452936466542132
3857.49,0.19989496627981299
3858.39,0.19578230711196798
3859.29,0.19385730140986965
3860.19,0.19452398915089775
3861.09,0.1989901587399488
3861.99,0.20991316927449244
3862.9,0.22345573623077256
3863.8,0.23497557120624674
3864.7,0.24385346940750804
3865.6,0.24956168142470625
3866.5,0.2507500888223723
3867.4,0.25003496683193194
3868.3,0.24733286362781381
3869.2,0.24333855911254032
3870.1,0.2381279243857596
3871.0,0.23348038814033262
3871.9,0.23116067664509934
3872.8,0.2349870442088917
3873.7,0.24078479966988456
3874.6,0.25125819000502286
3875.5,0.26176186873424273
3876.4,0.26835282888451883
3877.3,0.27205651038838535
3878.2,0.2694651273844992
3879.1,0.2667817586971173
3880.0,0.26476943056106506
3880.9,0.2653400568793304
3881.8,0.2665469749264615
3882.7,0.26788966959564403
3883.6,0.2690656143987111
3884.5,0.27036068637040256
3885.4,0.26888496864823747
3886.3,0.2640861101236349
3887.2,0.26046099729011574
3888.1,0.2596949202450573
3889.0,0.263473322976666
3889.9,0.2726964944707751
3890.8,0.2889476747012226
3891.7,0.3096621548922673
3892.6,0.33116518253077953
3893.5,0.34720513468318653
3894.4,0.36020927253945756
3895.3,0.36891140761377356
3896.2,0.37522688410235
3897.1,0.38056502161810185
3898.0,0.38819527632320033
3898.9,0.3932515140836873
3899.8,0.3957317296121926
3900.7,0.4015437069214609
3901.6,0.4026846626164398
3902.51,0.40368632573916735
3903.41,0.4016203790388801
3904.31,0.39893400066527585
3905.21,0.3972601431956859
3906.11,0.3972211592034362
3907.01,0.40726217944974463
3907.91,0.4223141118489987
3908.81,0.44248947960758406
3909.71,0.4628818108858915
3910.61,0.48068559128235216
3911.51,0.4948866982323918
3912.41,0.5051891650298503
3913.31,0.5121602495082856
3914.21,0.5152735843804189
3915.11,0.5152537064436576
3916.01,0.5110467193596968
3916.91,0.5042564712531874
3917.81,0.4926356233649508
3918.71,0.48374236465373033
3919.61,0.4703709420473633
3920.51,0.4567867799210957
3921.41,0.4480284035787737
3922.31,0.44061631866790335
3923.21,0.43940940738392936
3924.11,0.4343288632089337
3925.01,0.4292121808542438
3925.91,0.4178900353210954
3926.81,0.3987016382831456
3927.71,0.3717328611082796
3928.61,0.3371557892364988
3929.51,0.3005798663104444
3930.41,0.26370231621800516
3931.31,0.22881932850216585
3932.21,0.19931219636153424
3933.11,0.176178131611707
3934.01,0.16473702744180127
3934.91,0.164935248558233
3935.81,0.17761391867858836
3936.71,0.20245055177042623
3937.61,0.23633876381734342
3938.51,0.2783634766988569
3939.42,0.31958948272326615
3940.32,0.356560540567127
3941.22,0.3885383824665829
3942.12,0.41256603530733843
3943.02,0.43100480902860905
3943.92,0.4477339266155814
3944.82,0.4671601722132102
3945.72,0.49177525689061724
3946.62,0.5193088780175587
3947.52,0.5423046191356868
3948.42,0.5678895113518051
3949.32,0.592477009082249
3950.22,0.6126503865401461
3951.12,0.6260839118582905
3952.02,0.6382465746241628
3952.92,0.648102012876905
3953.82,0.6524625322323392
3954.72,0.657366361720371
3955.62,0.659202079845
3956.52,0.6537599246151173
3957.42,0.652651085528045
3958.32,0.642056737426418
3959.22,0.6316969600673956
3960.12,0.6133833979400165
3961.02,0.5855459644493998
3961.92,0.5455634698072019
3962.82,0.5052073230864866
3963.72,0.4602695143624803
3964.62,0.42092387792454244
3965.52,0.3789818267074862
3966.42,0.3363251976040339
3967.32,0.29648149408176794
3968.22,0.26545216771474694
3969.12,0.2468410701616932
3970.02,0.2467585969292763
3970.92,0.2648100636699202
3971.82,0.29877082636383934
3972.72,0.3433218579198752
3973.62,0.39442596506377436
3974.52,0.4504424916069707
3975.42,0.5047872273032138
3976.32,0.5578076571793978
3977.22,0.6077723249331549
3978.13,0.6568581569020091
3979.03,0.7016021419087851
3979.93,0.7372550343353828
3980.83,0.7643185900623237
3981.73,0.7852103495229458
3982.63,0.7981369257776897
3983.53,0.8044252384675408
3984.43,0.8081099265323544
3985.33,0.818280117807714
3986.23,0.8320341750399983
3987.13,0.8393624592976792
3988.03,0.858358761504557
3988.93,0.8756962817680154
3989.83,0.8814676867081476
3990.73,0.8922608620383855
3991.63,0.9028372955498803
3992.53,0.9128018659905867
3993.43,0.923580472876371
3994.33,0.9198013927162084
3995.23,0.9162085851598667
3996.13,0.9176622651182803
3997.03,0.9125841252198068
3997.93,0.9092094427224534
3998.83,0.9192356496313516
3999.73,0.9391821727249258
4000.63,0.9616924540451288
4001.53,0.9765215006720772
4002.43,0.9904778660544109
4003.33,0.9878321786791053
4004.23,0.9728920867797861
4005.13,0.9545691674224931
4006.03,0.9378720501772696
4006.93,0.9300030049263353
4007.83,0.9320294201664465
4008.73,0.9471929787928066
4009.63,0.9678078019415489
4010.53,0.9885443567452096
4011.43,1.004785467913769
4012.33,1.0137409309778864
4013.23,1.025489399871828
4014.13,1.0345561623271238
4015.03,1.0417851894206744
4015.93,1.046502413532097
4016.84,1.0516846022782906
4017.74,1.05686461268976
4018.64,1.0600805418936456
4019.54,1.0659110648573527
4020.44,1.0710065096241006
4021.34,1.0738723966119945
4022.24,1.069274589220546
4023.14,1.0677379705837506
4024.04,1.0574127586150677
4024.94,1.0594303660655533
4025.84,1.0571861598931487
4026.74,1.0657763841496746
4027.64,1.0690586354459635
4028.54,1.0626341863657103
4029.44,1.0455497236589733
4030.34,1.012532242456283
4031.24,0.9736690358467694
4032.14,0.9387296643965662
4033.04,0.9134391693775523
4033.94,0.9062398753505531
4034.84,0.9143693213585293
4035.74,0.946278279111718
4036.64,0.993289962103105
4037.54,1.029496356684936
4038.44,1.0673594943340388
4039.34,1.0888982992055671
4040.24,1.094476436520999
4041.14,1.088607933283946
4042.04,1.0713238955318856
4042.94,1.0400913361564856
4043.84,0.9994706779576963
4044.74,0.9608571580648221
4045.64,0.9264810324654911
4046.54,0.9043486352083387
4047.44,0.9119819174371963
4048.34,0.9404037344158308
4049.24,0.9784799586681772
4050.14,1.018357293435782
4051.04,1.04391187692307
4051.94,1.0595216836757553
4052.84,1.0598621868838307
4053.74,1.0460285873582646
4054.65,1.0247431452652667
4055.55,1.0000104768896945
4056.45,0.9802512346210887
4057.35,0.965427991325057
4058.25,0.963732366969927
4059.15,0.9565908057043746
4060.05,0.9575549364094035
4060.95,0.9604335090081451
4061.85,0.9479066152065125
4062.75,0.9329212362537869
4063.65,0.918270779727025
4064.55,0.9078783105374254
4065.45,0.9022331416607149
4066.35,0.9151715813829443
4067.25,0.936166429277493
4068.15,0.9546968890200587
4069.05,0.9776986797517846
4069.95,0.9867060739206384
4070.85,0.992200136090104
4071.75,0.9823942403741763
4072.65,0.9793271618688838
4073.55,0.9732063138008836
4074.45,0.9714116809445278
4075.35,0.9626135533574525
4076.25,0.947193346634802
4077.15,0.9323025521236837
4078.05,0.9247480087575062
4078.95,0.9319312632922403
4079.85,0.953804107287316
4080.75,0.9825771592775208
4081.65,1.017982450453815
4082.55,1.039094741119308
4083.45,1.0546362327169314
4084.35,1.0575165966065152
4085.25,1.0632829804966566
4086.15,1.071295467353711
4087.05,1.084478316877518
4087.95,1.0994900279719035
4088.85,1.1182789271316427
4089.75,1.1324464618359495
4090.65,1.1351773160943246
4091.55,1.1302641727445468
4092.45,1.1149422817950467
4093.36,1.0981648883157595
4094.26,1.0748871226295273
4095.16,1.0519962891250876
4096.06,1.0239928736727817
4096.96,0.9889366693550824
4097.86,0.9605550441449986
4098.76,0.9254611808955895
4099.66,0.890125155269432
4100.56,0.859179895035646
4101.46,0.8364315489950528
4102.36,0.8238150058843566
4103.26,0.828713849841028
4104.16,0.848278149932353
4105.06,0.8817130739611557
4105.96,0.9235996569294604
4106.86,0.9603950353434122
4107.76,0.9877415043089474
4108.66,1.0070253963209597
4109.56,1.0139306475833403
4110.46,1.0142780819742314
4111.36,1.020736177926061
4112.26,1.023618932217609
4113.16,1.0376338631238038
4114.06,1.0480720677543987
4114.96,1.0635687809818914
4115.86,1.0706166308495169
4116.76,1.0767718184642612
4117.66,1.0736684587624459
4118.56,1.063468876739915
4119.46,1.0517533220060937
4120.36,1.0377420807671822
4121.26,1.0339942541385814
4122.16,1.0325171370108535
4123.06,1.0323808923528457
4123.96,1.037595013814502
4124.86,1.0428104353221173
4125.76,1.0421631629880856
4126.66,1.0379201672762193
4127.56,1.0349067175404838
4128.46,1.0240339135878198
4129.36,1.0098307387955436
4130.26,0.9938933318325905
4131.17,0.9736623681110246
4132.06,0.9586722612578155
4132.97,0.9488386610457384
4133.87,0.9510938116691173
4134.77,0.9586870147092645
4135.67,0.9774688073751392
4136.57,1.0052487937112347
4137.47,1.0329500944446477
4138.37,1.0524266045922863
4139.27,1.0640894101305305
4140.17,1.0644249847385419
4141.07,1.0552147491873245
4141.97,1.0288386922024628
4142.87,0.9978843896613875
4143.77,0.9783370324315602
4144.67,0.9625712486091261
4145.57,0.9593521903333646
4146.47,0.9652728111134447
4147.37,0.9708624863901246
4148.27,0.9888047938510086
4149.17,0.996430665810613
4150.07,0.9937062431618042
4150.97,0.9856622023085428
4151.87,0.9767725204169616
4152.77,0.971250916606776
4153.67,0.9666940291693256
4154.57,0.9577063634270623
4155.47,0.9521222826559903
4156.37,0.9562224933842477
4157.27,0.9601767416225313
4158.17,0.9751050110352704
4159.07,0.9904401278481614
4159.97,1.0083613495854202
4160.87,1.0325246584957966
4161.77,1.0477126140264403
4162.67,1.0623843017152286
4163.57,1.0691908002307369
4164.47,1.0680598005123771
4165.37,1.070808377681326
4166.27,1.0522913919665824
4167.17,1.040128784147098
4168.07,1.0264188568135704
4168.98,1.0126745683158807
4169.88,1.0071659923481662
4170.78,0.9865989194406143
4171.68,0.9700953473082573
4172.58,0.9524872088366027
4173.48,0.929345393426554
4174.38,0.9217819235734922
4175.28,0.9142938296682521
4176.18,0.9140777884941559
4177.08,0.9306172782275884
4177.98,0.9318048639780471
4178.88,0.940041423224233
4179.78,0.9499757546030339
4180.68,0.9592090000733912
4181.58,0.9632025529926487
4182.48,0.9738748976028252
4183.38,0.9862810572103224
4184.28,0.9880241148334827
4185.18,0.9928663293162325
4186.08,0.9958268099536943
4186.98,0.9958357005122654
4187.88,0.9955124865028248
4188.78,0.9978082337525425
4189.68,1.0010996186864949
4190.58,1.0082267121989081
4191.48,1.0216235804788132
4192.38,1.0319575361818387
4193.28,1.0405195936023943
4194.18,1.0370560715106494
4195.08,1.0285021221319002
4195.98,1.0087358345397919
4196.88,0.9853922666299364
4197.78,0.9574762464139238
4198.68,0.9367150295662603
4199.58,0.9248780214044179
4200.48,0.9214847289303808
4201.38,0.920265454379972
4202.28,0.9312120477076402
4203.18,0.9488291828684698
4204.08,0.9652629408934938
4204.98,0.9890292834327457
4205.88,1.010357790361125
4206.79,1.0358095707258748
4207.69,1.0501986280305087
4208.59,1.0647306672131722
4209.49,1.0751304715391137
4210.39,1.081619195796455
4211.29,1.0773440134014927
4212.19,1.0721816445801609
4213.09,1.0605321197662283
4213.99,1.0459704124558677
4214.89,1.0371911276178019
4215.79,1.025941826949361
4216.69,1.0318913870416309
4217.59,1.0369521636741807
4218.49,1.059389613584977
4219.39,1.0831809894551259
4220.29,1.0951813632846465
4221.19,1.0978976410377954
4222.09,1.0971854078361274
4222.99,1.061908383955666
4223.89,1.0135338713045554
4224.79,0.9583961830036999
4225.69,0.9009870047064557
4226.59,0.8553605444674961
4227.49,0.8387629787250805
4228.39,0.8490860489780989
4229.29,0.8835233139728417
4230.19,0.9272470605420694
4231.09,0.9751059613895258
4231.99,1.0172839990895954
4232.89,1.0345282392605608
4233.79,1.0390117965825472
4234.69,1.0356270530591518
4235.59,1.0226519330288493
4236.49,1.0122828176371808
4237.39,1.0048854928735214
4238.29,1.0120935726046327
4239.19,1.0205034831426536
4240.09,1.0336361541949635
4240.99,1.05251559160003
4241.89,1.0762938458314562
4242.79,1.097450756673704
4243.69,1.1207530067422222
4244.59,1.1306608076472207
4245.5,1.1382445594063375
4246.4,1.1270671999548425
4247.3,1.1160342987480223
4248.2,1.0862207591577948
4249.1,1.059307170053197
4250.0,1.0364991096499323
4250.9,1.0148308752341608
4251.8,1.006257839099588
4252.7,1.006235865275859
4253.6,1.0086180567583907
4254.5,1.0117582852729141
4255.4,1.0229588514132084
4256.3,1.0267699951007616
4257.2,1.0335265094647965
4258.1,1.0286702852654646
4259.0,1.0241742063525263
4259.9,1.0136223885693605
4260.8,1.0090095884976256
4261.7,1.0173587267108122
4262.6,1.0377442339502956
4263.5,1.0659294769585086
4264.4,1.0956835352396366
4265.3,1.1222402992483644
4266.2,1.1395689872957653
4267.1,1.138453011857991
4268.0,1.1209136895393594
4268.9,1.082073214225322
4269.8,1.036982115963121
4270.7,0.9883339316878734
4271.6,0.946610641108465
4272.5,0.909049489868991
4273.4,0.8913616059129783
4274.3,0.8916358544023624
4275.2,0.9093744381993486
4276.1,0.9420193653372768
4277.0,0.9820658140290535
4277.9,1.016534751603823
4278.8,1.0448202929533996
4279.7,1.0601494845665929
4280.6,1.0678437137357983
4281.5,1.0661499570071753
4282.4,1.0618552471608276
4283.31,1.0519339182817284
4284.21,1.0426690838137391
4285.11,1.0325071621174513
4286.01,1.0203363235651435
4286.91,0.9985124277016741
4287.81,0.9813358815857453
4288.71,0.9552071216504567
4289.61,0.9395319200571556
4290.51,0.9214692244660383
4291.41,0.9169859986505566
4292.31,0.9253398323414496
4293.21,0.9372119981464216
4294.11,0.9501302594037296
4295.01,0.9558124294540767
4295.91,0.9486741076989729
4296.81,0.9389710868632389
4297.71,0.908974341425967
4298.61,0.8745295566650542
4299.51,0.8384565833579677
4300.41,0.8042068559459479
4301.31,0.7801209296345746
4302.21,0.7659631092679164
4303.11,0.7584494796751495
4304.01,0.7561122212952298
4304.91,0.7551166920473248
4305.81,0.7491293184866578
4306.71,0.7415193472481291
4307.61,0.7331736330147679
4308.51,0.7252231691662463
4309.41,0.7300741256483662
4310.31,0.741143601320238
4311.21,0.7682325633741257
4312.11,0.8052519409843949
4313.01,0.854177200828675
4313.91,0.9116416610820484
4314.81,0.9681190440200929
4315.71,1.0326836881748178
4316.61,1.0896321274453769
4317.51,1.1389840010783145
4318.41,1.1702782703094536
4319.31,1.182761558320089
4320.21,1.179833723525774
4321.12,1.1671346694431866
4322.02,1.1257153784385021
4322.92,1.0839835615942193
4323.82,1.028116647717154
4324.72,0.9808519136643873
4325.62,0.9507624392702368
4326.52,0.9407071036675027
4327.42,0.946613349838114
4328.32,0.9797348056851566
4329.22,1.0241058730727193
4330.12,1.0681707387944692
4331.02,1.1060721393185893
4331.92,1.1334566649360756
4332.82,1.1437893106200487
4333.72,1.1493852647278213
4334.62,1.1451472719866116
4335.52,1.1257254277512412
4336.42,1.0903472101037075
4337.32,1.044810488381027
4338.22,0.9840929607044645
4339.12,0.9366732684387334
4340.02,0.890373025844101
4340.92,0.8647351781982139
4341.82,0.8614946289917432
4342.72,0.87755313761188
4343.62,0.9076871548503672
4344.52,0.9493064474102874
4345.42,0.994379880515766
4346.32,1.0306517077747277
4347.22,1.0585564942731505
4348.12,1.0801133692013472
4349.02,1.0945350989947296
4349.92,1.0912415421869817
4350.82,1.0788693858045653
4351.72,1.0553345406313803
4352.62,1.0372158508202531
4353.52,1.024863168901219
4354.42,1.0237783800990905
4355.32,1.0304786165136908
4356.22,1.0457370908792354
4357.12,1.065554697028735
4358.02,1.074160256882951
4358.92,1.0861985058845935
4359.83,1.0976215230216115
4360.73,1.1078635706538105
4361.63,1.121587938838775
4362.53,1.136729026087559
4363.43,1.1492147061409639
4364.33,1.158889647518502
4365.23,1.1754608569612284
