wave,flux
3700.85,-4.733500225618758e-07
3701.75,-4.6759652987654446e-07
3702.65,-4.527447203526345e-07
3703.55,-4.316003581347284e-07
3704.45,-4.080244094861267e-07
3705.35,-3.868026904172445e-07
3706.25,-3.7192725811138047e-07
3707.15,-3.64006595037284e-07
3708.05,-3.666628449950937e-07
3708.96,-3.723075469143956e-07
3709.86,-3.842125067777881e-07
3710.76,-3.976480567480553e-07
3711.66,-4.1718552447870227e-07
3712.56,-4.3643441045308693e-07
3713.46,-4.583874644429363e-07
3714.36,-4.7501656707137323e-07
3715.26,-4.845525432171746e-07
3716.16,-4.876416424240518e-07
3717.06,-4.787875604716084e-07
3717.96,-4.588982114831242e-07
3718.86,-4.345959359393805e-07
3719.76,-4.017958112570979e-07
3720.66,-3.7486417030002605e-07
3721.56,-3.546396160100165e-07
3722.46,-3.5097268094495393e-07
3723.36,-3.609189373261306e-07
3724.26,-3.8190164713257044e-07
3725.16,-4.06155992806974e-07
3726.06,-4.267678440949077e-07
3726.96,-4.3888410800189317e-07
3727.86,-4.4349997627886917e-07
3728.76,-4.4662155864453124e-07
3729.66,-4.4229983944125084e-07
3730.56,-4.310858102151753e-07
3731.46,-4.154022237015366e-07
3732.36,-3.9191019631697306e-07
3733.26,-3.6371078778607714e-07
3734.16,-3.365025820412164e-07
3735.06,-3.1638666481907717e-07
3735.96,-3.08285907342188e-07
3736.86,-3.148953798090404e-07
3737.76,-3.34599356961656e-07
3738.66,-3.64799887015851e-07
3739.56,-3.944954661189912e-07
3740.46,-4.226890601738728e-07
3741.36,-4.393065420497033e-07
3742.26,-4.470466962831955e-07
3743.16,-4.3791697819938546e-07
3744.06,-4.2370471614894357e-07
3744.96,-4.034489189734804e-07
3745.86,-3.8349044034159003e-07
3746.76,-3.6286341394958926e-07
3747.67,-3.4338146283616875e-07
3748.57,-3.2824532783160867e-07
3749.47,-3.209597213633308e-07
3750.37,-3.2542629572401986e-07
3751.27,-3.440599152597985e-07
3752.17,-3.7451292322021385e-07
3753.07,-4.1083888297413714e-07
3753.97,-4.4714090571264987e-07
3754.87,-4.751976917486493e-07
3755.77,-4.865989913599416e-07
3756.67,-4.852405829804875e-07
3757.57,-4.75689542639644e-07
3758.47,-4.588129967368816e-07
3759.37,-4.4379252111167417e-07
3760.27,-4.3822152692731853e-07
3761.17,-4.3927271757089e-07
3762.07,-4.474099813446721e-07
3762.97,-4.538825874780391e-07
3763.87,-4.591866103585555e-07
3764.77,-4.62227436193341e-07
3765.67,-4.5798448920369613e-07
3766.57,-4.5445066052895763e-07
3767.47,-4.470170339971734e-07
3768.37,-4.4174261919713983e-07
3769.27,-4.3595523748790583e-07
3770.17,-4.336471187568629e-07
3771.07,-4.374023751940863e-07
3771.97,-4.472913653199255e-07
3772.87,-4.637093528862243e-07
3773.77,-4.830270176725336e-07
3774.67,-5.002829047797083e-07
3775.57,-5.129032108100993e-07
3776.47,-5.258173637985721e-07
3777.37,-5.37667241133884e-07
3778.27,-5.49810063455964e-07
3779.17,-5.624099562357949e-07
3780.07,-5.764309950343686e-07
3780.97,-5.879311353099029e-07
3781.87,-5.987599577523604e-07
3782.77,-6.041429673318631e-07
3783.67,-6.013488127298106e-07
3784.57,-5.969980939289654e-07
3785.47,-5.830133151651123e-07
3786.38,-5.630305001507036e-07
3787.28,-5.415600052187812e-07
3788.18,-5.196293217522965e-07
3789.08,-5.072644855042166e-07
3789.98,-4.960329996677952e-07
3790.88,-4.909146726828883e-07
3791.78,-4.88194713535933e-07
3792.68,-4.81146170866692e-07
3793.58,-4.6995991866267197e-07
3794.48,-4.550302697861418e-07
3795.38,-4.4003655207137793e-07
3796.28,-4.197164709264263e-07
3797.18,-4.036654274395725e-07
3798.08,-3.9492849605840615e-07
3798.98,-3.947103457743452e-07
3799.88,-4.065547772950289e-07
3800.78,-4.320338047787346e-07
3801.68,-4.662834545010601e-07
3802.58,-4.979933230972183e-07
3803.48,-5.296299035427939e-07
3804.38,-5.487960253965777e-07
3805.28,-5.62202219745639e-07
3806.18,-5.676137966066563e-07
3807.08,-5.69003270418286e-07
3807.98,-5.748223500423906e-07
3808.88,-5.785760828072605e-07
3809.78,-5.865845359375828e-07
3810.68,-5.926215039122864e-07
3811.58,-5.907569973702556e-07
3812.48,-5.814387316786264e-07
3813.38,-5.62148399131265e-07
3814.28,-5.411496489721044e-07
3815.18,-5.230856111434936e-07
3816.08,-5.113731906130069e-07
3816.98,-5.075188654164284e-07
3817.88,-5.053930784298958e-07
3818.78,-5.05434881248582e-07
3819.68,-5.009399641066264e-07
3820.58,-4.937500775519117e-07
3821.48,-4.894819638444812e-07
3822.38,-4.833294225927918e-07
3823.28,-4.7682395400572467e-07
3824.18,-4.680848284655309e-07
3825.09,-4.5503903188207995e-07
3825.99,-4.416792373488803e-07
3826.89,-4.291517124754481e-07
3827.79,-4.188689515269937e-07
3828.69,-4.154339437559422e-07
3829.59,-4.0813597314051123e-07
3830.49,-4.0434049958758923e-07
3831.39,-3.93882008638936e-07
3832.29,-3.799393181088563e-07
3833.19,-3.6449568296147977e-07
3834.09,-3.49445682583815e-07
3834.99,-3.401267953781554e-07
3835.89,-3.358437833585033e-07
3836.79,-3.374949903479075e-07
3837.69,-3.43306539604084e-07
3838.59,-3.548117403535688e-07
3839.49,-3.685551742324383e-07
3840.39,-3.895996512497982e-07
3841.29,-4.138889550300982e-07
3842.19,-4.432301094192721e-07
3843.09,-4.758757127874498e-07
3843.99,-5.045706765757853e-07
3844.89,-5.30196020061988e-07
3845.79,-5.455630572226295e-07
3846.69,-5.608411876910907e-07
3847.59,-5.691867554266814e-07
3848.49,-5.742585666159429e-07
3849.39,-5.778979607840706e-07
3850.29,-5.816800762093105e-07
3851.19,-5.811174506924014e-07
3852.09,-5.850062974219425e-07
3852.99,-5.854027720803916e-07
3853.89,-5.877366022023139e-07
3854.79,-5.824171098357767e-07
3855.69,-5.752057872688252e-07
3856.59,-5.629583668828422e-07
3857.49,-5.504525721586787e-07
3858.39,-5.408718625459051e-07
3859.29,-5.321389201656314e-07
3860.19,-5.305375499497017e-07
3861.09,-5.400488357444251e-07
3861.99,-5.551796466048852e-07
3862.9,-5.760499377716307e-07
3863.8,-5.913790981689643e-07
3864.7,-6.06993062326733e-07
3865.6,-6.141015990603843e-07
3866.5,-6.155152656612319e-07
3867.4,-6.118730031452002e-07
3868.3,-6.050271995147934e-07
3869.2,-5.976517955750214e-07
3870.1,-5.862048899514827e-07
3871.0,-5.721485420313187e-07
3871.9,-5.631872259484073e-07
3872.8,-5.539498402836949e-07
3873.7,-5.525007661195857e-07
3874.6,-5.595607751600431e-07
3875.5,-5.670133534671275e-07
3876.4,-5.751798559977915e-07
3877.3,-5.720804400474496e-07
3878.2,-5.669494276481912e-07
3879.1,-5.596407243319146e-07
3880.0,-5.534433723021474e-07
3880.9,-5.503915580060415e-07
3881.8,-5.466292823749743e-07
3882.7,-5.427791514138188e-07
3883.6,-5.364009116477675e-07
3884.5,-5.238544955897202e-07
3885.4,-5.097492961155336e-07
3886.3,-4.868216879889566e-07
3887.2,-4.698020708996647e-07
3888.1,-4.530344738997756e-07
3889.0,-4.464349961923591e-07
3889.9,-4.52122141291126e-07
3890.8,-4.716533669376832e-07
3891.7,-4.955714305421413e-07
3892.6,-5.234406636173009e-07
3893.5,-5.505867707926729e-07
3894.4,-5.705647881014008e-07
3895.3,-5.824977486933144e-07
3896.2,-5.954531960628092e-07
3897.1,-6.060808989387073e-07
3898.0,-6.171984530782081e-07
3898.9,-6.246696276956912e-07
3899.8,-6.306370190697005e-07
3900.7,-6.335984419303678e-07
3901.6,-6.363389672789815e-07
3902.51,-6.390495479593514e-07
3903.41,-6.363668081739029e-07
3904.31,-6.334521318040669e-07
3905.21,-6.287999354915935e-07
3906.11,-6.277498126265437e-07
3907.01,-6.351860322860343e-07
3907.91,-6.501604672703489e-07
3908.81,-6.692177349642262e-07
3909.71,-6.882683326985922e-07
3910.61,-7.057781740566265e-07
3911.51,-7.230294076212299e-07
3912.41,-7.312569974993663e-07
3913.31,-7.321612720683521e-07
3914.21,-7.299248953899817e-07
3915.11,-7.237477665749265e-07
3916.01,-7.138065691285107e-07
3916.91,-7.0714311010706e-07
3917.81,-6.961229968291856e-07
3918.71,-6.809849916346826e-07
3919.61,-6.638308655007318e-07
3920.51,-6.523826196874623e-07
3921.41,-6.433861695916874e-07
3922.31,-6.333026084803862e-07
3923.21,-6.275469691660792e-07
3924.11,-6.227261245804746e-07
3925.01,-6.128886324780556e-07
3925.91,-5.930086253612631e-07
3926.81,-5.650606202487503e-07
3927.71,-5.277352701813868e-07
3928.61,-4.825269870093884e-07
3929.51,-4.337258122548088e-07
3930.41,-3.8151224810831527e-07
3931.31,-3.3108618425221005e-07
3932.21,-2.882179077978152e-07
3933.11,-2.5352258933735435e-07
3934.01,-2.338819691223532e-07
3934.91,-2.3195237219791574e-07
3935.81,-2.471662166841652e-07
3936.71,-2.786343276379934e-07
3937.61,-3.224588884280721e-07
3938.51,-3.7287149325883907e-07
3939.42,-4.2662772449410704e-07
3940.32,-4.733623514169484e-07
3941.22,-5.10941581254065e-07
3942.12,-5.402177297991225e-07
3943.02,-5.638681543035373e-07
3943.92,-5.829068528371767e-07
3944.82,-6.017014444134862e-07
3945.72,-6.237760962711285e-07
3946.62,-6.423202383792339e-07
3947.52,-6.604032201459071e-07
3948.42,-6.790151675301118e-07
3949.32,-6.950078092430731e-07
3950.22,-7.070781793867211e-07
3951.12,-7.160582121095356e-07
3952.02,-7.258549485857287e-07
3952.92,-7.315985278641835e-07
3953.82,-7.35488350587606e-07
3954.72,-7.332237493096418e-07
3955.62,-7.313235691184771e-07
3956.52,-7.271589259145439e-07
3957.42,-7.202883841066022e-07
3958.32,-7.082873112943227e-07
3959.22,-6.990531908869366e-07
3960.12,-6.761445038355855e-07
3961.02,-6.487597636882561e-07
3961.92,-6.156843518437614e-07
3962.82,-5.725269320750524e-07
3963.72,-5.29310340033963e-07
3964.62,-4.814755280082589e-07
3965.52,-4.3348511236984937e-07
3966.42,-3.833624338596621e-07
3967.32,-3.37915304569997e-07
3968.22,-3.0056698066789273e-07
3969.12,-2.77175796439169e-07
3970.02,-2.713076312582906e-07
3970.92,-2.8687258599580124e-07
3971.82,-3.183881068968929e-07
3972.72,-3.638433502409846e-07
3973.62,-4.1785701818799017e-07
3974.52,-4.7252523489526833e-07
3975.42,-5.274285835525473e-07
3976.32,-5.782634719483201e-07
3977.22,-6.253070401817313e-07
3978.13,-6.68399885340479e-07
3979.03,-7.040909280044402e-07
3979.93,-7.390912735248141e-07
3980.83,-7.636355683093667e-07
3981.73,-7.829375467442184e-07
3982.63,-7.905506213909768e-07
3983.53,-7.986021617153341e-07
3984.43,-8.018801257235269e-07
3985.33,-8.112104825737025e-07
3986.23,-8.198404786205721e-07
3987.13,-8.297875057378358e-07
3988.03,-8.406285431495376e-07
3988.93,-8.538272767839785e-07
3989.83,-8.668252276634452e-07
3990.73,-8.732255357079707e-07
3991.63,-8.852956311292272e-07
3992.53,-8.875045966527602e-07
3993.43,-8.897396884621545e-07
3994.33,-8.948494470733469e-07
3995.23,-8.885183415157503e-07
3996.13,-8.815178614620908e-07
3997.03,-8.781535828000825e-07
3997.93,-8.721727581872408e-07
3998.83,-8.815571099545023e-07
3999.73,-8.917997246663218e-07
4000.63,-9.100712535313606e-07
4001.53,-9.225682624670884e-07
4002.43,-9.328310682293779e-07
4003.33,-9.290550057214539e-07
4004.23,-9.202687176944707e-07
4005.13,-9.039201561322446e-07
4006.03,-8.977469811526235e-07
4006.93,-8.915386191948239e-07
4007.83,-8.908436976594188e-07
4008.73,-9.048349749315895e-07
4009.63,-9.198857792589575e-07
4010.53,-9.353782565560946e-07
4011.43,-9.511064893435577e-07
4012.33,-9.600908960338677e-07
4013.23,-9.634883275209194e-07
4014.13,-9.673761986785368e-07
4015.03,-9.731420368380896e-07
4015.93,-9.752182204153892e-07
4016.84,-9.79784569068613e-07
4017.74,-9.876848355515447e-07
4018.64,-9.916338446285572e-07
4019.54,-9.965877514214498e-07
4020.44,-9.992966333610654e-07
4021.34,-1.0028006473535076e-06
4022.24,-1.0011894187248993e-06
4023.14,-9.990385299362202e-07
4024.04,-1.0001946095906054e-06
4024.94,-9.991811586242503e-07
4025.84,-1.006576979011631e-06
4026.74,-1.0055194657996573e-06
4027.64,-1.010967410139122e-06
4028.54,-1.0089967484757319e-06
4029.44,-9.967717526401375e-07
4030.34,-9.766109858583457e-07
4031.24,-9.442619575116821e-07
4032.14,-9.236588564218196e-07
4033.04,-9.089020429961267e-07
4033.94,-9.087042823956415e-07
4034.84,-9.220927477894806e-07
4035.74,-9.457533298632493e-07
4036.64,-9.749648769254142e-07
4037.54,-1.0047516911696153e-06
4038.44,-1.0266146892107855e-06
4039.34,-1.0394883624923981e-06
4040.24,-1.0486137038469358e-06
4041.14,-1.0394709992598724e-06
4042.04,-1.028170960549837e-06
4042.94,-1.0090926579772922e-06
4043.84,-9.802373439082914e-07
4044.74,-9.507543154940553e-07
4045.64,-9.257000520033919e-07
4046.54,-9.172432992594115e-07
4047.44,-9.244036069210821e-07
4048.34,-9.46914549688409e-07
4049.24,-9.753834856983341e-07
4050.14,-1.0005017809442555e-06
4051.04,-1.0233156269354784e-06
4051.94,-1.0280378880142326e-06
4052.84,-1.0279359966484777e-06
4053.74,-1.0175815562470823e-06
4054.65,-1.0005690011143078e-06
4055.55,-9.907457710049012e-07
4056.45,-9.746041019959753e-07
4057.35,-9.661611730911817e-07
4058.25,-9.656083239135184e-07
4059.15,-9.690230495764974e-07
4060.05,-9.734853345613773e-07
4060.95,-9.74827270443627e-07
4061.85,-9.69763105471764e-07
4062.75,-9.589304621062455e-07
4063.65,-9.463254503917899e-07
4064.55,-9.368358040746576e-07
4065.45,-9.379994312263421e-07
4066.35,-9.434082642060398e-07
4067.25,-9.581766188711421e-07
4068.15,-9.750251300934448e-07
4069.05,-9.870867933177728e-07
4069.95,-1.0003459887065806e-06
4070.85,-1.0039500978632752e-06
4071.75,-9.946089821532293e-07
4072.65,-9.931552103834258e-07
4073.55,-9.919928502013805e-07
4074.45,-9.84284020274587e-07
4075.35,-9.734325436226574e-07
4076.25,-9.621898536635809e-07
4077.15,-9.474216942435071e-07
4078.05,-9.361063989036797e-07
4078.95,-9.443452499142084e-07
4079.85,-9.582403010698836e-07
4080.75,-9.809777696933508e-07
4081.65,-1.0066584962956207e-06
4082.55,-1.024001063891696e-06
4083.45,-1.0364585375945144e-06
4084.35,-1.0415556198055003e-06
4085.25,-1.0409881013644097e-06
4086.15,-1.0551395282047557e-06
4087.05,-1.0616133372144972e-06
4087.95,-1.0780313733618765e-06
4088.85,-1.091382657280277e-06
4089.75,-1.1032585758619374e-06
4090.65,-1.1110769400806056e-06
4091.55,-1.1017988379355459e-06
4092.45,-1.092828070770666e-06
4093.36,-1.0811650400387763e-06
4094.26,-1.0592412295400925e-06
4095.16,-1.0397641895687877e-06
4096.06,-1.009978169073994e-06
4096.96,-9.84165637599165e-07
4097.86,-9.505595557346834e-07
4098.76,-9.134040508001735e-07
4099.66,-8.785264066057552e-07
4100.56,-8.439097078121916e-07
4101.46,-8.115803185502193e-07
4102.36,-8.000710780247109e-07
4103.26,-8.011469463580454e-07
4104.16,-8.241887903667743e-07
4105.06,-8.580512935581548e-07
4105.96,-8.992802418790355e-07
4106.86,-9.390092399781571e-07
4107.76,-9.694847059728922e-07
4108.66,-9.95246978004012e-07
4109.56,-1.010433706682867e-06
4110.46,-1.0157300005829677e-06
4111.36,-1.0337280413651408e-06
4112.26,-1.03997769675744e-06
4113.16,-1.0571607597548818e-06
4114.06,-1.0732214187514081e-06
4114.96,-1.0894151074635802e-06
4115.86,-1.0997253018768333e-06
4116.76,-1.1101575894627269e-06
4117.66,-1.1014931721050714e-06
4118.56,-1.100599095372025e-06
4119.46,-1.0929653359405866e-06
4120.36,-1.0905868924542884e-06
4121.26,-1.0825390836717878e-06
4122.16,-1.0831473093105058e-06
4123.06,-1.0841964325400675e-06
4123.96,-1.0904343916387313e-06
4124.86,-1.0971250111877373e-06
4125.76,-1.1019046570156128e-06
4126.66,-1.0986285689247533e-06
4127.56,-1.0993292376714255e-06
4128.46,-1.0865814353342894e-06
4129.36,-1.0792085656266443e-06
4130.26,-1.0717683547165814e-06
4131.17,-1.0595145775885742e-06
4132.06,-1.0481553079243545e-06
4132.97,-1.0413792371565267e-06
4133.87,-1.0441468944763097e-06
4134.77,-1.059095378163908e-06
4135.67,-1.0743610674593876e-06
4136.57,-1.0989370173441058e-06
4137.47,-1.1240336639125416e-06
4138.37,-1.1446207656428024e-06
4139.27,-1.1563604972491554e-06
4140.17,-1.1576432886076524e-06
4141.07,-1.1493633359155001e-06
4141.97,-1.1306199905968172e-06
4142.87,-1.1106480573002066e-06
4143.77,-1.088437062740233e-06
4144.67,-1.0776668563128899e-06
4145.57,-1.0733264526694785e-06
4146.47,-1.0865698349351806e-06
4147.37,-1.1019929318781818e-06
4148.27,-1.1119600220948475e-06
4149.17,-1.1207196571550021e-06
4150.07,-1.1174631617282543e-06
4150.97,-1.1162557876632887e-06
4151.87,-1.1099128004609113e-06
4152.77,-1.107918065737683e-06
4153.67,-1.102329614410745e-06
4154.57,-1.0915551637471808e-06
4155.47,-1.093049662358445e-06
4156.37,-1.09406274200542e-06
4157.27,-1.101745259299453e-06
4158.17,-1.1121064901715546e-06
4159.07,-1.1297880779820867e-06
4159.97,-1.1452920704528339e-06
4160.87,-1.161122434683683e-06
4161.77,-1.1799280341578081e-06
4162.67,-1.1882485409617828e-06
4163.57,-1.1956910287484748e-06
4164.47,-1.1996784862356414e-06
4165.37,-1.197461071034129e-06
4166.27,-1.1895093047105358e-06
4167.17,-1.1817041463313073e-06
4168.07,-1.1712711010967051e-06
4168.98,-1.1573436298547711e-06
4169.88,-1.1486362175101115e-06
4170.78,-1.131697908466979e-06
4171.68,-1.1153810466374546e-06
4172.58,-1.098238525625848e-06
4173.48,-1.080322687729012e-06
4174.38,-1.0685342579817613e-06
4175.28,-1.0675800387994434e-06
4176.18,-1.0727711381882995e-06
4177.08,-1.0823948169893049e-06
4177.98,-1.0892865307432531e-06
4178.88,-1.1043665436469572e-06
4179.78,-1.1172158720892771e-06
4180.68,-1.119691423708447e-06
4181.58,-1.132717394312546e-06
4182.48,-1.143750700136323e-06
4183.38,-1.1490509839950031e-06
4184.28,-1.153031698084624e-06
4185.18,-1.1532221265508796e-06
4186.08,-1.1557980566495194e-06
4186.98,-1.160655436201537e-06
4187.88,-1.1601285115834364e-06
4188.78,-1.161519670136821e-06
4189.68,-1.1698760614260043e-06
4190.58,-1.1768260781838606e-06
4191.48,-1.1884216645796708e-06
4192.38,-1.195485634143073e-06
4193.28,-1.2065054289165521e-06
4194.18,-1.2071054195907889e-06
4195.08,-1.2035869615569399e-06
4195.98,-1.1870473005003738e-06
4196.88,-1.1665438214426666e-06
4197.78,-1.145718014865149e-06
4198.68,-1.1240345246109442e-06
4199.58,-1.1143021701229855e-06
4200.48,-1.111736804489993e-06
4201.38,-1.1087423395238656e-06
4202.28,-1.1211319678714777e-06
4203.18,-1.1325840790762259e-06
4204.08,-1.1466894430959077e-06
4204.98,-1.1664865342294107e-06
4205.88,-1.1865486422137408e-06
4206.79,-1.2081668438772306e-06
4207.69,-1.2214050060605328e-06
4208.59,-1.2370570247011778e-06
4209.49,-1.2524828511879113e-06
4210.39,-1.2555155444436203e-06
4211.29,-1.2654552306896566e-06
4212.19,-1.260739563493936e-06
4213.09,-1.258214017594784e-06
4213.99,-1.2447553153415293e-06
4214.89,-1.23373149448231e-06
4215.79,-1.2224269404461543e-06
4216.69,-1.230751838859909e-06
4217.59,-1.2318264682050869e-06
4218.49,-1.2529389465562441e-06
4219.39,-1.2712435097653641e-06
4220.29,-1.285406782620796e-06
4221.19,-1.2909762069588511e-06
4222.09,-1.2773919063934816e-06
4222.99,-1.254043851415296e-06
4223.89,-1.209827317977073e-06
4224.79,-1.163495841858739e-06
4225.69,-1.1100304370247473e-06
4226.59,-1.0733096503912924e-06
4227.49,-1.0620063110650228e-06
4228.39,-1.0734062145302492e-06
4229.29,-1.1126387991022752e-06
4230.19,-1.1516572428372586e-06
4231.09,-1.1974856460084815e-06
4231.99,-1.2314997094172822e-06
4232.89,-1.2483485186593728e-06
4233.79,-1.2557575064568463e-06
4234.69,-1.2492795265078444e-06
4235.59,-1.239067381210197e-06
4236.49,-1.2259603128500442e-06
4237.39,-1.2250953617447445e-06
4238.29,-1.2202025029940969e-06
4239.19,-1.2303276954820468e-06
4240.09,-1.247419855926403e-06
4240.99,-1.26327790508585e-06
4241.89,-1.2845057489547582e-06
4242.79,-1.3006370484170848e-06
4243.69,-1.3166221255135695e-06
4244.59,-1.3298864748408393e-06
4245.5,-1.3323514914460946e-06
4246.4,-1.32351055591377e-06
4247.3,-1.307795928619679e-06
4248.2,-1.2914845360967164e-06
4249.1,-1.2706793952898833e-06
4250.0,-1.250159149418706e-06
4250.9,-1.2382372171257093e-06
4251.8,-1.2424549526009877e-06
4252.7,-1.249247527537551e-06
4253.6,-1.2553952515435454e-06
4254.5,-1.2615542656029256e-06
4255.4,-1.2688624216168862e-06
4256.3,-1.2793613026607585e-06
4257.2,-1.2833695511852989e-06
4258.1,-1.2811680154489648e-06
4259.0,-1.275383594386894e-06
4259.9,-1.2660356427207917e-06
4260.8,-1.2610056917761071e-06
4261.7,-1.2689304881310386e-06
4262.6,-1.2880379236009256e-06
4263.5,-1.3080587729262303e-06
4264.4,-1.347323371562611e-06
4265.3,-1.372043234959031e-06
4266.2,-1.3785380875340545e-06
4267.1,-1.3780072439548752e-06
4268.0,-1.3639922188648235e-06
4268.9,-1.3340208681163264e-06
4269.8,-1.2989072737918155e-06
4270.7,-1.258179205177383e-06
4271.6,-1.2127954424655967e-06
4272.5,-1.1906959869056319e-06
4273.4,-1.1780822131499078e-06
4274.3,-1.1812207486772068e-06
4275.2,-1.1995162335397652e-06
4276.1,-1.2310839637479205e-06
4277.0,-1.2617633039937652e-06
