wave,flux
3700.85,-0.004874970090609703
3701.75,-0.0048980634573840545
3702.65,-0.0048270551392133425
3703.55,-0.004693116923932242
3704.45,-0.004553446935866491
3705.35,-0.004417972638899882
3706.25,-0.004379022166735633
3707.15,-0.0044036640667637905
3708.05,-0.004497729084781347
3708.96,-0.004620343897552993
3709.86,-0.004763898358997634
3710.76,-0.004958670659049884
3711.66,-0.005137545483432871
3712.56,-0.005359296568452132
3713.46,-0.005629091309673574
3714.36,-0.005922399349223054
3715.26,-0.006170929582731936
3716.16,-0.006313538174633121
3717.06,-0.006403982328377391
3717.96,-0.006344513604552631
3718.86,-0.0061493535512766465
3719.76,-0.005859126183010636
3720.66,-0.005578645249828703
3721.56,-0.005354472479303186
3722.46,-0.005327870520558562
3723.36,-0.005528101055544185
3724.26,-0.005891958314522403
3725.16,-0.006303154858703561
3726.06,-0.006673717424506623
3726.96,-0.007008871619063643
3727.86,-0.007228212621765351
3728.76,-0.007370683788832471
3729.66,-0.0074147277476741165
3730.56,-0.007400862387574088
3731.46,-0.007255474859094578
3732.36,-0.006976277775392199
3733.26,-0.006614977405261565
3734.16,-0.0062435416618338655
3735.06,-0.006024868421012723
3735.96,-0.00596936504791667
3736.86,-0.006194269343128167
3737.76,-0.006642306259796769
3738.66,-0.007238604234858497
3739.56,-0.007917949180725877
3740.46,-0.008549946823090121
3741.36,-0.0090407470975774
3742.26,-0.00928986212475069
3743.16,-0.009311057309611603
3744.06,-0.009220056698081134
3744.96,-0.009028925128518094
3745.86,-0.008795295689309599
3746.76,-0.008449452935292062
3747.67,-0.00812863155779769
3748.57,-0.007875097679746515
3749.47,-0.007724573014402322
3750.37,-0.007814999648660493
3751.27,-0.00818836936145412
3752.17,-0.00893997483876655
3753.07,-0.00981774509945494
3753.97,-0.010773741835479264
3754.87,-0.011562318748987095
3755.77,-0.012137132258707202
3756.67,-0.012428139192545644
3757.57,-0.012517063028480727
3758.47,-0.012391885556090302
3759.37,-0.012328897312225189
3760.27,-0.012387533325184606
3761.17,-0.01269908952851552
3762.07,-0.013003117177679106
3762.97,-0.013484715901413145
3763.87,-0.01386837801532493
3764.77,-0.014185895783841527
3765.67,-0.01433285707284861
3766.57,-0.014283056982369473
3767.47,-0.014221101337846785
3768.37,-0.01406305986616926
3769.27,-0.01382998285733022
3770.17,-0.013805705449411827
3771.07,-0.013940291333264607
3771.97,-0.014380115338295966
3772.87,-0.015107037760901252
3773.77,-0.01595347027004992
3774.67,-0.016929770507300438
3775.57,-0.017711132375038744
3776.47,-0.01853296211622092
3777.37,-0.019403153865764793
3778.27,-0.020190060945454075
3779.17,-0.02111134401900799
3780.07,-0.02190440032787006
3780.97,-0.022655057270834496
3781.87,-0.023541513134796566
3782.77,-0.02404709857645854
3783.67,-0.0245173004689904
3784.57,-0.02472614922338641
3785.47,-0.024604315340984576
3786.38,-0.02447688639372875
3787.28,-0.024088348746496645
3788.18,-0.0239737753208951
3789.08,-0.023972020792504507
3789.98,-0.023902087047744342
3790.88,-0.02409286956834274
3791.78,-0.02425679321792013
3792.68,-0.024153405562563474
3793.58,-0.0240314325598125
3794.48,-0.023493549202949805
3795.38,-0.023043052379001
3796.28,-0.02222769524979103
3797.18,-0.021707664471579912
3798.08,-0.021450584755582727
3798.98,-0.021717153973989895
3799.88,-0.022818170389753978
3800.78,-0.024412686013731817
3801.68,-0.026753243786041134
3802.58,-0.02911168691380007
3803.48,-0.03151145229099431
3804.38,-0.033449404463916615
3805.28,-0.034961233653138794
3806.18,-0.03633518187431889
3807.08,-0.037152607091168736
3807.98,-0.03815419020444726
3808.88,-0.0392116293566977
3809.78,-0.0403586985660997
3810.68,-0.04154209262332786
3811.58,-0.0423289570999697
3812.48,-0.042453091250663176
3813.38,-0.04253179097692174
3814.28,-0.04212641335102491
3815.18,-0.042076115952636314
3816.08,-0.04234726979487273
3816.98,-0.043094026725693915
3817.88,-0.04395483622440661
3818.78,-0.04470507128017812
3819.68,-0.04549398555647
3820.58,-0.04590669522930788
3821.48,-0.04641785744208214
3822.38,-0.0469477744156358
3823.28,-0.04721140065959714
3824.18,-0.04737171775068429
3825.09,-0.04728330321693066
3825.99,-0.0468880411324564
3826.89,-0.04681127768677149
3827.79,-0.04679438151748412
3828.69,-0.04687611459418899
3829.59,-0.04704800425917821
3830.49,-0.04684920163189229
3831.39,-0.046545950268246
3832.29,-0.04516829162989614
3833.19,-0.043932295932836256
3834.09,-0.0425025515256318
3834.99,-0.04166452750549151
3835.89,-0.04172063888350272
3836.79,-0.04268216804870847
3837.69,-0.044511928183216455
3838.59,-0.04711658754824527
3839.49,-0.05051542968239981
3840.39,-0.05474707338581086
3841.29,-0.05980247604901518
3842.19,-0.06527585897238802
3843.09,-0.0706011711072258
3843.99,-0.07620088556732843
3844.89,-0.08131473505427726
3845.79,-0.08599668255566804
3846.69,-0.08999839957854956
3847.59,-0.09371005160955137
3848.49,-0.09646592990381944
3849.39,-0.09989136552018009
3850.29,-0.1024985109887788
3851.19,-0.1055810634014793
3852.09,-0.1090665497463525
3852.99,-0.11223596630130653
3853.89,-0.11510313884106131
3854.79,-0.11781761432825402
3855.69,-0.11951249593080279
3856.59,-0.12069053866134355
3857.49,-0.12203287696342735
3858.39,-0.12271399880137775
3859.29,-0.12448291588652251
3860.19,-0.12702835079708033
3861.09,-0.1321545946023614
3861.99,-0.13842597027279022
3862.9,-0.1451889914755028
3863.8,-0.15329927564202603
3864.7,-0.1592961184040462
3865.6,-0.16471561839840995
3866.5,-0.17049362398429438
3867.4,-0.1739847605418042
3868.3,-0.17877423288951935
3869.2,-0.18207849292173428
3870.1,-0.18459237775181297
3871.0,-0.1858941996275085
3871.9,-0.18786623370968097
3872.8,-0.1890974519316732
3873.7,-0.19301326052448686
3874.6,-0.19840991432626745
3875.5,-0.20538390477892013
3876.4,-0.21216228108134363
3877.3,-0.21737839045577495
3878.2,-0.223148472484215
3879.1,-0.22752638585631146
3880.0,-0.23267544283880165
3880.9,-0.23881394699532837
3881.8,-0.24523603906772865
3882.7,-0.250451308170315
3883.6,-0.25449179795757426
3884.5,-0.25671835148858785
3885.4,-0.2553605366007497
3886.3,-0.25293743276855096
3887.2,-0.2486750759934951
3888.1,-0.2462343679540424
3889.0,-0.24763394017607576
3889.9,-0.25626011485005856
3890.8,-0.2721665818866676
3891.7,-0.29517723282274
3892.6,-0.32361232894733827
3893.5,-0.3526729033770129
3894.4,-0.3806996112599435
3895.3,-0.4095346316045386
3896.2,-0.43877251844987103
3897.1,-0.46677654878910385
3898.0,-0.4938616500287223
3898.9,-0.5269303772538876
3899.8,-0.5555846927264372
3900.7,-0.5883826458797328
3901.6,-0.6223495975210722
3902.51,-0.6562185639796612
3903.41,-0.6904887800424178
3904.31,-0.7213381560999662
3905.21,-0.7594514091096483
3906.11,-0.8043535811343114
3907.01,-0.8582489963044323
3907.91,-0.920834001598438
3908.81,-1.0084383419436969
3909.71,-1.0984422969357241
3910.61,-1.199917524410694
3911.51,-1.3067164038508454
3912.41,-1.4208518664225414
3913.31,-1.5353593573752884
3914.21,-1.6638776878779107
3915.11,-1.7877441538157213
3916.01,-1.95903410994129
3916.91,-2.1284910676797475
3917.81,-2.352458203412191
3918.71,-2.618599256791924
3919.61,-2.9448494847010744
3920.51,-3.381628603760804
3921.41,-3.9749618347622016
3922.31,-4.835849819083395
3923.21,-6.143661956950792
3924.11,-8.396722999672312
3925.01,-13.06879980293169
3925.91,-29.504440569400355
3926.81,97.725803418047
3927.71,17.269067213308546
3928.61,8.944004352047669
3929.51,5.653474863540764
3930.41,3.889917397840264
3931.31,2.781634224234633
3932.21,2.0618429073874593
3933.11,1.5768674966172904
3934.01,1.2818195497197251
3934.91,1.1445322037038814
3935.81,1.10955068035562
3936.71,1.1492803104223623
3937.61,1.2316038357008867
3938.51,1.33130591609967
3939.42,1.4192445256364965
3940.32,1.4829563701290362
3941.22,1.520173726463274
3942.12,1.5255147634674797
3943.02,1.5096891505654806
3943.92,1.5030147250136299
3944.82,1.4800330237255652
3945.72,1.4547294305108611
3946.62,1.4481483531605173
3947.52,1.4272429096787733
3948.42,1.4065926136960216
3949.32,1.3878258273006074
3950.22,1.358220128357822
3951.12,1.338202612675674
3952.02,1.3165228707437306
3952.92,1.2958738367299265
3953.82,1.2649845038535295
3954.72,1.2437453087094263
3955.62,1.2159010685709482
3956.52,1.186201129645514
3957.42,1.1561722714112337
3958.32,1.1251297730516252
3959.22,1.0911252717886806
3960.12,1.0471419910170288
3961.02,0.9980695032490944
3961.92,0.9394485146986767
3962.82,0.8714734157450299
3963.72,0.7993723460949744
3964.62,0.7272585039179735
3965.52,0.6479303401099881
3966.42,0.5702184699731531
3967.32,0.4923039610380803
3968.22,0.42887382417375197
3969.12,0.3903861568004099
3970.02,0.3740256772605696
3970.92,0.38731568665867777
3971.82,0.4266560227952105
3972.72,0.4826470149877995
3973.62,0.5448294553630809
3974.52,0.6117722007141932
3975.42,0.675104395163438
3976.32,0.7284387990825718
3977.22,0.7837499225791188
3978.13,0.8260383198092781
3979.03,0.8627715059196134
3979.93,0.8901418089248921
3980.83,0.9070429458554793
3981.73,0.9215899523776117
3982.63,0.927548732861056
3983.53,0.9339051727088211
3984.43,0.9340455227965159
3985.33,0.9380006081645479
3986.23,0.94086482001316
3987.13,0.9512550373730628
3988.03,0.9617882518012962
3988.93,0.9666871548931697
3989.83,0.9729054525459809
3990.73,0.9794658968370512
3991.63,0.9829069462634351
3992.53,0.9887895052335305
3993.43,0.9924962743975754
3994.33,0.9868461864409628
3995.23,0.9750713466343439
3996.13,0.9699565121473271
3997.03,0.9573285583585507
3997.93,0.9547576532196093
3998.83,0.9535449796578637
3999.73,0.959976883225169
4000.63,0.9729051282031979
4001.53,0.984760711048735
4002.43,0.9917405711164841
4003.33,0.9874951001310379
4004.23,0.9823111682082584
4005.13,0.971038993876605
4006.03,0.9606042875903517
4006.93,0.9560168925475521
4007.83,0.9569147571803862
4008.73,0.9667002444541742
4009.63,0.9819192828849902
4010.53,0.9898519316859979
4011.43,0.9974969204656337
4012.33,1.0044375139959958
4013.23,1.0078772262365838
4014.13,1.0138713933719141
4015.03,1.0093055868814949
4015.93,1.0150592357352066
4016.84,1.011940495642192
4017.74,1.0116621603369635
4018.64,1.0139507892363195
4019.54,1.0187556895344385
4020.44,1.0200238551303944
4021.34,1.0208386113476033
4022.24,1.0218109108790698
4023.14,1.0183288813908686
4024.04,1.0213268157323603
4024.94,1.0225885855209351
4025.84,1.0253997386441651
4026.74,1.0354311796918374
4027.64,1.0351284387535382
4028.54,1.0310644481661209
4029.44,1.026451037505836
4030.34,1.0095590559949996
4031.24,0.9903082358290148
4032.14,0.9748933702043614
4033.04,0.9624072802461264
4033.94,0.9631497843294492
4034.84,0.9717376424272496
4035.74,0.9900331696306053
4036.64,1.0118565770764227
4037.54,1.0337577799194246
4038.44,1.0556860905123033
4039.34,1.060224158673079
4040.24,1.0656606587540087
4041.14,1.0621263866879525
4042.04,1.048272747637
4042.94,1.0299982273072514
4043.84,1.01346192692517
4044.74,0.9954939937993428
4045.64,0.977406107466562
4046.54,0.9717486854341045
4047.44,0.9748161741894136
4048.34,0.9917130164595755
4049.24,1.0055406679728869
4050.14,1.028643942027268
4051.04,1.0441036435382907
4051.94,1.0454878192019486
4052.84,1.0466159285523544
4053.74,1.041135736647962
4054.65,1.030040695210507
4055.55,1.0189937232185817
4056.45,1.0173011456124408
4057.35,1.0123788779928717
4058.25,1.0118819149627463
4059.15,1.0149158183748803
4060.05,1.019388387770901
4060.95,1.018254491035502
4061.85,1.0126584313533316
4062.75,1.0045693756184417
4063.65,0.9899095229909723
4064.55,0.9884340521081595
4065.45,0.9801870748575777
4066.35,0.9893397368790263
4067.25,0.9976318677171172
4068.15,1.0098195456367334
4069.05,1.0170877828703047
4069.95,1.021939277609419
4070.85,1.0230173996081302
4071.75,1.0228275372070543
4072.65,1.0155030653382773
4073.55,1.0079341218041167
4074.45,1.0008984220429118
4075.35,0.9890822601081198
4076.25,0.976769127896883
4077.15,0.9630099725774294
4078.05,0.9493340652720066
4078.95,0.9552546855633451
4079.85,0.9637701468558402
4080.75,0.9786681113376259
4081.65,0.9941527706812571
4082.55,1.0077913330577777
4083.45,1.0213379488525087
4084.35,1.0215241463478812
4085.25,1.0228484220083132
4086.15,1.0294496902581778
4087.05,1.036586433422363
4087.95,1.0484199067728668
4088.85,1.0575787137041885
4089.75,1.0679238787957395
4090.65,1.067196671919681
4091.55,1.0645009880374166
4092.45,1.0576058167636528
4093.36,1.043832219112231
4094.26,1.0191562481783756
4095.16,1.001891187590036
4096.06,0.9853702836869167
4096.96,0.951173575530069
4097.86,0.9189575159770327
4098.76,0.8882227497897903
4099.66,0.843213371275389
4100.56,0.8058195960160215
4101.46,0.7767880619388904
4102.36,0.7594855508677811
4103.26,0.7552271952244439
4104.16,0.7737396484569564
4105.06,0.8079128205898972
4105.96,0.8426537150761011
4106.86,0.8821275115386714
4107.76,0.909595836600285
4108.66,0.9337950743655385
4109.56,0.9547521611988666
4110.46,0.9655235114262268
4111.36,0.9788932194662866
4112.26,0.9885128628050461
4113.16,0.9979669432169984
4114.06,1.0156156856410412
4114.96,1.0228260314511581
4115.86,1.0336038294084067
4116.76,1.03706326995056
4117.66,1.0357953861580005
4118.56,1.031423102710077
4119.46,1.0249154692728144
4120.36,1.0241865685362033
4121.26,1.0168872714712267
4122.16,1.02103610477874
4123.06,1.0211667813447114
4123.96,1.019760488903564
4124.86,1.0317121758451522
4125.76,1.0311379423180316
4126.66,1.0315505464480552
4127.56,1.028206241989788
4128.46,1.0233829281825817
4129.36,1.0168093473079716
4130.26,1.0083186888366467
4131.17,1.002270437476757
4132.06,0.9947851153707424
4132.97,0.9926175345046766
4133.87,0.986025521593892
4134.77,0.9907891217031544
4135.67,1.0041848197067071
4136.57,1.0193899049566515
4137.47,1.033599539539101
4138.37,1.046791661131215
4139.27,1.0542772643890939
4140.17,1.053289946290056
4141.07,1.0495092607497738
4141.97,1.0374698757823222
4142.87,1.0211057880171994
4143.77,1.0053727337203053
4144.67,0.9995779599222523
4145.57,0.9965588571331836
4146.47,1.0025299368120824
4147.37,1.0175029356415854
4148.27,1.0239098709652454
4149.17,1.0245978892082914
4150.07,1.0318395924752037
4150.97,1.0276024542636777
4151.87,1.023106230144033
4152.77,1.0180338555442168
4153.67,1.0115327248811183
4154.57,1.0072139877741528
4155.47,1.0052949559313344
4156.37,1.004237203803197
4157.27,1.010057273177633
4158.17,1.0201932076676843
4159.07,1.019569196112376
4159.97,1.0335805811722587
4160.87,1.0420694529377112
4161.77,1.0472768616274188
4162.67,1.0517372941879606
4163.57,1.0573460416827565
4164.47,1.054431777128579
4165.37,1.0560222072512049
4166.27,1.0519622151655854
4167.17,1.0459220508109872
4168.07,1.03819617781258
4168.98,1.0299472559180902
4169.88,1.0165686572877402
4170.78,1.0068944919821943
4171.68,0.9916059465681156
4172.58,0.9815474024208288
4173.48,0.9643994422575071
4174.38,0.9551443169218424
4175.28,0.9550659212132346
4176.18,0.9585614937431792
4177.08,0.9673000263461448
4177.98,0.9715879222489042
4178.88,0.983976851798512
4179.78,0.9925465274609517
4180.68,0.9951890250399081
4181.58,1.0026879222046239
4182.48,1.0056909920770691
4183.38,1.0088977851302088
4184.28,1.0074897694813771
4185.18,1.0095796539662731
4186.08,1.0061590844976045
4186.98,1.0000865580541396
4187.88,1.004098015689662
4188.78,1.00417363176952
4189.68,1.0043330554645242
4190.58,1.0079891503754386
4191.48,1.0182207362574303
4192.38,1.024709152024572
4193.28,1.0257383540574594
4194.18,1.0302148377697935
4195.08,1.0254521408213373
4195.98,1.015877408075918
4196.88,1.0063611276572701
4197.78,0.9969017614745016
4198.68,0.9808842457126754
4199.58,0.9716815794054954
4200.48,0.9673354395338377
4201.38,0.9656178392266231
4202.28,0.968611719058145
4203.18,0.9716895796315052
4204.08,0.980867422577658
4204.98,0.9880935419548535
4205.88,0.999869373289239
4206.79,1.0090901537455552
4207.69,1.020725876450342
4208.59,1.0341741416529062
4209.49,1.0376309270426205
4210.39,1.0424364202132244
4211.29,1.0441679661607979
4212.19,1.041971840787089
4213.09,1.0409030599619362
4213.99,1.0321810211346851
4214.89,1.0301783933055266
4215.79,1.0143603945734583
4216.69,1.0133425109213408
4217.59,1.0108217703504845
4218.49,1.01800365967931
4219.39,1.026464754202745
4220.29,1.0365740669960182
4221.19,1.0413578362659073
4222.09,1.0325408111063428
4222.99,1.0173815370054455
4223.89,0.9944779045599954
4224.79,0.9663378277249947
4225.69,0.9360588069806326
4226.59,0.9159037416359659
4227.49,0.9049562772802235
4228.39,0.9152630142717634
4229.29,0.9346382137425635
4230.19,0.9625801201812283
4231.09,0.9853820709446935
4231.99,1.00453509005488
4232.89,1.0169929227115893
4233.79,1.0231645762804529
4234.69,1.0130808889858676
4235.59,1.008046409708292
4236.49,1.0042909896611871
4237.39,1.0030185354583299
4238.29,1.0004203830985248
4239.19,1.0047348269569014
4240.09,1.0114691244130412
4240.99,1.023875354790884
4241.89,1.02715957568416
4242.79,1.03594419267852
4243.69,1.0418808798759744
4244.59,1.0523166549322693
4245.5,1.044655918178522
4246.4,1.0403656973719473
4247.3,1.0313808888444207
4248.2,1.0183585422364279
4249.1,1.0076244117766058
4250.0,1.001581704529417
4250.9,0.9984552807835918
4251.8,1.0089469152824104
4252.7,1.0123394680721909
4253.6,1.0198500289464654
4254.5,1.0213897184565623
4255.4,1.030004606584366
4256.3,1.036045222366687
4257.2,1.0312350076225885
4258.1,1.0313902532909363
4259.0,1.0252514943103246
4259.9,1.0302775664091803
4260.8,1.0137235732801744
4261.7,1.020362802267506
4262.6,1.0297480680336106
4263.5,1.0452222648473564
4264.4,1.0554721827057816
4265.3,1.0666776637006807
4266.2,1.0768910499296436
4267.1,1.077518429419725
4268.0,1.0683951098032618
4268.9,1.052181786775377
4269.8,1.0334722937582295
4270.7,1.013638702908559
4271.6,0.9904267261469663
4272.5,0.9758058038859655
4273.4,0.968883690458557
4274.3,0.9694747189325543
4275.2,0.9814489835964387
4276.1,0.994307120549463
4277.0,1.0140242188377249
4277.9,1.0311646099779392
4278.8,1.0396682087562668
4279.7,1.0468144548060665
4280.6,1.045583870346732
4281.5,1.0393634092258817
4282.4,1.0385659494433184
4283.31,1.0309906427250068
4284.21,1.0269984372519099
4285.11,1.0166944450179582
4286.01,1.0099304915778473
4286.91,0.9979814006075142
4287.81,0.979834700411384
4288.71,0.9723675336063733
4289.61,0.9583970175820816
4290.51,0.9518586652057434
4291.41,0.9501557878692597
4292.31,0.9564770863935528
4293.21,0.9655480367909164
4294.11,0.9747387261958076
4295.01,0.9771725098533499
4295.91,0.9715554110893184
4296.81,0.9594969542396276
4297.71,0.9404128344625781
4298.61,0.9152848444547638
4299.51,0.8915271694271542
4300.41,0.8686119559437124
4301.31,0.8531475260075302
4302.21,0.8447855712500006
4303.11,0.8425913785220812
4304.01,0.8388664378838407
4304.91,0.8425548812298757
4305.81,0.8456503981653387
4306.71,0.8430322991246072
4307.61,0.8395929943494458
4308.51,0.835657964205634
4309.41,0.8349320176294646
4310.31,0.841320483348016
4311.21,0.854669846606341
4312.11,0.875007013627637
4313.01,0.899342026773914
4313.91,0.9299771588841438
4314.81,0.9660766820345872
4315.71,1.000488734393083
4316.61,1.0372148617503076
4317.51,1.0711350142904197
4318.41,1.0959826764116163
4319.31,1.1058036656925352
4320.21,1.1088125651677774
4321.12,1.09585992508544
4322.02,1.0801834610569463
4322.92,1.055322692823934
4323.82,1.0238666939207457
4324.72,1.000307868204645
4325.62,0.9829215076754357
4326.52,0.9759609119770392
4327.42,0.9821743924436891
4328.32,0.9930542584575253
4329.22,1.0196765150216418
4330.12,1.038224787189764
4331.02,1.0560653933535926
4331.92,1.0609084220511436
4332.82,1.063911940842436
4333.72,1.0601772150462963
4334.62,1.0431931364231375
4335.52,1.0236050656781932
4336.42,0.9891491748039695
4337.32,0.9523071519429698
4338.22,0.9051159317810964
4339.12,0.8588820558476841
4340.02,0.8232571121448196
4340.92,0.800015436720247
4341.82,0.7945304775989405
4342.72,0.810097944996827
4343.62,0.8366267064256315
4344.52,0.8767137585527786
4345.42,0.9181771468324642
4346.32,0.953479877790989
4347.22,0.9829574397290475
4348.12,1.0037590686018
4349.02,1.0198345640325388
4349.92,1.0166606163672156
4350.82,1.0169573185808005
4351.72,1.0059032317073533
4352.62,1.0023982505473596
4353.52,1.0033061540998964
4354.42,1.004248590556084
4355.32,1.0209416880550706
