wave,flux
3700.85,-4.041093678217234e-05
3701.75,-3.9763644847011636e-05
3702.65,-3.7974572340509275e-05
3703.55,-3.538897918067807e-05
3704.45,-3.24751382643837e-05
3705.35,-2.9757965949810915e-05
3706.25,-2.753160298254664e-05
3707.15,-2.6239167554903167e-05
3708.05,-2.5990648879080814e-05
3708.96,-2.7007645904379983e-05
3709.86,-2.9085897017515334e-05
3710.76,-3.204637551579518e-05
3711.66,-3.5677269018128294e-05
3712.56,-3.912247629243354e-05
3713.46,-4.2027526958532503e-05
3714.36,-4.393557698725471e-05
3715.26,-4.3715827243673245e-05
3716.16,-4.2217181692849675e-05
3717.06,-3.921149244066108e-05
3717.96,-3.571800328117862e-05
3718.86,-3.1419978286913885e-05
3719.76,-2.7440350558123926e-05
3720.66,-2.4609521377253743e-05
3721.56,-2.3005931784017576e-05
3722.46,-2.3507905092991847e-05
3723.36,-2.532466377161961e-05
3724.26,-2.7881950588484914e-05
3725.16,-3.077067272878747e-05
3726.06,-3.294763513565764e-05
3726.96,-3.391730069866366e-05
3727.86,-3.436153395075071e-05
3728.76,-3.4244531983267035e-05
3729.66,-3.363974193748223e-05
3730.56,-3.2837836060591605e-05
3731.46,-3.113801096705999e-05
3732.36,-2.886761530490708e-05
3733.26,-2.5841841115581236e-05
3734.16,-2.2962725157971656e-05
3735.06,-2.0684080330234286e-05
3735.96,-1.9616237814804846e-05
3736.86,-1.9902277883639253e-05
3737.76,-2.1699902002026083e-05
3738.66,-2.442842267644214e-05
3739.56,-2.780867958703898e-05
3740.46,-3.0942021015240806e-05
3741.36,-3.2851717116171405e-05
3742.26,-3.3133898292391565e-05
3743.16,-3.202231385779599e-05
3744.06,-2.986546658831452e-05
3744.96,-2.726072865766426e-05
3745.86,-2.4874256726918037e-05
3746.76,-2.30804281564207e-05
3747.67,-2.2004700898032892e-05
3748.57,-2.1820738820444217e-05
3749.47,-2.2704691034082747e-05
3750.37,-2.4777010204211957e-05
3751.27,-2.8042196396376128e-05
3752.17,-3.225400444525848e-05
3753.07,-3.665501735519143e-05
3753.97,-4.051009405877054e-05
3754.87,-4.3149380263078624e-05
3755.77,-4.38255285409488e-05
3756.67,-4.290236508893074e-05
3757.57,-4.057268243037779e-05
3758.47,-3.791792857424656e-05
3759.37,-3.584185584824562e-05
3760.27,-3.48435493286099e-05
3761.17,-3.5193463132383e-05
3762.07,-3.563010524885485e-05
3762.97,-3.65111160692737e-05
3763.87,-3.687170271765809e-05
3764.77,-3.710737687656591e-05
3765.67,-3.751168306071039e-05
3766.57,-3.813568007599827e-05
3767.47,-3.9456665023561016e-05
3768.37,-4.1509445026491425e-05
3769.27,-4.396758870448733e-05
3770.17,-4.679335728937988e-05
3771.07,-4.980786474348783e-05
3771.97,-5.248305468193142e-05
3772.87,-5.4517551861116605e-05
3773.77,-5.592353130841362e-05
3774.67,-5.702373968267071e-05
3775.57,-5.728934685164095e-05
3776.47,-5.7499399040620716e-05
3777.37,-5.7844383694954204e-05
3778.27,-5.827343016435818e-05
3779.17,-5.928698253535844e-05
3780.07,-6.086399496223307e-05
3780.97,-6.220344885821733e-05
3781.87,-6.362266189896276e-05
3782.77,-6.382652609803765e-05
3783.67,-6.344603724792221e-05
3784.57,-6.244799924605064e-05
3785.47,-5.981206299215006e-05
3786.38,-5.62004890353734e-05
3787.28,-5.243993365551111e-05
3788.18,-4.9398718234398046e-05
3789.08,-4.7226060265799795e-05
3789.98,-4.607671380890764e-05
3790.88,-4.619667668083893e-05
3791.78,-4.6925393436579033e-05
3792.68,-4.7526602923075613e-05
3793.58,-4.7026402814615444e-05
3794.48,-4.6618542741685904e-05
3795.38,-4.524333710419587e-05
3796.28,-4.4224987664600565e-05
3797.18,-4.348048284778145e-05
3798.08,-4.322142474568431e-05
3798.98,-4.379015250055052e-05
3799.88,-4.515290564044232e-05
3800.78,-4.782099298936054e-05
3801.68,-5.135246949775911e-05
3802.58,-5.520926650030836e-05
3803.48,-5.833362681673251e-05
3804.38,-6.046479861873211e-05
3805.28,-6.160271323388785e-05
3806.18,-6.164963654701533e-05
3807.08,-6.099075132834699e-05
3807.98,-6.0906831980804924e-05
3808.88,-6.114631437050711e-05
3809.78,-6.154233212190871e-05
3810.68,-6.210439363213195e-05
3811.58,-6.176734073866671e-05
3812.48,-5.990704332960558e-05
3813.38,-5.6674624716023344e-05
3814.28,-5.284082462103623e-05
3815.18,-4.90944055616536e-05
3816.08,-4.6250217358402306e-05
3816.98,-4.4437799306849083e-05
3817.88,-4.291489872208013e-05
3818.78,-4.211868842390791e-05
3819.68,-4.1007702283025606e-05
3820.58,-3.9785732984134786e-05
3821.48,-3.8894934050593683e-05
3822.38,-3.828991556797867e-05
3823.28,-3.774353606996316e-05
3824.18,-3.695852504655679e-05
3825.09,-3.586315121082002e-05
3825.99,-3.4720388810412475e-05
3826.89,-3.392896316316044e-05
3827.79,-3.364024636620435e-05
3828.69,-3.427033649157146e-05
3829.59,-3.5136519303384044e-05
3830.49,-3.595471062995019e-05
3831.39,-3.6353837852288264e-05
3832.29,-3.650667022343843e-05
3833.19,-3.649388087933017e-05
3834.09,-3.6687488559615455e-05
3834.99,-3.7192815837176826e-05
3835.89,-3.795160063673452e-05
3836.79,-3.886826403831668e-05
3837.69,-3.915935996972593e-05
3838.59,-3.9077316266425394e-05
3839.49,-3.923275565951636e-05
3840.39,-4.013624084256584e-05
3841.29,-4.2365133899353816e-05
3842.19,-4.583837090739289e-05
3843.09,-5.050687110654654e-05
3843.99,-5.465523617126489e-05
3844.89,-5.84050375639971e-05
3845.79,-6.094201379024284e-05
3846.69,-6.22785664288232e-05
3847.59,-6.285233133940108e-05
3848.49,-6.244298354168593e-05
3849.39,-6.175515037192649e-05
3850.29,-6.115924567500514e-05
3851.19,-6.0726591289999474e-05
3852.09,-6.073860941370535e-05
3852.99,-6.0609934364474974e-05
3853.89,-6.023276569796461e-05
3854.79,-5.915871325795602e-05
3855.69,-5.7383391091187764e-05
3856.59,-5.5174185425889836e-05
3857.49,-5.256852263679584e-05
3858.39,-5.041989875811956e-05
3859.29,-4.88904571895034e-05
3860.19,-4.8904151941149364e-05
3861.09,-5.074972913490608e-05
3861.99,-5.440095760752195e-05
3862.9,-5.924402908886253e-05
3863.8,-6.321064221764491e-05
3864.7,-6.628505421776836e-05
3865.6,-6.781009276268653e-05
3866.5,-6.814466794238633e-05
3867.4,-6.735934125644255e-05
3868.3,-6.584883082749001e-05
3869.2,-6.404506125780989e-05
3870.1,-6.197735936995687e-05
3871.0,-6.04833758794251e-05
3871.9,-5.9949724466609816e-05
3872.8,-6.149036782564124e-05
3873.7,-6.46159405818343e-05
3874.6,-6.851281756180658e-05
3875.5,-7.232553169981275e-05
3876.4,-7.403935939571656e-05
3877.3,-7.410234855057889e-05
3878.2,-7.286091329834842e-05
3879.1,-7.152637686152169e-05
3880.0,-6.998150931300959e-05
3880.9,-6.97985444822574e-05
3881.8,-7.03898037422348e-05
3882.7,-7.189301247334138e-05
3883.6,-7.392478168779776e-05
3884.5,-7.556991323494991e-05
3885.4,-7.62801871712705e-05
3886.3,-7.666180199968955e-05
3887.2,-7.673143319984586e-05
3888.1,-7.862817461061903e-05
3889.0,-8.206598639601848e-05
3889.9,-8.824770198318162e-05
3890.8,-9.528223961104741e-05
3891.7,-0.00010308230957925336
3892.6,-0.00010962732797087019
3893.5,-0.00011333095146591907
3894.4,-0.00011599783799589882
3895.3,-0.00011664704703877318
3896.2,-0.00011577101900595657
3897.1,-0.00011616131853157303
3898.0,-0.00011583083643671528
3898.9,-0.00011564798788445202
3899.8,-0.00011516984071967783
3900.7,-0.00011590723189932583
3901.6,-0.00011513236300408923
3902.51,-0.00011412193589231933
3903.41,-0.00011310357255660249
3904.31,-0.00011210242055506944
3905.21,-0.00011184276629469678
3906.11,-0.00011270064583399361
3907.01,-0.0001163598578092105
3907.91,-0.00012216917784542514
3908.81,-0.00012887785456375353
3909.71,-0.00013662864073973004
3910.61,-0.0001432601951044916
3911.51,-0.00014900425927632925
3912.41,-0.0001524245384730836
3913.31,-0.000155234617034182
3914.21,-0.000156312913073444
3915.11,-0.00015641152540293702
3916.01,-0.00015381247550201198
3916.91,-0.0001505784508857015
3917.81,-0.0001461503369727388
3918.71,-0.00014046846634917402
3919.61,-0.0001337547945937995
3920.51,-0.00012745580858068654
3921.41,-0.00012138596811002314
3922.31,-0.0001182769839640195
3923.21,-0.00011608117941491953
3924.11,-0.0001154209781435105
3925.01,-0.00011471189680232414
3925.91,-0.00011207950027552163
3926.81,-0.00010721571385223532
3927.71,-0.00010020337793641574
3928.61,-9.133382353335365e-05
3929.51,-8.160774458081684e-05
3930.41,-7.232150056452454e-05
3931.31,-6.377776040116873e-05
3932.21,-5.6651338883920834e-05
3933.11,-5.165145592596766e-05
3934.01,-4.9006708160675314e-05
3934.91,-4.974927897705058e-05
3935.81,-5.323669769224508e-05
3936.71,-6.0426582679105066e-05
3937.61,-6.931591491922499e-05
3938.51,-7.980605601973543e-05
3939.42,-9.027914562798173e-05
3940.32,-0.00010000566508513783
3941.22,-0.00010795422276662693
3942.12,-0.00011305318362696273
3943.02,-0.0001174844545258124
3943.92,-0.00012136910890753936
3944.82,-0.00012797369028548278
3945.72,-0.00013470490871093634
3946.62,-0.00014407074659512716
3947.52,-0.00015475794919964678
3948.42,-0.0001649493729980288
3949.32,-0.0001744520254675052
3950.22,-0.00018216213601790834
3951.12,-0.00018940979779514803
3952.02,-0.00019385789885983343
3952.92,-0.0001984137453381165
3953.82,-0.00020081651967268247
3954.72,-0.0002020902777418205
3955.62,-0.00020155285155337366
3956.52,-0.0002006500276797711
3957.42,-0.00019773605703707453
3958.32,-0.0001936954322903462
3959.22,-0.00018777557170367447
3960.12,-0.0001785126934856893
3961.02,-0.00016651265397372338
3961.92,-0.00015353769403794143
3962.82,-0.0001402876701298978
3963.72,-0.00012849297219741487
3964.62,-0.00011739243548803973
3965.52,-0.00010756037589563277
3966.42,-9.699583892392088e-05
3967.32,-8.813850994580622e-05
3968.22,-8.089433307642087e-05
3969.12,-7.747523808202702e-05
3970.02,-7.803213694409298e-05
3970.92,-8.443989477517298e-05
3971.82,-9.506528616973405e-05
3972.72,-0.00011019027472156815
3973.62,-0.0001269200672321251
3974.52,-0.00014556957418061106
3975.42,-0.00016518823080575835
3976.32,-0.00018399727018415384
3977.22,-0.0002033301881534048
3978.13,-0.0002220330067823407
3979.03,-0.00023893051392009614
3979.93,-0.00025264928685497876
3980.83,-0.00026463473027324593
3981.73,-0.0002724239498995408
3982.63,-0.00027820895759426056
3983.53,-0.0002823370021700673
3984.43,-0.0002851084525546441
3985.33,-0.000290370301258208
3986.23,-0.0002958250400808921
3987.13,-0.00030302128216121355
3988.03,-0.000309253520715998
3988.93,-0.0003154434717571899
3989.83,-0.00032119027992234085
3990.73,-0.0003262544555683221
3991.63,-0.0003306404755438512
3992.53,-0.0003352177626081445
3993.43,-0.00033868192552397703
3994.33,-0.0003411639549932719
3995.23,-0.00034159514938795625
3996.13,-0.000341292196518213
3997.03,-0.0003422629219894538
3997.93,-0.00034358112621194625
3998.83,-0.0003496276189628892
3999.73,-0.00035871199893786065
4000.63,-0.0003709606123870042
4001.53,-0.00037928588609990296
4002.43,-0.00038727866250058777
4003.33,-0.00038826852551366637
4004.23,-0.00038314286188339993
4005.13,-0.0003751722351145334
4006.03,-0.0003699062765081747
4006.93,-0.0003678351395681106
4007.83,-0.00036966032513990297
4008.73,-0.0003803976252289612
4009.63,-0.0003925345161291011
4010.53,-0.0004050924200166641
4011.43,-0.0004162701386847317
4012.33,-0.0004264823330893912
4013.23,-0.00043357941487638207
4014.13,-0.0004425553797632445
4015.03,-0.000448249232839341
4015.93,-0.0004527885715387373
4016.84,-0.000456532245166368
4017.74,-0.0004601158606577895
4018.64,-0.0004644368922864444
4019.54,-0.0004687645254730997
4020.44,-0.0004736078514570492
4021.34,-0.0004771511400847882
4022.24,-0.00047982181433467203
4023.14,-0.000477194446483686
4024.04,-0.0004782039346294553
4024.94,-0.0004819165180279357
4025.84,-0.0004854507667654683
4026.74,-0.0004916580523079324
4027.64,-0.0004931608155068778
4028.54,-0.000494872886945043
4029.44,-0.00048505728652769274
4030.34,-0.00047064178796907426
4031.24,-0.0004503047181198321
4032.14,-0.0004302688949735181
4033.04,-0.00041697462901721724
4033.94,-0.0004107456654908553
4034.84,-0.00042069142181800067
4035.74,-0.0004395927563956457
4036.64,-0.00046874010736063816
4037.54,-0.0004987144478599102
4038.44,-0.000525608801852436
4039.34,-0.0005433114580935515
4040.24,-0.0005536423793757973
4041.14,-0.0005519599828573565
4042.04,-0.0005430452333405175
4042.94,-0.0005268703555775183
4043.84,-0.0005030422406136895
4044.74,-0.00047520190580860913
4045.64,-0.00045453712763921135
4046.54,-0.00044220376401128654
4047.44,-0.00044553235146975933
4048.34,-0.0004705082071111731
4049.24,-0.0005001567013180143
4050.14,-0.0005336768019349142
4051.04,-0.0005656175216211852
4051.94,-0.0005822852120656423
4052.84,-0.0005904334698432174
4053.74,-0.0005898562747527405
4054.65,-0.0005804387800983341
4055.55,-0.000571339150268808
4056.45,-0.0005582440435392552
4057.35,-0.0005525147182594711
4058.25,-0.0005500636471526239
4059.15,-0.000546808277056066
4060.05,-0.0005486671343426822
4060.95,-0.0005499757813678083
4061.85,-0.0005425902291054831
4062.75,-0.0005324500736520036
4063.65,-0.0005212952230350073
4064.55,-0.0005145632162172244
4065.45,-0.0005192247502634908
4066.35,-0.0005336610105384891
4067.25,-0.0005525833725758705
4068.15,-0.000575731330386969
4069.05,-0.0005962737784795814
4069.95,-0.0006072444866437675
4070.85,-0.0006137684585503664
4071.75,-0.0006131794407182802
4072.65,-0.0006143907329947676
4073.55,-0.0006143395319052581
4074.45,-0.0006222241999869556
4075.35,-0.0006240316865794073
4076.25,-0.0006251639935687143
4077.15,-0.0006255981529515276
4078.05,-0.0006330324239190715
4078.95,-0.0006454270243826956
4079.85,-0.0006690933434146801
4080.75,-0.0007009801738451586
4081.65,-0.0007339757340267651
4082.55,-0.0007563794430933388
4083.45,-0.0007721610245246004
4084.35,-0.0007845690470271126
4085.25,-0.0007985125621491912
4086.15,-0.0008088569311116962
4087.05,-0.0008282983338235235
4087.95,-0.0008532126553826129
4088.85,-0.0008768542288489809
4089.75,-0.0008957378584299265
4090.65,-0.0009084966525640321
4091.55,-0.0009074774399109806
4092.45,-0.0008990633208090959
4093.36,-0.000884630654424586
4094.26,-0.0008708720107454921
4095.16,-0.0008562322916025857
4096.06,-0.0008373214048145028
4096.96,-0.0008153557903468798
4097.86,-0.0007966096559765064
4098.76,-0.000777709267596118
4099.66,-0.0007648679013647305
4100.56,-0.0007514230187012846
4101.46,-0.0007454704154769982
4102.36,-0.000742703917284024
4103.26,-0.0007567157831461533
4104.16,-0.0007816322560246612
4105.06,-0.0008166278403069257
4105.96,-0.0008506394999057363
4106.86,-0.0008821935992656768
4107.76,-0.0009107823569554237
4108.66,-0.0009227754853222325
4109.56,-0.0009296631555468556
4110.46,-0.0009362397666995185
4111.36,-0.0009331627331937151
4112.26,-0.0009410952955930214
4113.16,-0.0009575318739866837
4114.06,-0.0009724592423258009
4114.96,-0.0009924325605513455
4115.86,-0.0010107936515091052
4116.76,-0.0010182681869068
4117.66,-0.0010244752903066626
4118.56,-0.001023209066275487
4119.46,-0.001016437361185286
4120.36,-0.0010099060745764094
4121.26,-0.001016888995010006
4122.16,-0.001019785290322055
4123.06,-0.0010328626476452166
4123.96,-0.0010460115429314675
4124.86,-0.0010602784086658993
4125.76,-0.0010723715077099283
4126.66,-0.0010817284701982257
4127.56,-0.001074053216483058
4128.46,-0.0010680687656004953
4129.36,-0.0010596399819059596
4130.26,-0.0010388904652218465
4131.17,-0.001020015024116344
4132.06,-0.0010001660909713169
4132.97,-0.0009911275274463662
4133.87,-0.0009964530304162466
4134.77,-0.0010103669115574653
4135.67,-0.0010450357605688262
4136.57,-0.0010897552486360306
4137.47,-0.001129878030800215
4138.37,-0.0011662103460217358
4139.27,-0.0011902728616075963
4140.17,-0.0011922983592528122
4141.07,-0.001181061058727485
4141.97,-0.0011508916545011313
4142.87,-0.0011171118577285176
4143.77,-0.0010869379914736357
4144.67,-0.0010701290238991394
4145.57,-0.0010744326350398243
4146.47,-0.0010953211859673962
4147.37,-0.0011333280444303685
4148.27,-0.0011587940370878804
4149.17,-0.0011800963291636228
4150.07,-0.0011944561147912806
4150.97,-0.0011956355084045973
4151.87,-0.0012004897971036647
4152.77,-0.0011930211103047623
4153.67,-0.001193086151839651
4154.57,-0.0011906148046947644
4155.47,-0.0012041773973706386
4156.37,-0.0012229362529871282
4157.27,-0.0012451220558172085
4158.17,-0.0012773234203625413
4159.07,-0.0013182568183372127
4159.97,-0.0013626108489831268
4160.87,-0.0014101519740267274
4161.77,-0.0014503394182278817
4162.67,-0.001478602365002346
4163.57,-0.0014970689138619942
4164.47,-0.0015088720397297443
4165.37,-0.0015010770743893846
4166.27,-0.0014935460942433801
4167.17,-0.001470350051452632
4168.07,-0.001475960735804209
4168.98,-0.001460662120745301
4169.88,-0.0014635229546102666
4170.78,-0.0014554922443037962
4171.68,-0.0014439899760749244
4172.58,-0.0014324549752859324
4173.48,-0.0014152623285911385
4174.38,-0.0013972970382757112
4175.28,-0.0013940840828097303
4176.18,-0.0014108031474300113
4177.08,-0.0014343675152768663
4177.98,-0.0014595610792852624
4178.88,-0.0014887397225585512
4179.78,-0.0015101199056164257
4180.68,-0.001543772541179413
4181.58,-0.0015652626135679503
4182.48,-0.0015861664626654604
4183.38,-0.0016103388124094696
4184.28,-0.001646312196014562
4185.18,-0.00167232665046531
4186.08,-0.0016874321254798873
4186.98,-0.0016895764471084693
4187.88,-0.0017040351732533579
4188.78,-0.0017156848841745195
4189.68,-0.0017309078650921614
4190.58,-0.0017675058019777027
4191.48,-0.0018060336962002414
4192.38,-0.001837959087107346
4193.28,-0.0018580422451054315
4194.18,-0.0018823393495609468
4195.08,-0.0018610361592203393
4195.98,-0.00182382469778001
4196.88,-0.0017897758660649651
4197.78,-0.0017523407472259485
4198.68,-0.0017213789466464082
4199.58,-0.0017097722557115674
4200.48,-0.0017111813612135079
4201.38,-0.0017305080535809625
4202.28,-0.0017744402181169012
4203.18,-0.0018286779601640398
4204.08,-0.001902377030560988
4204.98,-0.0019873848092870983
4205.88,-0.002077031863529029
4206.79,-0.0021585519758296734
4207.69,-0.0022299844864538303
4208.59,-0.002277869883110284
4209.49,-0.0023167968065946755
4210.39,-0.0023325476901046136
4211.29,-0.0023268954479695823
4212.19,-0.0023253902507170423
4213.09,-0.002314943584412302
4213.99,-0.0022850231569825773
4214.89,-0.0022693483740872395
4215.79,-0.0022746018127866308
4216.69,-0.002299454736281975
4217.59,-0.0023691040173933137
4218.49,-0.0024497074873003344
4219.39,-0.002536038411647669
4220.29,-0.002601437853668911
4221.19,-0.002626926635397236
4222.09,-0.0025929788581601754
4222.99,-0.002509110433829632
4223.89,-0.0023683871869745504
4224.79,-0.002220219494918015
4225.69,-0.002048986872960478
4226.59,-0.001931824703637633
4227.49,-0.0018837207156285243
4228.39,-0.0019189909206202194
4229.29,-0.0020485129090042653
4230.19,-0.0022210043713394682
4231.09,-0.002403786066647126
4231.99,-0.0025677269807994354
4232.89,-0.002675268597225349
4233.79,-0.002727108296251179
4234.69,-0.0027559236552279483
4235.59,-0.0027640739004427504
4236.49,-0.0027432356434264078
4237.39,-0.002771085330811983
4238.29,-0.0028036347284157667
4239.19,-0.002878982994565185
4240.09,-0.0029753044024964487
4240.99,-0.0030773065380221855
4241.89,-0.003194535022067522
4242.79,-0.003311626745503361
4243.69,-0.003439046922652045
4244.59,-0.0035211213377976014
4245.5,-0.00357043502905285
4246.4,-0.0035836148744276537
4247.3,-0.0035411878821278984
4248.2,-0.003446441029647972
4249.1,-0.003356624324349499
4250.0,-0.0032475656775776663
4250.9,-0.0031822286243667294
4251.8,-0.003131878415272335
4252.7,-0.003126873632002177
4253.6,-0.0031534679561654477
4254.5,-0.003212303989783697
4255.4,-0.0032833294060331925
4256.3,-0.0033462995981193267
4257.2,-0.003408676364312136
4258.1,-0.0034769334121548395
4259.0,-0.003508688598531583
4259.9,-0.0035113591917111677
4260.8,-0.003522842646842427
4261.7,-0.0035860185566216015
4262.6,-0.003722105679463231
4263.5,-0.0038782339805102867
4264.4,-0.00407938929685296
4265.3,-0.004245930696533155
4266.2,-0.004357283282196234
4267.1,-0.004382690491931308
4268.0,-0.004335298852031967
4268.9,-0.004194294568655947
4269.8,-0.0039926758655462035
4270.7,-0.003778715883645012
4271.6,-0.003566137747735586
4272.5,-0.003408117774412717
4273.4,-0.0033292743501762818
4274.3,-0.003366155388344947
4275.2,-0.003493289723655262
4276.1,-0.0037017547835270313
4277.0,-0.003946057061074441
4277.9,-0.00420539597054632
4278.8,-0.004417749350244546
4279.7,-0.004583062833936123
4280.6,-0.004672999155794326
4281.5,-0.004733317828657386
