wave,flux
3700.85,-8.387394291035555e-05
3701.75,-8.281490830615895e-05
3702.65,-8.003559758409781e-05
3703.55,-7.663458915192006e-05
3704.45,-7.264785041661745e-05
3705.35,-6.865368692447352e-05
3706.25,-6.562508620698394e-05
3707.15,-6.436767050916139e-05
3708.05,-6.448997423469795e-05
3708.96,-6.60906549673126e-05
3709.86,-6.901397915179937e-05
3710.76,-7.270079007876137e-05
3711.66,-7.73513539004206e-05
3712.56,-8.191827507882805e-05
3713.46,-8.639439318323021e-05
3714.36,-9.047009733073896e-05
3715.26,-9.229180458230404e-05
3716.16,-9.195570197066388e-05
3717.06,-8.971568127176921e-05
3717.96,-8.540332821534232e-05
3718.86,-7.977864681022621e-05
3719.76,-7.315112974322343e-05
3720.66,-6.755570962295713e-05
3721.56,-6.406480424981428e-05
3722.46,-6.397382437651897e-05
3723.36,-6.702244219427695e-05
3724.26,-7.204596145767731e-05
3725.16,-7.714777842699093e-05
3726.06,-8.160168222909855e-05
3726.96,-8.464862843348082e-05
3727.86,-8.622268100819924e-05
3728.76,-8.640700674571713e-05
3729.66,-8.618305484168985e-05
3730.56,-8.505046756236183e-05
3731.46,-8.227974015984063e-05
3732.36,-7.755455487736045e-05
3733.26,-7.194551968429124e-05
3734.16,-6.633634054104233e-05
3735.06,-6.162608612131338e-05
3735.96,-5.951166447070242e-05
3736.86,-5.993794108584735e-05
3737.76,-6.389863178069004e-05
3738.66,-7.012700525590904e-05
3739.56,-7.729845386892881e-05
3740.46,-8.313824166022581e-05
3741.36,-8.769019830225291e-05
3742.26,-8.949577312187224e-05
3743.16,-8.805207244611283e-05
3744.06,-8.514602746909811e-05
3744.96,-8.062222441519709e-05
3745.86,-7.57980640962933e-05
3746.76,-7.193600463678034e-05
3747.67,-6.857495082933978e-05
3748.57,-6.643785578781376e-05
3749.47,-6.614997682476334e-05
3750.37,-6.858594632319065e-05
3751.27,-7.423533749674473e-05
3752.17,-8.168863955236917e-05
3753.07,-9.060448746413208e-05
3753.97,-9.869761401324023e-05
3754.87,-0.00010448103619570552
3755.77,-0.00010703677047029693
3756.67,-0.00010675129526917683
3757.57,-0.00010369346963615876
3758.47,-9.915194254926238e-05
3759.37,-9.613235393812842e-05
3760.27,-9.500032430701057e-05
3761.17,-9.54651875254512e-05
3762.07,-9.766486592713657e-05
3762.97,-9.987884508600585e-05
3763.87,-0.00010224265824507845
3764.77,-0.00010322321606819575
3765.67,-0.00010425149429367659
3766.57,-0.00010436726313179395
3767.47,-0.00010460486724804386
3768.37,-0.00010548071395405107
3769.27,-0.00010629944931416363
3770.17,-0.00010801805322928694
3771.07,-0.0001109708489609116
3771.97,-0.00011440362573486886
3772.87,-0.00011864396819601306
3773.77,-0.00012277927446668104
3774.67,-0.00012703469112857862
3775.57,-0.00012968828300126254
3776.47,-0.00013205697448870864
3777.37,-0.00013435524812625686
3778.27,-0.00013687171847236211
3779.17,-0.00013999434746278237
3780.07,-0.00014291230161404733
3780.97,-0.00014639959684638142
3781.87,-0.00014919796050756964
3782.77,-0.0001507367103015393
3783.67,-0.00015128288908919092
3784.57,-0.0001501709594635141
3785.47,-0.00014621344189234007
3786.38,-0.00014175663655916024
3787.28,-0.00013665356703730942
3788.18,-0.00013170178742639903
3789.08,-0.0001291649426498755
3789.98,-0.0001271816676448247
3790.88,-0.00012710950873373716
3791.78,-0.00012746028664111728
3792.68,-0.00012729430985221265
3793.58,-0.00012588901656922964
3794.48,-0.0001239822085069413
3795.38,-0.00012077094249745707
3796.28,-0.00011706465131903033
3797.18,-0.00011422684915552301
3798.08,-0.00011231347070744884
3798.98,-0.00011357310053412304
3799.88,-0.00011770004787547278
3800.78,-0.00012390492323417632
3801.68,-0.00013292112523743065
3802.58,-0.00014260001544908537
3803.48,-0.0001517096997220449
3804.38,-0.00015765374682653562
3805.28,-0.00016082913460052233
3806.18,-0.00016172392608958654
3807.08,-0.00016149703933931994
3807.98,-0.00016227268672632347
3808.88,-0.00016369194334047633
3809.78,-0.00016590493424436238
3810.68,-0.00016674705698147452
3811.58,-0.0001671704238386995
3812.48,-0.00016361805187749495
3813.38,-0.00015866654106214844
3814.28,-0.00015246563918795762
3815.18,-0.00014638094483117027
3816.08,-0.0001422636265634509
3816.98,-0.0001398997132277547
3817.88,-0.00013930352381756692
3818.78,-0.0001389052527891884
3819.68,-0.00013748911952139888
3820.58,-0.00013531584780263149
3821.48,-0.0001339159412723546
3822.38,-0.0001326766518264539
3823.28,-0.00013177959943947275
3824.18,-0.00012926903297298453
3825.09,-0.00012645020051100435
3825.99,-0.00012253362452385426
3826.89,-0.00011906967485695085
3827.79,-0.00011739503142182357
3828.69,-0.00011751130563945631
3829.59,-0.00011727299436651308
3830.49,-0.00011758333219255924
3831.39,-0.00011600213365992519
3832.29,-0.00011389441105073917
3833.19,-0.0001106220089233257
3834.09,-0.00010865103065139912
3834.99,-0.00010768262413118715
3835.89,-0.0001074585872020514
3836.79,-0.00010901524384716098
3837.69,-0.00011081641271650693
3838.59,-0.00011294095033691833
3839.49,-0.0001158828159123553
3840.39,-0.00012157908329883507
3841.29,-0.00013003487933017005
3842.19,-0.0001411239755750845
3843.09,-0.00015322130030401502
3843.99,-0.00016440356696152317
3844.89,-0.00017531895915962902
3845.79,-0.00018285794439504554
3846.69,-0.0001877294347241226
3847.59,-0.00019075024646515688
3848.49,-0.0001925082067429745
3849.39,-0.00019232352771875248
3850.29,-0.00019168428584129499
3851.19,-0.0001934797519341111
3852.09,-0.0001938245911215561
3852.99,-0.0001944774107760653
3853.89,-0.00019467487603209405
3854.79,-0.00019341559567806496
3855.69,-0.00018989774129108796
3856.59,-0.000185702234562225
3857.49,-0.00018039309439639445
3858.39,-0.00017483635538353653
3859.29,-0.00017243692610705925
3860.19,-0.00017068886469933427
3861.09,-0.00017494770553084214
3861.99,-0.00018269199312198598
3862.9,-0.00019335207546036827
3863.8,-0.00020235255440620645
3864.7,-0.00021010085654856226
3865.6,-0.0002145840340766071
3866.5,-0.00021667651721063916
3867.4,-0.00021709395118532703
3868.3,-0.00021608796841779342
3869.2,-0.00021268739892103854
3870.1,-0.0002083302934002612
3871.0,-0.0002029251747688536
3871.9,-0.0001995261985426303
3872.8,-0.00019752734125067336
3873.7,-0.00019936563171023462
3874.6,-0.0002030580809113622
3875.5,-0.0002084121390628321
3876.4,-0.00021155731387767447
3877.3,-0.0002126035412371079
3878.2,-0.00021148023150888292
3879.1,-0.00020969654830964833
3880.0,-0.00020944623526122363
3880.9,-0.00021005942140477651
3881.8,-0.00021178681713080258
3882.7,-0.0002134250071263288
3883.6,-0.000214482181937371
3884.5,-0.0002127319747374188
3885.4,-0.0002096733422238647
3886.3,-0.00020532414689523312
3887.2,-0.00020009829254232013
3888.1,-0.0001975147381829927
3889.0,-0.0001988337557529574
3889.9,-0.00020386388075780334
3890.8,-0.00021283400003978902
3891.7,-0.00022516594843863477
3892.6,-0.00023665994446174255
3893.5,-0.0002472885045210369
3894.4,-0.00025488638726964405
3895.3,-0.000259161483404031
3896.2,-0.00026300021930316005
3897.1,-0.0002681528871120326
3898.0,-0.0002692637852571725
3898.9,-0.00027369408797963383
3899.8,-0.0002767957681198808
3900.7,-0.00027755879046132575
3901.6,-0.0002797610978357241
3902.51,-0.00027965428920575727
3903.41,-0.00027961986975348293
3904.31,-0.00027712807965406884
3905.21,-0.00027739179042673127
3906.11,-0.0002769607047335022
3907.01,-0.00028283691224395037
3907.91,-0.0002889552740118645
3908.81,-0.00030077933135044273
3909.71,-0.00031401632035824153
3910.61,-0.00032492832445847033
3911.51,-0.0003331816861376136
3912.41,-0.0003401656247175325
3913.31,-0.0003429110516169104
3914.21,-0.00034282334778041457
3915.11,-0.00034182993388697837
3916.01,-0.0003399146660622735
3916.91,-0.0003336058299980157
3917.81,-0.00033099074183904633
3918.71,-0.00032336660655563515
3919.61,-0.00031600408430908
3920.51,-0.00030660563420703346
3921.41,-0.0003008708266204977
3922.31,-0.0002973884922953809
3923.21,-0.0002938836892770208
3924.11,-0.0002914494535303758
3925.01,-0.00028658368093979433
3925.91,-0.0002787769401941726
3926.81,-0.0002654519805924101
3927.71,-0.0002476853919443547
3928.61,-0.00022482596415272983
3929.51,-0.00020059723735203064
3930.41,-0.00017666262791386108
3931.31,-0.00015299657489531372
3932.21,-0.00013312256243019338
3933.11,-0.00011798550167023314
3934.01,-0.00011015378882092297
3934.91,-0.00010917132304840243
3935.81,-0.00011743158796557687
3936.71,-0.0001332316727344666
3937.61,-0.0001554835696977711
3938.51,-0.00018234266609161814
3939.42,-0.00020976168457855938
3940.32,-0.00023555364341691984
3941.22,-0.0002587048526333062
3942.12,-0.0002775120156613853
3943.02,-0.00029144244783019946
3943.92,-0.00030485438039905017
3944.82,-0.0003198100998173775
3945.72,-0.0003346667642065839
3946.62,-0.00034977594301768123
3947.52,-0.0003667439311666315
3948.42,-0.0003804193178209425
3949.32,-0.0003949672072180523
3950.22,-0.00040700644536497554
3951.12,-0.00041569540200603187
3952.02,-0.0004243742269973437
3952.92,-0.00043122493264284253
3953.82,-0.0004356502661786735
3954.72,-0.00043714467641313274
3955.62,-0.000440885841574019
3956.52,-0.00044086253260685536
3957.42,-0.00043761699086894743
3958.32,-0.00043417153458200975
3959.22,-0.0004263631788573601
3960.12,-0.0004143678607842091
3961.02,-0.00039681512090593166
3961.92,-0.00037248701505103996
3962.82,-0.0003460652045968968
3963.72,-0.0003186873093274279
3964.62,-0.0002901865926376776
3965.52,-0.0002591803415375832
3966.42,-0.0002310702601947675
3967.32,-0.00020372970046488527
3968.22,-0.00018178949865319812
3969.12,-0.00016979347338048423
3970.02,-0.00016828142988476217
3970.92,-0.0001809189757781344
3971.82,-0.0002044376327044208
3972.72,-0.00023675788215029033
3973.62,-0.0002750478913544149
3974.52,-0.00031454397701342933
3975.42,-0.000357172152008707
3976.32,-0.00039555397359242655
3977.22,-0.0004309112165937161
3978.13,-0.0004673852601107616
3979.03,-0.0004979104912304053
3979.93,-0.0005221477839193615
3980.83,-0.0005436220255675983
3981.73,-0.0005560029903817448
3982.63,-0.0005685658124879674
3983.53,-0.0005787187788535632
3984.43,-0.0005848047003373835
3985.33,-0.0005947576815246535
3986.23,-0.0006022616514889032
3987.13,-0.0006160497154633279
3988.03,-0.0006290560340433675
3988.93,-0.0006411743790345875
3989.83,-0.0006496739463724857
3990.73,-0.0006615814607314044
3991.63,-0.0006725660002482248
3992.53,-0.0006786452932409213
3993.43,-0.000687422851567189
3994.33,-0.0006887739313974461
3995.23,-0.0006867353249684995
3996.13,-0.0006892325526702193
3997.03,-0.000684884454505194
3997.93,-0.0006859638557535051
3998.83,-0.0006942159322007727
3999.73,-0.0007059954838733041
4000.63,-0.0007203448401199321
4001.53,-0.0007370180007997275
4002.43,-0.0007490335800005503
4003.33,-0.000752813239915107
4004.23,-0.0007488965156446444
4005.13,-0.0007429339695101687
4006.03,-0.0007376787933414403
4006.93,-0.0007365187638931497
4007.83,-0.0007426214652556343
4008.73,-0.000759288298670804
4009.63,-0.000778074731893255
4010.53,-0.0007972895767123943
4011.43,-0.0008128205732696107
4012.33,-0.0008260813540333419
4013.23,-0.0008348319926881735
4014.13,-0.0008442058559406603
4015.03,-0.0008517208542613675
4015.93,-0.0008594128063426962
4016.84,-0.0008631732841058216
4017.74,-0.0008726383092248324
4018.64,-0.000878634178066266
4019.54,-0.0008863016323401692
4020.44,-0.0008919510555436322
4021.34,-0.0008977557269609192
4022.24,-0.0009068043776900549
4023.14,-0.0009131780599082038
4024.04,-0.0009114944998830865
4024.94,-0.0009229878146377135
4025.84,-0.0009342477242511045
4026.74,-0.0009453274893231724
4027.64,-0.000954319213375544
4028.54,-0.000957467864849502
4029.44,-0.0009540525238807133
4030.34,-0.0009395116896462021
4031.24,-0.00092290672836141
4032.14,-0.0009011847441981868
4033.04,-0.000893249983374722
4033.94,-0.0008951453969129749
4034.84,-0.0009105214905994102
4035.74,-0.0009417352577586291
4036.64,-0.0009786130026495266
4037.54,-0.0010091660050935009
4038.44,-0.0010459592975857184
4039.34,-0.0010656908274497058
4040.24,-0.0010814023415176015
4041.14,-0.0010791976879824816
4042.04,-0.001064339036473603
4042.94,-0.0010474359781463295
4043.84,-0.0010179776761124648
4044.74,-0.0009916586369660514
4045.64,-0.0009720167645464749
4046.54,-0.0009615211573110238
4047.44,-0.0009780874238322892
4048.34,-0.0010094249327164562
4049.24,-0.0010474448894771293
4050.14,-0.0010910842762117112
4051.04,-0.0011259239597731306
4051.94,-0.0011458543374116583
4052.84,-0.001159546206637393
4053.74,-0.001152832687404461
4054.65,-0.0011504385842273717
4055.55,-0.001146188631824598
4056.45,-0.0011391005361788581
4057.35,-0.0011388589910881009
4058.25,-0.0011432106980310097
4059.15,-0.0011464451296514498
4060.05,-0.0011572703037692658
4060.95,-0.0011665166875905917
4061.85,-0.0011639115226101593
4062.75,-0.0011504471937386527
4063.65,-0.0011376843550433328
4064.55,-0.0011285477823815635
4065.45,-0.0011362537284714612
4066.35,-0.0011493603549629268
4067.25,-0.0011793765634411336
4068.15,-0.0012137246686029558
4069.05,-0.0012357270866042939
4069.95,-0.0012600358778688773
4070.85,-0.0012724196688454652
4071.75,-0.001280021116879757
4072.65,-0.001279725225823936
4073.55,-0.0012805511866267026
4074.45,-0.0012795524314355008
4075.35,-0.0012793401639168746
4076.25,-0.0012757998415722676
4077.15,-0.001262446724677582
4078.05,-0.001265000182058209
4078.95,-0.0012714041502969718
4079.85,-0.0013039630367818412
4080.75,-0.001344864973389833
4081.65,-0.0013887163174592218
4082.55,-0.0014270740173375892
4083.45,-0.0014552614793943855
4084.35,-0.0014748912775964683
4085.25,-0.0014866084490039297
4086.15,-0.0015188980223868195
4087.05,-0.00154558726747971
4087.95,-0.0015856161316757681
4088.85,-0.0016230141061620179
4089.75,-0.0016579111748674406
4090.65,-0.0016790641772730965
4091.55,-0.0016886005189146022
4092.45,-0.0016860715495059088
4093.36,-0.001685930539901407
4094.26,-0.0016677147689522832
4095.16,-0.0016475623553974734
4096.06,-0.0016271455523644012
4096.96,-0.0015924686537640079
4097.86,-0.0015691668477092592
4098.76,-0.001518503651707309
4099.66,-0.0014872409975586185
4100.56,-0.001446897836312916
4101.46,-0.0014137861052593151
4102.36,-0.0013942113592036965
4103.26,-0.0014107674876832439
4104.16,-0.0014509248541728554
4105.06,-0.001519527563227888
4105.96,-0.0015804545900473899
4106.86,-0.0016458279461521598
4107.76,-0.0017103169053271086
4108.66,-0.0017548384731334867
4109.56,-0.0017834344978756005
4110.46,-0.0017969920072629332
4111.36,-0.0018176152827025754
4112.26,-0.0018483276320249936
4113.16,-0.0018810271572063586
4114.06,-0.0019172678161231828
4114.96,-0.0019419915964262742
4115.86,-0.0019733733409079347
4116.76,-0.0019950102653067702
4117.66,-0.0020050026908697794
4118.56,-0.0020062301457725975
4119.46,-0.0020008090006658685
4120.36,-0.0020023250914516766
4121.26,-0.0020113052626059844
4122.16,-0.0020206981641068033
4123.06,-0.0020486933323971405
4123.96,-0.0020727160040770742
4124.86,-0.0020935644344876334
4125.76,-0.002121678549883167
4126.66,-0.0021313827798961865
4127.56,-0.002130719010314704
4128.46,-0.0021336147236587764
4129.36,-0.0021315633215894143
4130.26,-0.002113404950497804
4131.17,-0.002101885265516346
4132.06,-0.0020958165435511996
4132.97,-0.0020798314889717597
4133.87,-0.002091723069777202
4134.77,-0.00212249251479676
4135.67,-0.002173125107214299
4136.57,-0.002234807188167021
4137.47,-0.002310187560608217
4138.37,-0.002375064574122576
4139.27,-0.0024052130853370497
4140.17,-0.002426301573974318
4141.07,-0.002421793647853145
4141.97,-0.002379937557211133
4142.87,-0.002343240517127821
4143.77,-0.0023085471081788693
4144.67,-0.0023074672406227397
4145.57,-0.0023250324445548273
4146.47,-0.0023657934718836907
4147.37,-0.0024189050880339107
4148.27,-0.002489605689376253
4149.17,-0.0025127132776960014
4150.07,-0.002542660627104162
4150.97,-0.002557403870733888
4151.87,-0.002565374882827247
4152.77,-0.002576076766020707
4153.67,-0.0025793486597850447
4154.57,-0.0025815582941181615
4155.47,-0.002598997978637447
4156.37,-0.0026401627589058498
4157.27,-0.0026694481800736756
4158.17,-0.002715418409714798
4159.07,-0.0027692797024899117
4159.97,-0.0028409777915925144
4160.87,-0.0028929319768580407
4161.77,-0.0029439864682229188
4162.67,-0.002991481568258399
4163.57,-0.0030236579497317936
4164.47,-0.0030396127864566994
4165.37,-0.0030572762419301455
4166.27,-0.0030508036976179317
4167.17,-0.003057384887117892
4168.07,-0.003056369656069344
4168.98,-0.003040430753289817
4169.88,-0.003036134444567553
4170.78,-0.003003739528804884
4171.68,-0.0029932530281961637
4172.58,-0.0029650299488719286
4173.48,-0.002932147060465814
4174.38,-0.002932788448017427
4175.28,-0.002961493949771157
4176.18,-0.0029826003209125346
4177.08,-0.003049071554365216
4177.98,-0.003090962146707574
4178.88,-0.003164508270373079
4179.78,-0.003220512720603016
4180.68,-0.003277450275263964
4181.58,-0.003325804522999718
4182.48,-0.0033513658423911866
4183.38,-0.003385367703323864
4184.28,-0.003401268366661642
4185.18,-0.0034441983812015823
4186.08,-0.003458731467126413
4186.98,-0.0034611314227216655
4187.88,-0.0034923136678804085
4188.78,-0.0035050246135726504
4189.68,-0.0035513890654859316
4190.58,-0.003580567960445655
4191.48,-0.003650330682357328
4192.38,-0.0037226295714592517
4193.28,-0.003759768903213983
4194.18,-0.003824919735009381
4195.08,-0.003820270818297796
4195.98,-0.0038063639245258874
4196.88,-0.003770843946055646
4197.78,-0.003740515107471939
4198.68,-0.0036836017140146407
4199.58,-0.0036728204634464147
4200.48,-0.003686224664519004
4201.38,-0.0036954255133216014
4202.28,-0.0037437917591751986
4203.18,-0.00382776339465836
4204.08,-0.003903259337922463
4204.98,-0.003990289057431567
4205.88,-0.0041108231840247
4206.79,-0.004214512053787766
4207.69,-0.004314052773247948
4208.59,-0.004389851894008219
4209.49,-0.004473073755125085
4210.39,-0.0045401971097825304
4211.29,-0.004578584220461095
4212.19,-0.004613786221902236
4213.09,-0.004636329322468141
4213.99,-0.0046108044136023265
4214.89,-0.0046123688740481875
4215.79,-0.004602638281537125
4216.69,-0.004629873428284037
4217.59,-0.004665930808868228
4218.49,-0.004760404395911722
4219.39,-0.004848290763321333
4220.29,-0.004948901711001862
4221.19,-0.004990753562673863
4222.09,-0.004979536856173068
4222.99,-0.0049181282405093285
4223.89,-0.004766127356820224
4224.79,-0.0045899525394400564
4225.69,-0.004412948205878873
4226.59,-0.004260523328446882
4227.49,-0.004200385818102672
4228.39,-0.004307349679189668
4229.29,-0.004476051299551626
4230.19,-0.004726565618922533
4231.09,-0.00499094686554755
4231.99,-0.005188632973007907
4232.89,-0.005325832749773524
4233.79,-0.00541537763571089
4234.69,-0.005431609129123018
4235.59,-0.005423173534780083
4236.49,-0.0054249293710737735
4237.39,-0.005444449079622432
4238.29,-0.005479043349666558
4239.19,-0.005580409767994037
4240.09,-0.0056864106607062165
4240.99,-0.005831715173255231
4241.89,-0.00595523150586662
4242.79,-0.0060644194137038695
4243.69,-0.006194363392672864
4244.59,-0.006296744201439595
4245.5,-0.006338699355836842
4246.4,-0.006357962503361301
4247.3,-0.00630362788013815
4248.2,-0.0062587251429709985
4249.1,-0.006199354660063155
4250.0,-0.006155026315542208
4250.9,-0.006166225405422871
4251.8,-0.006200027302326945
4252.7,-0.006268749412093503
4253.6,-0.006378214218251522
4254.5,-0.006462085152447792
4255.4,-0.006570257943921671
4256.3,-0.00664729216951745
4257.2,-0.006740045789133006
4258.1,-0.006764139376395877
4259.0,-0.0068066940010981375
4259.9,-0.006797495755775857
4260.8,-0.006853762347000096
4261.7,-0.006957401596335515
4262.6,-0.0070722541627670065
4263.5,-0.00729980606700199
4264.4,-0.0074937919351851364
4265.3,-0.007719659924600213
4266.2,-0.007840976676421968
4267.1,-0.00792572483008918
4268.0,-0.007905570259360164
4268.9,-0.007798512686510859
4269.8,-0.007643390734800194
4270.7,-0.0074422910192331075
4271.6,-0.007240361026722755
4272.5,-0.007118431557883367
4273.4,-0.007070809919972928
4274.3,-0.007151783507625663
4275.2,-0.0073228983349524325
4276.1,-0.007588694371537416
4277.0,-0.00788934378759252
4277.9,-0.00817264544617419
4278.8,-0.008403360170857927
4279.7,-0.008561387938922424
4280.6,-0.008667669917814431
4281.5,-0.008681804493677867
4282.4,-0.008795408889940853
4283.31,-0.008791916146572588
