wave,flux
3700.85,-2.541323717828195e-07
3701.75,-2.4881350738637083e-07
3702.65,-2.38576697666654e-07
3703.55,-2.2287384948158682e-07
3704.45,-2.0651149445980223e-07
3705.35,-1.9056006940686875e-07
3706.25,-1.7802188278513525e-07
3707.15,-1.7133111697172886e-07
3708.05,-1.7013907108468355e-07
3708.96,-1.7460684834866227e-07
3709.86,-1.8452035958975102e-07
3710.76,-1.9869084555459507e-07
3711.66,-2.159478999859825e-07
3712.56,-2.3387400525771542e-07
3713.46,-2.485414196797309e-07
3714.36,-2.573234960744142e-07
3715.26,-2.5967201768638606e-07
3716.16,-2.5305161353657397e-07
3717.06,-2.3899746862932434e-07
3717.96,-2.2083573128567722e-07
3718.86,-1.9747266322746364e-07
3719.76,-1.7643160711386514e-07
3720.66,-1.5815119594181166e-07
3721.56,-1.4911929174853916e-07
3722.46,-1.496076729787666e-07
3723.36,-1.5906262606052587e-07
3724.26,-1.7342556967275534e-07
3725.16,-1.885064336919564e-07
3726.06,-2.000470504808103e-07
3726.96,-2.0622721451479223e-07
3727.86,-2.092015251388995e-07
3728.76,-2.071770905093972e-07
3729.66,-2.0457211945572037e-07
3730.56,-1.993559634935485e-07
3731.46,-1.9050232421036463e-07
3732.36,-1.7699924771089554e-07
3733.26,-1.6022726628871664e-07
3734.16,-1.4342450929412125e-07
3735.06,-1.3051125677268286e-07
3735.96,-1.2391759027982126e-07
3736.86,-1.2459396982545825e-07
3737.76,-1.3362525623308354e-07
3738.66,-1.488257307457906e-07
3739.56,-1.6679918591843538e-07
3740.46,-1.8215641804840684e-07
3741.36,-1.9214372297789165e-07
3742.26,-1.9437968741264428e-07
3743.16,-1.8782056478242745e-07
3744.06,-1.7687980815479728e-07
3744.96,-1.6369338489346936e-07
3745.86,-1.510410942698851e-07
3746.76,-1.4017498886439538e-07
3747.67,-1.33176024181722e-07
3748.57,-1.3044589622992714e-07
3749.47,-1.3205931841879153e-07
3750.37,-1.4102520794848416e-07
3751.27,-1.5639561057108616e-07
3752.17,-1.7643874256784626e-07
3753.07,-1.96995808171997e-07
3753.97,-2.1623262124579975e-07
3754.87,-2.2803227890661654e-07
3755.77,-2.3133948696875727e-07
3756.67,-2.2643074015951283e-07
3757.57,-2.165897007021083e-07
3758.47,-2.028051357586667e-07
3759.37,-1.9288641749753974e-07
3760.27,-1.8848493309917248e-07
3761.17,-1.8908751869827777e-07
3762.07,-1.9187378262243972e-07
3762.97,-1.9510087470512408e-07
3763.87,-1.9719988923981005e-07
3764.77,-1.9921243552652117e-07
3765.67,-2.0052763011484405e-07
3766.57,-2.0155587591613152e-07
3767.47,-2.0522098193724886e-07
3768.37,-2.1086365327940675e-07
3769.27,-2.181162925637202e-07
3770.17,-2.276144841532696e-07
3771.07,-2.3663527168146763e-07
3771.97,-2.474112002703864e-07
3772.87,-2.5539868631189984e-07
3773.77,-2.6215041651877176e-07
3774.67,-2.666153200208285e-07
3775.57,-2.681751547472e-07
3776.47,-2.689303062903076e-07
3777.37,-2.717031992124633e-07
3778.27,-2.7426059755972193e-07
3779.17,-2.783040113512374e-07
3780.07,-2.8383857339156426e-07
3780.97,-2.89126850300862e-07
3781.87,-2.9371462160369185e-07
3782.77,-2.963837120255999e-07
3783.67,-2.9380062251995597e-07
3784.57,-2.8909099238449536e-07
3785.47,-2.779573079700768e-07
3786.38,-2.6373130017587855e-07
3787.28,-2.4820908473838057e-07
3788.18,-2.3480530355198324e-07
3789.08,-2.2563132166410222e-07
3789.98,-2.2049325786066853e-07
3790.88,-2.2062130835183775e-07
3791.78,-2.2088470705531308e-07
3792.68,-2.2066006825222847e-07
3793.58,-2.185855977370521e-07
3794.48,-2.15333652332407e-07
3795.38,-2.0889440013441234e-07
3796.28,-2.0423366156718416e-07
3797.18,-1.9796431782534067e-07
3798.08,-1.9599911935326884e-07
3798.98,-1.9676003684044435e-07
3799.88,-2.0313559226575638e-07
3800.78,-2.135983713081076e-07
3801.68,-2.293749906926017e-07
3802.58,-2.4480554897980153e-07
3803.48,-2.5841969346648455e-07
3804.38,-2.67481940402424e-07
3805.28,-2.722809067870489e-07
3806.18,-2.700537327069286e-07
3807.08,-2.6826847281443655e-07
3807.98,-2.6626110557840867e-07
3808.88,-2.665788891214884e-07
3809.78,-2.6763976584076604e-07
3810.68,-2.699041900534845e-07
3811.58,-2.661681874432682e-07
3812.48,-2.584823090612951e-07
3813.38,-2.4661358764652516e-07
3814.28,-2.3186835605286252e-07
3815.18,-2.1690262984394498e-07
3816.08,-2.055903603842031e-07
3816.98,-1.9901155960723035e-07
3817.88,-1.942573071708935e-07
3818.78,-1.89971423593499e-07
3819.68,-1.8613856291395577e-07
3820.58,-1.8124990745158978e-07
3821.48,-1.7692044502785944e-07
3822.38,-1.7354449318305515e-07
3823.28,-1.7134315229486855e-07
3824.18,-1.66648682836257e-07
3825.09,-1.60759714483377e-07
3825.99,-1.5507745249646592e-07
3826.89,-1.501839060360794e-07
3827.79,-1.4718557717886907e-07
3828.69,-1.476498959804045e-07
3829.59,-1.4902773085182284e-07
3830.49,-1.501715928158088e-07
3831.39,-1.5032557723927277e-07
3832.29,-1.4890303685600484e-07
3833.19,-1.4623145208494865e-07
3834.09,-1.454239708219985e-07
3834.99,-1.458672458595498e-07
3835.89,-1.4734866986804608e-07
3836.79,-1.4853793581343428e-07
3837.69,-1.4987773385696817e-07
3838.59,-1.4950016378130392e-07
3839.49,-1.5086134798778013e-07
3840.39,-1.5585330376076195e-07
3841.29,-1.6558145269866036e-07
3842.19,-1.7909101909837024e-07
3843.09,-1.9589585354979028e-07
3843.99,-2.1194165984657072e-07
3844.89,-2.249466918252798e-07
3845.79,-2.3345379938719907e-07
3846.69,-2.397842905595009e-07
3847.59,-2.411939368846654e-07
3848.49,-2.4074483875482097e-07
3849.39,-2.387440492456895e-07
3850.29,-2.3501363431749607e-07
3851.19,-2.3383765468088746e-07
3852.09,-2.327295740563735e-07
3852.99,-2.3233311970955942e-07
3853.89,-2.3046927464876573e-07
3854.79,-2.2548700345797742e-07
3855.69,-2.1941946021056507e-07
3856.59,-2.1018059733261842e-07
3857.49,-2.010268753195163e-07
3858.39,-1.9236085784710364e-07
3859.29,-1.864707737977345e-07
3860.19,-1.8484031175238485e-07
3861.09,-1.9001861012149241e-07
3861.99,-2.0047160021709325e-07
3862.9,-2.1456183890554888e-07
3863.8,-2.2649047004516911e-07
3864.7,-2.3529709320061566e-07
3865.6,-2.4021266472720275e-07
3866.5,-2.4200029556321326e-07
3867.4,-2.3843297280021355e-07
3868.3,-2.3528255486374e-07
3869.2,-2.2809008641131792e-07
3870.1,-2.2058991151273097e-07
3871.0,-2.1457117706152207e-07
3871.9,-2.1026661373180792e-07
3872.8,-2.1070191259805958e-07
3873.7,-2.1649579848019911e-07
3874.6,-2.2369098084354023e-07
3875.5,-2.309532233113793e-07
3876.4,-2.359077834550908e-07
3877.3,-2.3558225116190046e-07
3878.2,-2.3218248632606694e-07
3879.1,-2.2765847938815875e-07
3880.0,-2.2477868144654384e-07
3880.9,-2.223291083498938e-07
3881.8,-2.236203010046018e-07
3882.7,-2.2537571644246756e-07
3883.6,-2.2811439356197036e-07
3884.5,-2.304153097296321e-07
3885.4,-2.2836409603546217e-07
3886.3,-2.2525074258186793e-07
3887.2,-2.230719747238859e-07
3888.1,-2.231183615459019e-07
3889.0,-2.280451422240924e-07
3889.9,-2.3837277811053875e-07
3890.8,-2.5376606522226255e-07
3891.7,-2.705170376085468e-07
3892.6,-2.851805500636025e-07
3893.5,-2.9414061735051047e-07
3894.4,-2.9878727963314333e-07
3895.3,-3.021967510898261e-07
3896.2,-3.0145716730901376e-07
3897.1,-3.010070428680116e-07
3898.0,-3.000517331848939e-07
3898.9,-3.0121972278357656e-07
3899.8,-3.01380206573045e-07
3900.7,-2.9953260342310593e-07
3901.6,-2.9929340601635927e-07
3902.51,-2.9777844643131546e-07
3903.41,-2.930357591853432e-07
3904.31,-2.9114900057779467e-07
3905.21,-2.8820217753656563e-07
3906.11,-2.881604854273509e-07
3907.01,-2.9297831033435935e-07
3907.91,-3.0257287422008434e-07
3908.81,-3.1677500220265733e-07
3909.71,-3.3051818408032646e-07
3910.61,-3.4500716331006946e-07
3911.51,-3.529254058251354e-07
3912.41,-3.612940798451574e-07
3913.31,-3.6292224821991784e-07
3914.21,-3.6269709603003276e-07
3915.11,-3.613440200995374e-07
3916.01,-3.538104630869145e-07
3916.91,-3.4609432887696405e-07
3917.81,-3.3616494809624985e-07
3918.71,-3.2403859603055706e-07
3919.61,-3.109089778506211e-07
3920.51,-2.9697141416384956e-07
3921.41,-2.8554497493429734e-07
3922.31,-2.7671653306968966e-07
3923.21,-2.7183424157766435e-07
3924.11,-2.6915764519653524e-07
3925.01,-2.6390746798415907e-07
3925.91,-2.557764261811114e-07
3926.81,-2.4255781544842373e-07
3927.71,-2.2569771151149215e-07
3928.61,-2.023783001110665e-07
3929.51,-1.7967521442029858e-07
3930.41,-1.5788566633202233e-07
3931.31,-1.3809566592039659e-07
3932.21,-1.207559252014876e-07
3933.11,-1.0876110606365187e-07
3934.01,-1.0264912090681539e-07
3934.91,-1.0265879976436544e-07
3935.81,-1.095548589462905e-07
3936.71,-1.2251455365933744e-07
3937.61,-1.4066646815279413e-07
3938.51,-1.628020519949684e-07
3939.42,-1.84595262682541e-07
3940.32,-2.0473519598532596e-07
3941.22,-2.198420163905063e-07
3942.12,-2.335121583956686e-07
3943.02,-2.4306108120232617e-07
3943.92,-2.533133913525973e-07
3944.82,-2.641663740891366e-07
3945.72,-2.7680612813011817e-07
3946.62,-2.9163086218436824e-07
3947.52,-3.0835173551441266e-07
3948.42,-3.2456381342540187e-07
3949.32,-3.3911079737845665e-07
3950.22,-3.5049265106467085e-07
3951.12,-3.58915146209436e-07
3952.02,-3.656930629767398e-07
3952.92,-3.7261864178467454e-07
3953.82,-3.742607551120093e-07
3954.72,-3.743221658423818e-07
3955.62,-3.7471882217022824e-07
3956.52,-3.710440207840642e-07
3957.42,-3.65596630087811e-07
3958.32,-3.5589561358572807e-07
3959.22,-3.4516942827141323e-07
3960.12,-3.280286495031834e-07
3961.02,-3.0807557702580506e-07
3961.92,-2.857512336316811e-07
3962.82,-2.6066207664227916e-07
3963.72,-2.3585098823587964e-07
3964.62,-2.1436533092599096e-07
3965.52,-1.9335280079931083e-07
3966.42,-1.7237674768296117e-07
3967.32,-1.5362710819639147e-07
3968.22,-1.3895283715521233e-07
3969.12,-1.3095215944678845e-07
3970.02,-1.3070163508722565e-07
3970.92,-1.3980196291275346e-07
3971.82,-1.5745587163023527e-07
3972.72,-1.80427525584322e-07
3973.62,-2.0826748050928998e-07
3974.52,-2.384485633902784e-07
3975.42,-2.694911778110523e-07
3976.32,-2.982200229280206e-07
3977.22,-3.2686141623158363e-07
3978.13,-3.5375855633164025e-07
3979.03,-3.777467117439731e-07
3979.93,-3.969600039972787e-07
3980.83,-4.110390426488543e-07
3981.73,-4.222082710099427e-07
3982.63,-4.2910202527858653e-07
3983.53,-4.320741498023015e-07
3984.43,-4.366755538249343e-07
3985.33,-4.414517036764676e-07
3986.23,-4.475740919210132e-07
3987.13,-4.561085299315376e-07
3988.03,-4.640843616175203e-07
3988.93,-4.698457809752341e-07
3989.83,-4.766695314890939e-07
3990.73,-4.795115447608346e-07
3991.63,-4.861972076380975e-07
3992.53,-4.889123956324336e-07
3993.43,-4.949773944629298e-07
3994.33,-4.907024312941016e-07
3995.23,-4.887332844451774e-07
3996.13,-4.852981934146737e-07
3997.03,-4.835906361828614e-07
3997.93,-4.82879522208287e-07
3998.83,-4.847098775303946e-07
3999.73,-4.950805663613431e-07
4000.63,-5.049628207116824e-07
4001.53,-5.150525956613354e-07
4002.43,-5.204980454711287e-07
4003.33,-5.196661754371974e-07
4004.23,-5.141789077545808e-07
4005.13,-5.040354359003322e-07
4006.03,-4.925657406468891e-07
4006.93,-4.890284302870096e-07
4007.83,-4.90943079429002e-07
4008.73,-5.004546661149922e-07
4009.63,-5.125267015084431e-07
4010.53,-5.252301181489664e-07
4011.43,-5.36313848043131e-07
4012.33,-5.421653839509347e-07
4013.23,-5.489265112184701e-07
4014.13,-5.543554060156925e-07
4015.03,-5.552570765120189e-07
4015.93,-5.602975723028939e-07
4016.84,-5.627063651543774e-07
4017.74,-5.610758245814716e-07
4018.64,-5.610462717039667e-07
4019.54,-5.634551683814842e-07
4020.44,-5.659803261343203e-07
4021.34,-5.675107076037822e-07
4022.24,-5.674862155538716e-07
4023.14,-5.659010993634416e-07
4024.04,-5.659847461250405e-07
4024.94,-5.685810405791096e-07
4025.84,-5.700647274919509e-07
4026.74,-5.723911592905229e-07
4027.64,-5.751710703790315e-07
4028.54,-5.750387364597864e-07
4029.44,-5.647907289498908e-07
4030.34,-5.473883511826999e-07
4031.24,-5.2847770666923e-07
4032.14,-5.072693002747128e-07
4033.04,-4.926600881556532e-07
4033.94,-4.90317326705222e-07
4034.84,-4.974220700845668e-07
4035.74,-5.117534907450524e-07
4036.64,-5.356764752617896e-07
4037.54,-5.594875429301537e-07
4038.44,-5.834137539099154e-07
4039.34,-5.93363284392095e-07
4040.24,-6.027664129690822e-07
4041.14,-5.950043503167063e-07
4042.04,-5.858501798626211e-07
4042.94,-5.667923507290564e-07
4043.84,-5.400408218767606e-07
4044.74,-5.139453599168085e-07
4045.64,-4.922489355102677e-07
4046.54,-4.842990395617271e-07
4047.44,-4.871862883952958e-07
4048.34,-5.037076987008664e-07
4049.24,-5.325628375465417e-07
4050.14,-5.556613297060685e-07
4051.04,-5.792043451337473e-07
4051.94,-5.90935427819851e-07
4052.84,-5.927138523144175e-07
4053.74,-5.861874328996564e-07
4054.65,-5.828516678453721e-07
4055.55,-5.698414388831228e-07
4056.45,-5.583494377098998e-07
4057.35,-5.556044505705632e-07
4058.25,-5.51425411766894e-07
4059.15,-5.50466543118785e-07
4060.05,-5.495807992906738e-07
4060.95,-5.456641252705977e-07
4061.85,-5.377944846218988e-07
4062.75,-5.253394167130349e-07
4063.65,-5.158861338345349e-07
4064.55,-5.070455827282536e-07
4065.45,-5.078015087953033e-07
4066.35,-5.166348981214966e-07
4067.25,-5.286567127117584e-07
4068.15,-5.452835632549263e-07
4069.05,-5.57126530792204e-07
4069.95,-5.659204935574138e-07
4070.85,-5.677810124955149e-07
4071.75,-5.65922533074499e-07
4072.65,-5.622933187706865e-07
4073.55,-5.604219237625716e-07
4074.45,-5.596512760376765e-07
4075.35,-5.576986575638302e-07
4076.25,-5.550211778193715e-07
4077.15,-5.481232509991489e-07
4078.05,-5.498543400813451e-07
4078.95,-5.551087426526668e-07
4079.85,-5.67706881216489e-07
4080.75,-5.874772685025017e-07
4081.65,-6.064509667969888e-07
4082.55,-6.181549320806264e-07
4083.45,-6.264970592735233e-07
4084.35,-6.344956024370264e-07
4085.25,-6.380826984527832e-07
4086.15,-6.441695900912114e-07
4087.05,-6.58363583155651e-07
4087.95,-6.741154495267534e-07
4088.85,-6.826470499011455e-07
4089.75,-6.913213648434116e-07
4090.65,-7.015454154966501e-07
4091.55,-6.955071885659634e-07
4092.45,-6.89943364998228e-07
4093.36,-6.81305016039595e-07
4094.26,-6.730032141906881e-07
4095.16,-6.55079647275065e-07
4096.06,-6.39328349697058e-07
4096.96,-6.216858099237351e-07
4097.86,-6.036398141983523e-07
4098.76,-5.90347100066015e-07
4099.66,-5.721341578607632e-07
4100.56,-5.591326130495992e-07
4101.46,-5.453712414419057e-07
4102.36,-5.389156976521345e-07
4103.26,-5.476855602226773e-07
4104.16,-5.567448016432926e-07
4105.06,-5.78024609445197e-07
4105.96,-6.010254302382206e-07
4106.86,-6.214562691778418e-07
4107.76,-6.3383951066749e-07
4108.66,-6.422898442660127e-07
4109.56,-6.479351232142042e-07
4110.46,-6.46049464659745e-07
4111.36,-6.480610642845584e-07
4112.26,-6.49635720221136e-07
4113.16,-6.544951536230574e-07
4114.06,-6.640419429507648e-07
4114.96,-6.733589533491898e-07
4115.86,-6.802281063850213e-07
4116.76,-6.812149791747615e-07
4117.66,-6.788375513438736e-07
4118.56,-6.763896487661617e-07
4119.46,-6.687138375804258e-07
4120.36,-6.652251927990195e-07
4121.26,-6.635779318168514e-07
4122.16,-6.621812899243928e-07
4123.06,-6.671794478185906e-07
4123.96,-6.705875956845272e-07
4124.86,-6.758639945756739e-07
4125.76,-6.785834887510461e-07
4126.66,-6.805372067404392e-07
4127.56,-6.717404621508099e-07
4128.46,-6.665314136500801e-07
4129.36,-6.558850759363209e-07
4130.26,-6.425863137334856e-07
4131.17,-6.280708384418825e-07
4132.06,-6.180883582508628e-07
4132.97,-6.10809624089197e-07
4133.87,-6.108384043952834e-07
4134.77,-6.175607709956726e-07
4135.67,-6.346044391408366e-07
4136.57,-6.509145059433316e-07
4137.47,-6.678072647746059e-07
4138.37,-6.857883633674723e-07
4139.27,-6.938627456939857e-07
4140.17,-6.904847667274834e-07
4141.07,-6.802709485632882e-07
4141.97,-6.670070367707777e-07
4142.87,-6.410936058724691e-07
4143.77,-6.235997853403616e-07
4144.67,-6.151384258833991e-07
4145.57,-6.158366148849295e-07
4146.47,-6.235732143255554e-07
4147.37,-6.384546202354702e-07
4148.27,-6.518347850507385e-07
4149.17,-6.588610923002255e-07
4150.07,-6.616963364077228e-07
4150.97,-6.608569544293552e-07
4151.87,-6.57248619855986e-07
4152.77,-6.527693312252051e-07
4153.67,-6.523470568143232e-07
4154.57,-6.482899054501835e-07
4155.47,-6.494266967162522e-07
4156.37,-6.549053778574251e-07
4157.27,-6.583084832264466e-07
4158.17,-6.678322719817639e-07
4159.07,-6.810829364952563e-07
4159.97,-6.969892850103403e-07
4160.87,-7.14015567601261e-07
4161.77,-7.230409862531512e-07
4162.67,-7.325623426039401e-07
4163.57,-7.368213848090562e-07
4164.47,-7.341693740747631e-07
4165.37,-7.293355165805689e-07
4166.27,-7.227876209685994e-07
4167.17,-7.157451702465659e-07
4168.07,-7.027501531077255e-07
4168.98,-7.018863224660036e-07
4169.88,-6.930774846873577e-07
4170.78,-6.849297598915019e-07
4171.68,-6.729143437756669e-07
4172.58,-6.612858710344306e-07
4173.48,-6.504101489684933e-07
4174.38,-6.424785407206449e-07
4175.28,-6.389839332306164e-07
4176.18,-6.451940008700726e-07
4177.08,-6.517024385686784e-07
4177.98,-6.602811951113576e-07
4178.88,-6.698646802871243e-07
4179.78,-6.778768880521307e-07
4180.68,-6.835270389696284e-07
4181.58,-6.868268358813114e-07
4182.48,-6.932879703787179e-07
4183.38,-6.992489947924104e-07
4184.28,-6.981259393766982e-07
4185.18,-6.997946021025413e-07
4186.08,-6.98828440395803e-07
4186.98,-7.025114333135161e-07
4187.88,-6.981837825615373e-07
4188.78,-6.955159736564609e-07
4189.68,-7.008380669121777e-07
4190.58,-7.077647215630149e-07
4191.48,-7.170003038254667e-07
4192.38,-7.271767723444057e-07
4193.28,-7.315100931974945e-07
4194.18,-7.312519007635433e-07
4195.08,-7.265970353427456e-07
4195.98,-7.153990691980522e-07
4196.88,-6.955644698628072e-07
4197.78,-6.805166712618135e-07
4198.68,-6.656855144133978e-07
4199.58,-6.559591862588908e-07
4200.48,-6.516004685341672e-07
4201.38,-6.53867759091685e-07
4202.28,-6.609460680234052e-07
4203.18,-6.718643845513379e-07
4204.08,-6.869535765026398e-07
4204.98,-7.073802778986792e-07
4205.88,-7.26807871804151e-07
4206.79,-7.46432628068746e-07
4207.69,-7.6689086163331e-07
4208.59,-7.762703045641088e-07
4209.49,-7.876994829828131e-07
4210.39,-7.916208043614638e-07
4211.29,-7.863360860346897e-07
4212.19,-7.842333682520967e-07
4213.09,-7.768861965338247e-07
4213.99,-7.706115181000497e-07
4214.89,-7.618395741164214e-07
4215.79,-7.57206656748596e-07
4216.69,-7.558514162219474e-07
4217.59,-7.654750984043309e-07
4218.49,-7.795952274053283e-07
4219.39,-7.967610452026995e-07
4220.29,-8.059579689200542e-07
4221.19,-8.109086611564493e-07
4222.09,-7.939819286319093e-07
4222.99,-7.71253805077084e-07
4223.89,-7.309083045960965e-07
4224.79,-6.813780296018774e-07
4225.69,-6.379556346687742e-07
4226.59,-6.019189121478418e-07
4227.49,-5.877666034288253e-07
4228.39,-5.974885728658031e-07
4229.29,-6.232469369082296e-07
4230.19,-6.665436882149029e-07
4231.09,-7.088027895012418e-07
4231.99,-7.407639983780495e-07
4232.89,-7.615857345131585e-07
4233.79,-7.677534807864491e-07
4234.69,-7.689823969327816e-07
4235.59,-7.628480445516763e-07
4236.49,-7.568471001263093e-07
4237.39,-7.545971157402368e-07
4238.29,-7.566410136680441e-07
4239.19,-7.66546592321602e-07
4240.09,-7.817726081816294e-07
4240.99,-7.979464485928883e-07
4241.89,-8.159819628727368e-07
4242.79,-8.35126921228991e-07
4243.69,-8.502143623995831e-07
4244.59,-8.632842312271138e-07
4245.5,-8.637427240572232e-07
4246.4,-8.575463060269011e-07
4247.3,-8.451400912509726e-07
4248.2,-8.243562838208156e-07
4249.1,-7.97614726003117e-07
4250.0,-7.782465617690526e-07
4250.9,-7.677795511981435e-07
4251.8,-7.598387631858118e-07
4252.7,-7.588570472107032e-07
4253.6,-7.629793141799375e-07
4254.5,-7.656898618900779e-07
4255.4,-7.72653401076566e-07
4256.3,-7.843514609232855e-07
4257.2,-7.884084415666238e-07
4258.1,-7.889025052143028e-07
4259.0,-7.900188962070367e-07
4259.9,-7.847519674428664e-07
4260.8,-7.817312043495292e-07
4261.7,-7.896316255498464e-07
4262.6,-8.038058626761523e-07
4263.5,-8.306193003166146e-07
4264.4,-8.562482114572076e-07
4265.3,-8.783332273155207e-07
4266.2,-8.914375587572966e-07
4267.1,-8.937156232425342e-07
4268.0,-8.768508313617889e-07
4268.9,-8.475528231703751e-07
4269.8,-8.114607734757175e-07
4270.7,-7.754066671628312e-07
4271.6,-7.336398755484843e-07
4272.5,-7.059516945632735e-07
4273.4,-6.908573221179065e-07
4274.3,-6.955246394891088e-07
4275.2,-7.12888984178743e-07
4276.1,-7.389340412423332e-07
4277.0,-7.708357657085537e-07
4277.9,-8.044598912445725e-07
