wave,flux
3700.85,-5.699284493681048e-05
3701.75,-5.580857889543172e-05
3702.65,-5.414272492945294e-05
3703.55,-5.086489742996719e-05
3704.45,-4.715270037211417e-05
3705.35,-4.381673416983993e-05
3706.25,-4.1138511491990776e-05
3707.15,-3.982026740774674e-05
3708.05,-3.97382320186051e-05
3708.96,-4.097985558534922e-05
3709.86,-4.3388348176687235e-05
3710.76,-4.6831419113606524e-05
3711.66,-5.126931591687602e-05
3712.56,-5.525077734566403e-05
3713.46,-5.888788260540664e-05
3714.36,-6.154272645427368e-05
3715.26,-6.183914732677518e-05
3716.16,-6.082002169270613e-05
3717.06,-5.819725261905869e-05
3717.96,-5.3706468975662704e-05
3718.86,-4.8530745282003034e-05
3719.76,-4.360722721119634e-05
3720.66,-3.960581465915699e-05
3721.56,-3.716910823576662e-05
3722.46,-3.75949094249419e-05
3723.36,-4.018692642257261e-05
3724.26,-4.398301793381279e-05
3725.16,-4.7753737010142784e-05
3726.06,-5.073477012147515e-05
3726.96,-5.217893250390152e-05
3727.86,-5.303218389404868e-05
3728.76,-5.3218846518056726e-05
3729.66,-5.25504705956681e-05
3730.56,-5.1373314044956656e-05
3731.46,-4.9328291096817725e-05
3732.36,-4.617271769358668e-05
3733.26,-4.227675875414967e-05
3734.16,-3.80548104959781e-05
3735.06,-3.476619687706266e-05
3735.96,-3.320212346581691e-05
3736.86,-3.349870846275277e-05
3737.76,-3.59739256386922e-05
3738.66,-3.999686353664199e-05
3739.56,-4.500253380804721e-05
3740.46,-4.9183154774483004e-05
3741.36,-5.216811755830316e-05
3742.26,-5.313771967801615e-05
3743.16,-5.1614146148012635e-05
3744.06,-4.885038525063147e-05
3744.96,-4.545512683658705e-05
3745.86,-4.2180257475645784e-05
3746.76,-3.947133911685938e-05
3747.67,-3.7495408543092544e-05
3748.57,-3.693216228474027e-05
3749.47,-3.7459509021762154e-05
3750.37,-3.992342825672923e-05
3751.27,-4.4305635261173984e-05
3752.17,-4.999747696594774e-05
3753.07,-5.6043871587315e-05
3753.97,-6.154969520291584e-05
3754.87,-6.520704160906705e-05
3755.77,-6.668034561473095e-05
3756.67,-6.590609278711248e-05
3757.57,-6.281771791564304e-05
3758.47,-5.927801663723765e-05
3759.37,-5.6772831890340764e-05
3760.27,-5.569411913994193e-05
3761.17,-5.616723529819648e-05
3762.07,-5.731624732491742e-05
3762.97,-5.8370809486118e-05
3763.87,-5.9319865379310195e-05
3764.77,-5.9969492647415824e-05
3765.67,-6.0391807343072805e-05
3766.57,-6.118839215955117e-05
3767.47,-6.242979647652213e-05
3768.37,-6.404487119943552e-05
3769.27,-6.657017399554742e-05
3770.17,-6.934607923780796e-05
3771.07,-7.230366072227217e-05
3771.97,-7.549208104787822e-05
3772.87,-7.852858977401041e-05
3773.77,-8.104027592651357e-05
3774.67,-8.248785288829731e-05
3775.57,-8.360052400683281e-05
3776.47,-8.458088479284432e-05
3777.37,-8.562784437727455e-05
3778.27,-8.687331543759012e-05
3779.17,-8.875676901388716e-05
3780.07,-9.067310359349167e-05
3780.97,-9.268221499645973e-05
3781.87,-9.475494904351993e-05
3782.77,-9.59005832089118e-05
3783.67,-9.571193464496307e-05
3784.57,-9.430954368591669e-05
3785.47,-9.11902028007216e-05
3786.38,-8.689781741949543e-05
3787.28,-8.228351702393931e-05
3788.18,-7.853462507111014e-05
3789.08,-7.553802279536796e-05
3789.98,-7.453361789829201e-05
3790.88,-7.466058312376217e-05
3791.78,-7.514389665455983e-05
3792.68,-7.542807274872959e-05
3793.58,-7.503368037776725e-05
3794.48,-7.375151692880168e-05
3795.38,-7.231032113299437e-05
3796.28,-7.055315725083055e-05
3797.18,-6.881264871301868e-05
3798.08,-6.806348864533603e-05
3798.98,-6.893539768723585e-05
3799.88,-7.159407370950397e-05
3800.78,-7.529847665172532e-05
3801.68,-8.105271312889432e-05
3802.58,-8.712672207134908e-05
3803.48,-9.231659985466227e-05
3804.38,-9.586004942448448e-05
3805.28,-9.77880069043026e-05
3806.18,-9.777209999961063e-05
3807.08,-9.780668654986234e-05
3807.98,-9.743402070868954e-05
3808.88,-9.83196815601418e-05
3809.78,-9.92539951366154e-05
3810.68,-0.00010005544632250996
3811.58,-9.929230410321735e-05
3812.48,-9.670422169401493e-05
3813.38,-9.294733467439798e-05
3814.28,-8.729626651444006e-05
3815.18,-8.297935212133246e-05
3816.08,-7.917089040927713e-05
3816.98,-7.703113404371184e-05
3817.88,-7.568399581432225e-05
3818.78,-7.461674450631138e-05
3819.68,-7.324365606757539e-05
3820.58,-7.167499472363023e-05
3821.48,-7.01749274984099e-05
3822.38,-6.935231417341887e-05
3823.28,-6.83117562556606e-05
3824.18,-6.714180997533923e-05
3825.09,-6.513417833939118e-05
3825.99,-6.280264096373838e-05
3826.89,-6.116343744777159e-05
3827.79,-6.008160068674213e-05
3828.69,-6.074540633103408e-05
3829.59,-6.15896564904403e-05
3830.49,-6.221735114791508e-05
3831.39,-6.23851444869848e-05
3832.29,-6.183959969153676e-05
3833.19,-6.0951570272195e-05
3834.09,-6.080886094712168e-05
3834.99,-6.06887749654062e-05
3835.89,-6.136170530492733e-05
3836.79,-6.269250736375916e-05
3837.69,-6.344966286684354e-05
3838.59,-6.365484437283964e-05
3839.49,-6.469756693685394e-05
3840.39,-6.706673049957316e-05
3841.29,-7.135916774762191e-05
3842.19,-7.784944995151708e-05
3843.09,-8.517940422926531e-05
3843.99,-9.24424442583092e-05
3844.89,-9.857455573919552e-05
3845.79,-0.00010326849354540618
3846.69,-0.00010664348277599487
3847.59,-0.00010759159145716053
3848.49,-0.00010752426467086393
3849.39,-0.00010755724813097318
3850.29,-0.00010675854856025065
3851.19,-0.0001062116822632177
3852.09,-0.00010674333643183233
3852.99,-0.00010636462472129851
3853.89,-0.000106263230162942
3854.79,-0.00010467649233640965
3855.69,-0.00010205573802768165
3856.59,-9.89143038258231e-05
3857.49,-9.478590769069257e-05
3858.39,-9.128837974661181e-05
3859.29,-8.916737383135524e-05
3860.19,-8.861615071444692e-05
3861.09,-9.126115318986633e-05
3861.99,-9.713958585826921e-05
3862.9,-0.00010315188346465246
3863.8,-0.00011011226892094848
3864.7,-0.00011501815913594496
3865.6,-0.00011783201910865863
3866.5,-0.00011841383971305781
3867.4,-0.0001179696297303528
3868.3,-0.00011619821770291655
3869.2,-0.00011381892867586147
3870.1,-0.00011054269553937342
3871.0,-0.00010769189017793113
3871.9,-0.00010584827527379655
3872.8,-0.00010694134666594524
3873.7,-0.00010955848634659089
3874.6,-0.0001139053716760465
3875.5,-0.00011858133087715451
3876.4,-0.00012115115636929157
3877.3,-0.00012186163627248438
3878.2,-0.0001199794018713303
3879.1,-0.00011855843790106254
3880.0,-0.00011760688570026919
3880.9,-0.0001171222525614899
3881.8,-0.00011833142024819733
3882.7,-0.0001199228449340323
3883.6,-0.0001215489524474505
3884.5,-0.00012276392746848086
3885.4,-0.000122406253260345
3886.3,-0.00012089332179777247
3887.2,-0.00011986935287947999
3888.1,-0.00012089092289307423
3889.0,-0.00012317910015849758
3889.9,-0.00012958963127818234
3890.8,-0.00013744247182111347
3891.7,-0.0001469764108124428
3892.6,-0.0001561588542321688
3893.5,-0.00016213842857768673
3894.4,-0.00016670704334392056
3895.3,-0.00016844421834448473
3896.2,-0.00016907789568246877
3897.1,-0.00017039602484954892
3898.0,-0.00017098111293395376
3898.9,-0.00017202402083601963
3899.8,-0.00017294309470526167
3900.7,-0.00017295499419762007
3901.6,-0.00017359292859727018
3902.51,-0.0001737481705823657
3903.41,-0.00017248251005266206
3904.31,-0.0001713592243786968
3905.21,-0.00017089125395659512
3906.11,-0.00017145948958814663
3907.01,-0.00017451179481147583
3907.91,-0.0001809057926918195
3908.81,-0.00019007770166895528
3909.71,-0.00020037539898178373
3910.61,-0.00020832841715071577
3911.51,-0.0002143761605169095
3912.41,-0.00021926140401029825
3913.31,-0.00022307424744828972
3914.21,-0.00022407783149134246
3915.11,-0.00022279306341530756
3916.01,-0.00022082237233739667
3916.91,-0.00021673934789238062
3917.81,-0.00021242338940643393
3918.71,-0.00020498080935234906
3919.61,-0.00019850673174954742
3920.51,-0.00019045607149647493
3921.41,-0.00018424941477137904
3922.31,-0.00017952398312655766
3923.21,-0.00017754951762380386
3924.11,-0.0001763003508421483
3925.01,-0.0001741799797827172
3925.91,-0.00016890212809973117
3926.81,-0.00016098110456493918
3927.71,-0.00014993511982799968
3928.61,-0.00013606929995586408
3929.51,-0.00012168319765070778
3930.41,-0.00010687560597166951
3931.31,-9.347753402597844e-05
3932.21,-8.214712860439532e-05
3933.11,-7.390593154716089e-05
3934.01,-6.993370041043829e-05
3934.91,-7.068534286389441e-05
3935.81,-7.549290008921264e-05
3936.71,-8.502811462055143e-05
3937.61,-9.853218541623792e-05
3938.51,-0.00011409812663970417
3939.42,-0.00013104561450191313
3940.32,-0.0001453284520707433
3941.22,-0.00015828049712907544
3942.12,-0.0001684012353281082
3943.02,-0.0001766784371215123
3943.92,-0.00018436853454795524
3944.82,-0.00019300452791953988
3945.72,-0.00020359741066514747
3946.62,-0.00021567224907074401
3947.52,-0.0002288120622779507
3948.42,-0.0002410635121617489
3949.32,-0.00025228074410945034
3950.22,-0.00026313944357472975
3951.12,-0.0002716439357505365
3952.02,-0.00027702101937640506
3952.92,-0.0002820994704123944
3953.82,-0.0002851439813849479
3954.72,-0.00028801387795474964
3955.62,-0.00028696109526710683
3956.52,-0.00028762969722572433
3957.42,-0.0002837035828956155
3958.32,-0.00027990945667688495
3959.22,-0.0002719207663010739
3960.12,-0.000261836044641614
3961.02,-0.00024551136189453817
3961.92,-0.00022864720042397734
3962.82,-0.0002107835314478104
3963.72,-0.0001926371385629938
3964.62,-0.00017505534561903727
3965.52,-0.0001586502537324639
3966.42,-0.00014219717147759554
3967.32,-0.000126827246720862
3968.22,-0.00011435710741228537
3969.12,-0.00010787455355350817
3970.02,-0.00010902680612080734
3970.92,-0.00011691696705398945
3971.82,-0.00013237349308368838
3972.72,-0.00015320311893895878
3973.62,-0.0001771637208146092
3974.52,-0.00020350137656315523
3975.42,-0.00022961613309469816
3976.32,-0.0002570340361881572
3977.22,-0.00028361665881082994
3978.13,-0.00030645145493026334
3979.03,-0.00032924333778702714
3979.93,-0.0003482435010393607
3980.83,-0.0003636250232029764
3981.73,-0.00037500866134427104
3982.63,-0.00038213804958926235
3983.53,-0.0003869241420711881
3984.43,-0.0003929633463066837
3985.33,-0.00039990229629998324
3986.23,-0.0004083375349822121
3987.13,-0.00041582234822604527
3988.03,-0.0004277515801875093
3988.93,-0.00043361494584075465
3989.83,-0.00044241439877478465
3990.73,-0.00045085688147659676
3991.63,-0.00045624367594241765
3992.53,-0.00046200297264050724
3993.43,-0.0004655717782601843
3994.33,-0.0004677847096708407
3995.23,-0.00046801099928125387
3996.13,-0.0004667032288066433
3997.03,-0.0004655831945200663
3997.93,-0.00046684875634574126
3998.83,-0.0004754778963244396
3999.73,-0.00048674139809140485
4000.63,-0.0004993658547350494
4001.53,-0.0005120393860192041
4002.43,-0.0005206015515084406
4003.33,-0.0005212270759920416
4004.23,-0.0005178258526577622
4005.13,-0.0005099199925838411
4006.03,-0.000505257645356436
4006.93,-0.0005006574830103063
4007.83,-0.0005065226975908659
4008.73,-0.0005161444254322932
4009.63,-0.0005315343301436981
4010.53,-0.000549494018687627
4011.43,-0.0005635955215032746
4012.33,-0.0005739187183642307
4013.23,-0.00058308667375385
4014.13,-0.0005898503617904701
4015.03,-0.0005985046007947604
4015.93,-0.0006034189315428216
4016.84,-0.000607333658525548
4017.74,-0.0006076780490129945
4018.64,-0.000615326405957777
4019.54,-0.0006192294739719348
4020.44,-0.0006272892126762502
4021.34,-0.0006313333598577021
4022.24,-0.0006343901420007544
4023.14,-0.0006359274384222851
4024.04,-0.000641241697504345
4024.94,-0.0006445845382570239
4025.84,-0.0006513722494700614
4026.74,-0.0006584597345718368
4027.64,-0.0006666758280508881
4028.54,-0.0006652063468880943
4029.44,-0.0006591614905732716
4030.34,-0.0006399885391163119
4031.24,-0.0006230707787477548
4032.14,-0.0006040528712801238
4033.04,-0.0005922862555170218
4033.94,-0.0005893431210755258
4034.84,-0.0006018311876674409
4035.74,-0.0006248527652651207
4036.64,-0.0006559781329418567
4037.54,-0.0006915509878915925
4038.44,-0.0007207585441138276
4039.34,-0.0007369866210616286
4040.24,-0.0007492068683696594
4041.14,-0.0007461490830474716
4042.04,-0.0007392880520895145
4042.94,-0.0007154935526303227
4043.84,-0.0006931389176099628
4044.74,-0.0006607024707751721
4045.64,-0.0006383466724690778
4046.54,-0.0006312534141863509
4047.44,-0.0006397171801679761
4048.34,-0.0006629244691796177
4049.24,-0.0007018471385041104
4050.14,-0.0007391526846456403
4051.04,-0.0007749084887750994
4051.94,-0.0007936249978462845
4052.84,-0.0007999918076425028
4053.74,-0.0007973292009250506
4054.65,-0.0007894719725466048
4055.55,-0.0007812679251065762
4056.45,-0.0007733571296719702
4057.35,-0.0007675115363806712
4058.25,-0.0007628865606122375
4059.15,-0.000769125224339935
4060.05,-0.0007745933576601906
4060.95,-0.0007744369533480837
4061.85,-0.000769299667223078
4062.75,-0.0007581277558088333
4063.65,-0.0007463524104304219
4064.55,-0.000739293092351218
4065.45,-0.0007423391816747411
4066.35,-0.0007581768168883692
4067.25,-0.000782733442864142
4068.15,-0.0008110686565856654
4069.05,-0.0008354791639051722
4069.95,-0.0008539592439288383
4070.85,-0.0008566734334015001
4071.75,-0.0008606222081738738
4072.65,-0.0008599576941646028
4073.55,-0.0008615803442164365
4074.45,-0.0008650352821834382
4075.35,-0.000865883470592414
4076.25,-0.0008656860888311713
4077.15,-0.0008591946432002566
4078.05,-0.0008652586158057573
4078.95,-0.0008847533909718361
4079.85,-0.0009086874491281555
4080.75,-0.0009410303963779507
4081.65,-0.0009749466855380588
4082.55,-0.0010013488535185594
4083.45,-0.001022863162757103
4084.35,-0.0010380223097476884
4085.25,-0.0010518009619230476
4086.15,-0.0010668344967969322
4087.05,-0.0010964838136365463
4087.95,-0.001126510170322325
4088.85,-0.001155790782159121
4089.75,-0.001177683380540701
4090.65,-0.0011922162117539506
4091.55,-0.0011962533202603085
4092.45,-0.0011976863197921508
4093.36,-0.0011838972459296446
4094.26,-0.001169956579488675
4095.16,-0.0011531949798849234
4096.06,-0.0011336530441768253
4096.96,-0.0011125756298351237
4097.86,-0.001090033249356726
4098.76,-0.0010578652453940723
4099.66,-0.0010359333593116672
4100.56,-0.0010160907562047012
4101.46,-0.0010003389478831929
4102.36,-0.0009914798714502312
4103.26,-0.0010090685379452007
4104.16,-0.001039129655822886
4105.06,-0.0010830992122634376
4105.96,-0.0011308513060098654
4106.86,-0.0011774070944808445
4107.76,-0.0012142094846250679
4108.66,-0.0012409281965617084
4109.56,-0.0012554516540158693
4110.46,-0.0012673385951237905
4111.36,-0.0012665141720904476
4112.26,-0.0012862501756695176
4113.16,-0.0013031351069445884
4114.06,-0.0013274563237171593
4114.96,-0.0013570586926597986
4115.86,-0.0013753630851739967
4116.76,-0.0013872895172519079
4117.66,-0.0013961297620336416
4118.56,-0.0013878506835057383
4119.46,-0.001392248046670419
4120.36,-0.0013894995137515795
4121.26,-0.001388719116642595
4122.16,-0.00139953991957281
4123.06,-0.0014170200904934146
4123.96,-0.0014375643565285373
4124.86,-0.0014525660198014126
4125.76,-0.0014660773080876083
4126.66,-0.0014765319914406207
4127.56,-0.0014785897255469242
4128.46,-0.0014672689454165498
4129.36,-0.0014584474223888826
4130.26,-0.0014411412698326635
4131.17,-0.0014266696909885832
4132.06,-0.001403798240113036
4132.97,-0.001399438625341613
4133.87,-0.0014059351531181827
4134.77,-0.0014216071730358017
4135.67,-0.0014730677651696366
4136.57,-0.0015198341518076301
4137.47,-0.001575475197154183
4138.37,-0.0016268218819400818
4139.27,-0.0016475450278446422
4140.17,-0.0016615049058213893
4141.07,-0.0016499794127719104
4141.97,-0.0016106439127413245
4142.87,-0.0015750098462496752
4143.77,-0.001540076425198132
4144.67,-0.0015307901462223703
4145.57,-0.0015395235496312954
4146.47,-0.001566843563521769
4147.37,-0.0016121147000030278
4148.27,-0.0016543318153360712
4149.17,-0.0016897185795641304
4150.07,-0.0017047527916343003
4150.97,-0.0017075677700197675
4151.87,-0.0017108131069226828
4152.77,-0.0017165652515749997
4153.67,-0.0017136693598379285
4154.57,-0.001728720905535314
4155.47,-0.0017309040579230504
4156.37,-0.0017558205453491239
4157.27,-0.0017833486283615441
4158.17,-0.0018197065243795493
4159.07,-0.0018729834831771317
4159.97,-0.0019185422071661786
4160.87,-0.0019689763286893113
4161.77,-0.002028000671919113
4162.67,-0.002052879066431606
4163.57,-0.002078565070639684
4164.47,-0.0020899527314979117
4165.37,-0.0020968028334336247
4166.27,-0.002087218951344144
4167.17,-0.0020755735914837134
4168.07,-0.0020630901648338437
4168.98,-0.002066938553948723
4169.88,-0.0020480674017828095
4170.78,-0.0020382628914292354
4171.68,-0.0020225762137882387
4172.58,-0.002002568277974188
4173.48,-0.001973763692923917
4174.38,-0.001974882697377757
4175.28,-0.001985964031397365
4176.18,-0.0020064670103345015
4177.08,-0.0020305283080982897
4177.98,-0.0020827756418128223
4178.88,-0.0021213825510402427
4179.78,-0.0021596899968764575
4180.68,-0.0021944412845917864
4181.58,-0.0022235014888312113
4182.48,-0.002258470830138147
4183.38,-0.0022818362253460506
4184.28,-0.002301685697920161
4185.18,-0.002323628758379301
4186.08,-0.0023434589099368135
4186.98,-0.0023542594904307603
4187.88,-0.0023555924277466112
4188.78,-0.0023781740715228656
4189.68,-0.0024115368131530555
4190.58,-0.0024484095929578594
4191.48,-0.0025016011859905285
4192.38,-0.002560699359745506
4193.28,-0.0025836272678827904
4194.18,-0.00260701374028806
4195.08,-0.0025992642617495335
4195.98,-0.0025726346546753594
4196.88,-0.002536979574953294
4197.78,-0.002492555014735221
4198.68,-0.0024563121015542815
4199.58,-0.0024363911253555116
4200.48,-0.0024523425241749666
4201.38,-0.0024657296245698375
4202.28,-0.0025163865930524928
4203.18,-0.0025615302567297206
4204.08,-0.0026373217440878428
4204.98,-0.0027437588107649398
4205.88,-0.0028248257975809436
4206.79,-0.0029404611539557203
4207.69,-0.003009707352675949
4208.59,-0.0030922011335755154
4209.49,-0.003135103175626955
4210.39,-0.0031652710827539204
4211.29,-0.003196560757019917
4212.19,-0.0032071402740160185
4213.09,-0.0031967562820972594
4213.99,-0.003195884013935076
4214.89,-0.003169628188811553
4215.79,-0.0031831948365180036
4216.69,-0.0031920165843353663
4217.59,-0.003255555978381197
4218.49,-0.003323696098452893
4219.39,-0.003439248993998822
4220.29,-0.0034919568449867304
4221.19,-0.0035289155937254482
4222.09,-0.003513312741407246
4222.99,-0.003414849604202157
4223.89,-0.003288305520913451
4224.79,-0.00310171247355923
4225.69,-0.0029105056028517094
4226.59,-0.0027862115505968123
4227.49,-0.002728934904041712
4228.39,-0.002808584515627318
4229.29,-0.002940658573925988
4230.19,-0.003171484158448705
4231.09,-0.0033832494648333585
4231.99,-0.003572981494579451
4232.89,-0.003683482834714563
4233.79,-0.003737466861973026
4234.69,-0.003760131140458086
4235.59,-0.0037644468943466743
4236.49,-0.003754006024024822
4237.39,-0.003761286209417369
4238.29,-0.003806779960664806
4239.19,-0.0038876546759695784
4240.09,-0.003969344355448694
4240.99,-0.0040933210411789305
4241.89,-0.0042192099874283785
4242.79,-0.004329007402332347
4243.69,-0.00445100670796328
4244.59,-0.004546975904480665
4245.5,-0.004589257004152403
4246.4,-0.00459717239620616
4247.3,-0.004568753136900191
4248.2,-0.004496194684969529
4249.1,-0.004394440409624888
4250.0,-0.004314187171861009
4250.9,-0.004275935166108543
4251.8,-0.004274914166974747
4252.7,-0.0042966325396684695
4253.6,-0.004366951373709471
4254.5,-0.0044386405494007694
4255.4,-0.004485204038697081
4256.3,-0.004566879967141303
4257.2,-0.004664667574296775
4258.1,-0.00469517305886471
4259.0,-0.004724641029578593
4259.9,-0.004732134593657806
4260.8,-0.004723943674500213
4261.7,-0.0048229993523965725
4262.6,-0.004933161315476402
4263.5,-0.00515642578314818
4264.4,-0.005350817458996352
4265.3,-0.005553780750319581
4266.2,-0.005633289039956321
4267.1,-0.005698267656901898
4268.0,-0.005642815011401801
4268.9,-0.005525722559683061
4269.8,-0.005333536789836803
4270.7,-0.005101786772722841
4271.6,-0.004899962744579852
4272.5,-0.004766612438936744
4273.4,-0.00471578699754055
4274.3,-0.0047695704214710715
4275.2,-0.004902646475107447
4276.1,-0.005139050383714257
4277.0,-0.005391840017864513
4277.9,-0.0056806588129082744
4278.8,-0.005902148512320919
4279.7,-0.006071051903794731
4280.6,-0.006176915226940368
4281.5,-0.006214758858917384
4282.4,-0.006236245756255648
4283.31,-0.006276175508466982
