wave,flux
3700.85,-4.7378647088531554e-05
3701.75,-4.714870115959685e-05
3702.65,-4.648581585091049e-05
3703.55,-4.524648171563879e-05
3704.45,-4.390089005653406e-05
3705.35,-4.311998189117662e-05
3706.25,-4.340758606700887e-05
3707.15,-4.352428744422291e-05
3708.05,-4.429458209449663e-05
3708.96,-4.5078096080767675e-05
3709.86,-4.526463674834746e-05
3710.76,-4.548564926015079e-05
3711.66,-4.597354345596001e-05
3712.56,-4.676188431164461e-05
3713.46,-4.823401260480283e-05
3714.36,-5.0220218274138256e-05
3715.26,-5.2074407249667416e-05
3716.16,-5.3552551204524784e-05
3717.06,-5.461860924227844e-05
3717.96,-5.417121771305076e-05
3718.86,-5.243793769479374e-05
3719.76,-5.006519321044414e-05
3720.66,-4.736690354208138e-05
3721.56,-4.5357428719475136e-05
3722.46,-4.466020600445106e-05
3723.36,-4.574281410104655e-05
3724.26,-4.800076233132467e-05
3725.16,-5.118318476272771e-05
3726.06,-5.426379880075711e-05
3726.96,-5.648923584926333e-05
3727.86,-5.837629776365988e-05
3728.76,-5.938750896369416e-05
3729.66,-5.915619967609487e-05
3730.56,-5.803780763832457e-05
3731.46,-5.611310350441861e-05
3732.36,-5.2831913803256374e-05
3733.26,-4.911361158478542e-05
3734.16,-4.65497837320135e-05
3735.06,-4.4797060861030305e-05
3735.96,-4.491184497935501e-05
3736.86,-4.6890718650473745e-05
3737.76,-5.0470696800820504e-05
3738.66,-5.502938044317732e-05
3739.56,-5.9863440122429034e-05
3740.46,-6.359917167799555e-05
3741.36,-6.66465288873253e-05
3742.26,-6.840148597778629e-05
3743.16,-6.799239139369525e-05
3744.06,-6.738631536579948e-05
3744.96,-6.497049003665426e-05
3745.86,-6.255439178087907e-05
3746.76,-5.892631271215424e-05
3747.67,-5.538168135427076e-05
3748.57,-5.227715014871409e-05
3749.47,-4.971845412048895e-05
3750.37,-4.880083359540988e-05
3751.27,-5.0179580491918824e-05
3752.17,-5.340256340456108e-05
3753.07,-5.811627068018173e-05
3753.97,-6.332363835340624e-05
3754.87,-6.815972438052454e-05
3755.77,-7.219372634906547e-05
3756.67,-7.541314275294788e-05
3757.57,-7.696333560618771e-05
3758.47,-7.734829143434225e-05
3759.37,-7.813604594264528e-05
3760.27,-7.890252180588253e-05
3761.17,-7.980810660586759e-05
3762.07,-8.089388007148085e-05
3762.97,-8.159694515022905e-05
3763.87,-8.170313198799783e-05
3764.77,-8.07167517046095e-05
3765.67,-7.892812547307987e-05
3766.57,-7.625645468950538e-05
3767.47,-7.285491236221695e-05
3768.37,-6.886260164384984e-05
3769.27,-6.55822149212863e-05
3770.17,-6.294913704188733e-05
3771.07,-6.178848276408915e-05
3771.97,-6.291863579893197e-05
3772.87,-6.541540427335533e-05
3773.77,-6.968676071945279e-05
3774.67,-7.452716515455613e-05
3775.57,-7.952406705644179e-05
3776.47,-8.469165236015867e-05
3777.37,-8.976483308677313e-05
3778.27,-9.491283954627635e-05
3779.17,-9.944267618901221e-05
3780.07,-0.0001033937955326007
3780.97,-0.00010689340166850226
3781.87,-0.00010977833612084752
3782.77,-0.00011229580785416455
3783.67,-0.00011332475239790236
3784.57,-0.0001139374730386719
3785.47,-0.00011282242665195199
3786.38,-0.00011128365493904208
3787.28,-0.00010976476580445788
3788.18,-0.00010764557583900089
3789.08,-0.00010539130225393216
3789.98,-0.00010322866275069107
3790.88,-0.00010113298586279868
3791.78,-9.82142426118066e-05
3792.68,-9.470524197774945e-05
3793.58,-9.055692367824373e-05
3794.48,-8.56522261477849e-05
3795.38,-7.968298472612627e-05
3796.28,-7.442849694663942e-05
3797.18,-7.017969731111577e-05
3798.08,-6.777719291336249e-05
3798.98,-6.76268606492269e-05
3799.88,-7.026600345354106e-05
3800.78,-7.524684014349101e-05
3801.68,-8.257886021411895e-05
3802.58,-9.052750696118512e-05
3803.48,-9.803502747079488e-05
3804.38,-0.00010467479149384938
3805.28,-0.00011061820189591653
3806.18,-0.00011464777866207117
3807.08,-0.00011971315696898951
3807.98,-0.00012389351600065846
3808.88,-0.00012809336734835968
3809.78,-0.00013176286379312698
3810.68,-0.00013552713904763718
3811.58,-0.00013807596717332383
3812.48,-0.0001389800524667849
3813.38,-0.00013971818134205546
3814.28,-0.00013974562564031176
3815.18,-0.00014047382997290882
3816.08,-0.000140993366154826
3816.98,-0.00014182099426690215
3817.88,-0.00014321538159969743
3818.78,-0.00014397953879014436
3819.68,-0.00014382348392789058
3820.58,-0.00014251363857797496
3821.48,-0.00014112342521299312
3822.38,-0.00013971484297320094
3823.28,-0.0001383988695469284
3824.18,-0.00013561256569869754
3825.09,-0.0001330175546865337
3825.99,-0.00012845475810767715
3826.89,-0.00012529982930885165
3827.79,-0.00012138193592318712
3828.69,-0.00011832893324692594
3829.59,-0.00011383034809139861
3830.49,-0.00010918087275182257
3831.39,-0.00010317846863730758
3832.29,-9.699962581262081e-05
3833.19,-8.984174086409105e-05
3834.09,-8.453235942633412e-05
3834.99,-8.000365765646252e-05
3835.89,-7.78156396351677e-05
3836.79,-7.816250008391972e-05
3837.69,-8.135652188329995e-05
3838.59,-8.681759980401625e-05
3839.49,-9.423340289930489e-05
3840.39,-0.00010244185127853646
3841.29,-0.00011129437954861444
3842.19,-0.00012105875088801776
3843.09,-0.0001307121664559887
3843.99,-0.00013874196096091949
3844.89,-0.00014625055386642284
3845.79,-0.00015321971533208362
3846.69,-0.00015900959014660871
3847.59,-0.00016507020490726625
3848.49,-0.00016953042504030524
3849.39,-0.00017434179581586614
3850.29,-0.00017779143473644246
3851.19,-0.0001816031089496844
3852.09,-0.00018519715587967037
3852.99,-0.00018971842438372444
3853.89,-0.00019249960324355453
3854.79,-0.000193713179083574
3855.69,-0.00019633456422268823
3856.59,-0.00019766973421190274
3857.49,-0.0001970726929226391
3858.39,-0.00019861271320383418
3859.29,-0.00019958251529951382
3860.19,-0.00020160945697476247
3861.09,-0.00020480082561401996
3861.99,-0.00020800221858013768
3862.9,-0.00021112568610440134
3863.8,-0.00021336269058515688
3864.7,-0.0002165981461676391
3865.6,-0.00021756654119097413
3866.5,-0.00021934442915804588
3867.4,-0.00021997482994810325
3868.3,-0.0002201058681029199
3869.2,-0.00021879583802861686
3870.1,-0.0002191209380133449
3871.0,-0.0002180228736041617
3871.9,-0.00021571236568528618
3872.8,-0.00021364897133191931
3873.7,-0.00021232229796050951
3874.6,-0.0002116147990601418
3875.5,-0.00020936702308564978
3876.4,-0.00020854675753879425
3877.3,-0.00020365355636069082
3878.2,-0.00020059597419876647
3879.1,-0.000195491141558775
3880.0,-0.00019181490953955446
3880.9,-0.00018690774959471965
3881.8,-0.00018243902746346402
3882.7,-0.0001775497724452956
3883.6,-0.0001717859112448777
3884.5,-0.00016441786241714525
3885.4,-0.00015616128513283104
3886.3,-0.00014562512861594683
3887.2,-0.0001372060187138043
3888.1,-0.00012933627377760792
3889.0,-0.00012346170507721528
3889.9,-0.0001228150628653645
3890.8,-0.0001268380224625615
3891.7,-0.00013404140761271092
3892.6,-0.0001442122310451734
3893.5,-0.00015607008521618878
3894.4,-0.0001668193245848947
3895.3,-0.00017784754374676492
3896.2,-0.00018676203201349576
3897.1,-0.00019654787427806486
3898.0,-0.00020391596227372423
3898.9,-0.00021265149516275507
3899.8,-0.0002197282733399319
3900.7,-0.00022644588994330628
3901.6,-0.00023275902641547758
3902.51,-0.00024003258614417022
3903.41,-0.0002448592575058366
3904.31,-0.0002500616198210185
3905.21,-0.0002552118218204457
3906.11,-0.0002597133580588435
3907.01,-0.00026515091214235434
3907.91,-0.00027299874382439476
3908.81,-0.0002805530063316735
3909.71,-0.00028729362854880696
3910.61,-0.0002944991233360386
3911.51,-0.00029991778994621556
3912.41,-0.0003035316967190382
3913.31,-0.0003052119924466386
3914.21,-0.00030804552999572467
3915.11,-0.00030976813535500675
3916.01,-0.0003106279943229969
3916.91,-0.00031076585601801283
3917.81,-0.00031139540469406473
3918.71,-0.00031395960506227605
3919.61,-0.00031605418234814724
3920.51,-0.0003174675480734223
3921.41,-0.00031945748192691064
3922.31,-0.0003214320729056526
3923.21,-0.00032430653417775027
3924.11,-0.00032653682849097607
3925.01,-0.00032776772295425226
3925.91,-0.000325291088683568
3926.81,-0.0003239850880736936
3927.71,-0.0003188978659536812
3928.61,-0.00031005449302978067
3929.51,-0.0002991738996813347
3930.41,-0.00028383720023748377
3931.31,-0.000267827651236505
3932.21,-0.0002506648735500753
3933.11,-0.0002359061009195384
3934.01,-0.00022692366639925592
3934.91,-0.00022533616271899125
3935.81,-0.00023443526996357866
3936.71,-0.0002498786394575739
3937.61,-0.00027156768753652734
3938.51,-0.00029158109409232054
3939.42,-0.0003118781278125126
3940.32,-0.00032891959954473867
3941.22,-0.0003379950906803762
3942.12,-0.00034758692919859376
3943.02,-0.00035183407962522057
3943.92,-0.000356256787620141
3944.82,-0.0003594962629252718
3945.72,-0.0003638080965778583
3946.62,-0.00036633480970294803
3947.52,-0.00036834350830166837
3948.42,-0.00037099262788887805
3949.32,-0.0003709264688657703
3950.22,-0.00037257702858366914
3951.12,-0.0003742892430547958
3952.02,-0.00037377856188401513
3952.92,-0.000374992571711729
3953.82,-0.00037241445059709913
3954.72,-0.0003717570680960521
3955.62,-0.0003706045218327056
3956.52,-0.00036598515405052043
3957.42,-0.00036046504260337013
3958.32,-0.0003550154652006208
3959.22,-0.00034849517843182665
3960.12,-0.00034007453259407084
3961.02,-0.0003290176951978038
3961.92,-0.0003174337822113319
3962.82,-0.0003024726919443298
3963.72,-0.00028604408732155586
3964.62,-0.0002661402077961623
3965.52,-0.000246316361314438
3966.42,-0.00022352661815997312
3967.32,-0.00020155840410837747
3968.22,-0.00018178724025168458
3969.12,-0.0001671069672275208
3970.02,-0.00016041955127407383
3970.92,-0.0001623200110631545
3971.82,-0.00017226948140742883
3972.72,-0.00019075935655309465
3973.62,-0.00021369455331100924
3974.52,-0.0002382950789220024
3975.42,-0.00026509574159693693
3976.32,-0.00029070449465782704
3977.22,-0.00031350845372460844
3978.13,-0.0003362247229814614
3979.03,-0.00035550268492683346
3979.93,-0.00037421047727083633
3980.83,-0.0003906641819319642
3981.73,-0.00040366237334115947
3982.63,-0.00041535878765487866
3983.53,-0.00042667881931817076
3984.43,-0.0004381483899625907
3985.33,-0.00044641057330753817
3986.23,-0.0004580733587179594
3987.13,-0.0004702977526774342
3988.03,-0.0004802415335908096
3988.93,-0.0004899497291613576
3989.83,-0.0004984005955755534
3990.73,-0.0005081264864665538
3991.63,-0.0005175600762464693
3992.53,-0.0005281778035129666
3993.43,-0.000534766672227236
3994.33,-0.0005383936829081598
3995.23,-0.0005428637806363303
3996.13,-0.0005459238723484997
3997.03,-0.0005476926220499372
3997.93,-0.000551200497752328
3998.83,-0.0005595056689387261
3999.73,-0.0005641349230721647
4000.63,-0.0005758776276381385
4001.53,-0.0005839649202949846
4002.43,-0.0005895621299637624
4003.33,-0.000596327329551461
4004.23,-0.0005985853858222703
4005.13,-0.0005991805120202815
4006.03,-0.0005996331747595983
4006.93,-0.0006063980956925403
4007.83,-0.0006134643945412618
4008.73,-0.0006229996959069094
4009.63,-0.0006324497838511174
4010.53,-0.0006402095278720413
4011.43,-0.0006482078671084559
4012.33,-0.0006557993965258455
4013.23,-0.000665371513854988
4014.13,-0.0006669326262534774
4015.03,-0.0006721031097753771
4015.93,-0.0006769558036770017
4016.84,-0.0006829854561565105
4017.74,-0.0006897510288092753
4018.64,-0.0006934103521662711
4019.54,-0.0006998265908194412
4020.44,-0.0007073330586543382
4021.34,-0.0007142481810737856
4022.24,-0.000717685084981848
4023.14,-0.0007235959433246288
4024.04,-0.0007267927603938769
4024.94,-0.0007295018077160149
4025.84,-0.0007342760529712761
4026.74,-0.0007400159245177664
4027.64,-0.0007440833250580601
4028.54,-0.0007483896857448955
4029.44,-0.0007464556302931779
4030.34,-0.0007437610718032287
4031.24,-0.0007437927177123409
4032.14,-0.0007424253770085575
4033.04,-0.0007416721575156166
4033.94,-0.0007539003000183185
4034.84,-0.0007585966642726703
4035.74,-0.0007694098474926843
4036.64,-0.0007871369336781516
4037.54,-0.0008037067476361612
4038.44,-0.0008139682873973158
4039.34,-0.000824335480134374
4040.24,-0.0008268692477868653
4041.14,-0.0008288064094256975
4042.04,-0.0008315764767789573
4042.94,-0.0008287505810640336
4043.84,-0.0008238519179855877
4044.74,-0.0008183442347103289
4045.64,-0.0008194102390877909
4046.54,-0.0008213951969553121
4047.44,-0.000828293968065988
4048.34,-0.0008376062881827852
4049.24,-0.0008586410279423648
4050.14,-0.0008662606064624651
4051.04,-0.00088014662326069
4051.94,-0.0008836194016659525
4052.84,-0.0008861612363887529
4053.74,-0.0008852314502866613
4054.65,-0.0008881476306054247
4055.55,-0.0008889280369841828
4056.45,-0.0008903933131084284
4057.35,-0.000892707528448302
4058.25,-0.0008976641918892112
4059.15,-0.0009088933377111528
4060.05,-0.0009110457339776229
4060.95,-0.0009225633375270884
4061.85,-0.0009240288143171766
4062.75,-0.0009281362414601916
4063.65,-0.0009228969398999894
4064.55,-0.0009264649985708071
4065.45,-0.0009316409475277121
4066.35,-0.0009360476382080204
4067.25,-0.0009421758966268089
4068.15,-0.0009563299799784321
4069.05,-0.0009634669515093148
4069.95,-0.0009725205418209598
4070.85,-0.0009768813825585955
4071.75,-0.0009799245099848966
4072.65,-0.0009796007268473334
4073.55,-0.0009790637331538727
4074.45,-0.0009751068367515673
4075.35,-0.0009714002738143005
4076.25,-0.0009644434381355223
4077.15,-0.000964674395035703
4078.05,-0.0009623680332173089
4078.95,-0.0009655588441904974
4079.85,-0.0009718694165915516
4080.75,-0.0009802889670074018
4081.65,-0.000989371963516988
4082.55,-0.0010005849667637805
4083.45,-0.0010029479448530932
4084.35,-0.0010022629666407918
4085.25,-0.0010011099479094762
4086.15,-0.0010007870174350737
4087.05,-0.0010034750253086091
4087.95,-0.0010023709615913717
4088.85,-0.001008171797449674
4089.75,-0.001007529907260196
4090.65,-0.000999922832870225
4091.55,-0.0009898302294177722
4092.45,-0.0009802409800798576
4093.36,-0.0009594903130989946
4094.26,-0.0009373355864919305
4095.16,-0.000912024987511991
4096.06,-0.000881276078986753
4096.96,-0.0008493446854262941
4097.86,-0.0008109423611178809
4098.76,-0.0007723740715629392
4099.66,-0.0007289215751612645
4100.56,-0.0006930221485726738
4101.46,-0.0006628430420004167
4102.36,-0.0006474104761795656
4103.26,-0.0006558452934293579
4104.16,-0.00067721369230891
4105.06,-0.0007161195833625153
4105.96,-0.0007721173880591735
4106.86,-0.0008186187644688226
4107.76,-0.0008680165733319297
4108.66,-0.0009165256375637759
4109.56,-0.0009596350623916616
4110.46,-0.0009973922019517365
4111.36,-0.0010297903441210006
4112.26,-0.001072576996015323
4113.16,-0.0011069902889958817
4114.06,-0.0011407471683550464
4114.96,-0.00117704818606504
4115.86,-0.0012024447513272482
4116.76,-0.0012307681177091447
4117.66,-0.0012551414366706636
4118.56,-0.0012725843013263237
4119.46,-0.001291194551985349
4120.36,-0.0013010956678282954
4121.26,-0.001315453061681616
4122.16,-0.0013371527298272627
4123.06,-0.001356860623242848
4123.96,-0.001379185605236745
4124.86,-0.0013961354252715243
4125.76,-0.0014105257581058987
4126.66,-0.00143162071065884
4127.56,-0.001443505075155201
4128.46,-0.0014538675044185186
4129.36,-0.0014502537978740805
4130.26,-0.0014655183368669155
4131.17,-0.0014780602904831588
4132.06,-0.0014909476045017827
4132.97,-0.0015008854143550151
4133.87,-0.0015194350932967657
4134.77,-0.001542583946955621
4135.67,-0.0015728527436953664
4136.57,-0.0016023127508661512
4137.47,-0.001630029552202365
4138.37,-0.0016583652535131811
4139.27,-0.0016829841000196143
4140.17,-0.0017041586460237919
4141.07,-0.0017101674100724346
4141.97,-0.0017092652808902323
4142.87,-0.0017084895430253032
4143.77,-0.001711466426152041
4144.67,-0.0017189508711311164
4145.57,-0.0017367472729473605
4146.47,-0.0017578282698906466
4147.37,-0.001774496032813295
4148.27,-0.0017887975216058795
4149.17,-0.0018167598190936569
4150.07,-0.0018366436352276543
4150.97,-0.0018492833938072973
4151.87,-0.0018484240856221008
4152.77,-0.00186164462164355
4153.67,-0.001872246230736563
4154.57,-0.0018872047683183106
4155.47,-0.0018871411615602892
4156.37,-0.0018989730685349767
4157.27,-0.0019186694917935827
4158.17,-0.0019473253019123274
4159.07,-0.0019711152194932776
4159.97,-0.002004481558389983
4160.87,-0.002019924455446858
4161.77,-0.002051487176502707
4162.67,-0.0020756395434777535
4163.57,-0.002087234296040082
4164.47,-0.0021081348112982966
4165.37,-0.002128631825952731
4166.27,-0.002133448424597993
4167.17,-0.002138862441085471
4168.07,-0.0021536802600428933
4168.98,-0.00215811567395962
4169.88,-0.0021636137171586883
4170.78,-0.002165006124179188
4171.68,-0.0021713589332841713
4172.58,-0.0021536775359781352
4173.48,-0.0021549792528341993
4174.38,-0.0021556175947636583
4175.28,-0.002160687567246311
4176.18,-0.0021897261545706817
4177.08,-0.002213818303423977
4177.98,-0.0022405419402050054
4178.88,-0.00226727026890867
4179.78,-0.0022825734896511378
4180.68,-0.002319919192930282
4181.58,-0.002347347182552688
4182.48,-0.0023647216620620876
4183.38,-0.0023965171934837793
4184.28,-0.0024257708028187683
4185.18,-0.002451892976097978
4186.08,-0.002477029066002076
4186.98,-0.0024856801809444357
4187.88,-0.0025070279849270165
4188.78,-0.002516983582387167
4189.68,-0.0025602869411703423
4190.58,-0.002580467102264248
4191.48,-0.0026034952369850322
4192.38,-0.0026426381982474875
4193.28,-0.002676626425741837
4194.18,-0.0026936237945496258
4195.08,-0.0027101756724126195
4195.98,-0.0027065214034112735
4196.88,-0.002711043943120932
4197.78,-0.0027084520862221146
4198.68,-0.002709220157460467
4199.58,-0.0027112841388015957
4200.48,-0.002739194219092306
4201.38,-0.002754199426228413
4202.28,-0.0027917682996271035
4203.18,-0.002811324717481579
4204.08,-0.002841344383139065
4204.98,-0.002889084946932678
4205.88,-0.0029278558072164244
4206.79,-0.0029579515730635965
4207.69,-0.003000797235857237
4208.59,-0.003043011328756355
4209.49,-0.0030904349176257236
4210.39,-0.0031072009588509353
4211.29,-0.003158230198013006
4212.19,-0.00316626483573914
4213.09,-0.0031803092882825416
4213.99,-0.003186399093961393
4214.89,-0.003210603232958426
4215.79,-0.003211438616600563
4216.69,-0.0032257326579370753
4217.59,-0.00327064279915573
4218.49,-0.003295752942882351
4219.39,-0.003350592239094173
4220.29,-0.003389622405796439
4221.19,-0.0034295397563740147
4222.09,-0.003441873195395743
4222.99,-0.0034408080926900523
4223.89,-0.0034276434583150107
4224.79,-0.0033845570144716178
4225.69,-0.0033669791235780063
4226.59,-0.0033606344884702607
4227.49,-0.003361509645862193
4228.39,-0.0034072540605277284
4229.29,-0.0034699579369161966
4230.19,-0.003550985207995005
4231.09,-0.00362459444559723
4231.99,-0.0036825815529916888
4232.89,-0.0037332572293842987
4233.79,-0.0037624281380822674
4234.69,-0.0037739745046230385
4235.59,-0.0037863177776397993
4236.49,-0.003804652687221039
4237.39,-0.0038321610042064466
4238.29,-0.003867036708019243
4239.19,-0.003910833666470911
4240.09,-0.0039832876844925385
4240.99,-0.004040192500219614
4241.89,-0.004068141258165107
4242.79,-0.00411863904046033
4243.69,-0.004168321056671293
4244.59,-0.004208329590580893
4245.5,-0.004237174752134961
4246.4,-0.004247518354888998
4247.3,-0.00424520485083002
4248.2,-0.004255826500748438
4249.1,-0.004256210027304436
4250.0,-0.004298637248088242
4250.9,-0.004334259806423944
4251.8,-0.004371965481032438
4252.7,-0.0044304916222757985
4253.6,-0.004494666068370233
4254.5,-0.00452976701256375
4255.4,-0.004584173092370455
4256.3,-0.00463581259525639
4257.2,-0.004683791247782504
4258.1,-0.0046962196610200475
4259.0,-0.004730905496251065
4259.9,-0.0047462812781738145
4260.8,-0.004767304823550389
4261.7,-0.004836382525532106
4262.6,-0.004890085320286387
4263.5,-0.00496948852940833
4264.4,-0.0050530260855190514
4265.3,-0.00513089638154235
4266.2,-0.005180967127667731
4267.1,-0.005195322306246226
4268.0,-0.005250468259691384
4268.9,-0.005229691710150427
4269.8,-0.0052415294411676935
4270.7,-0.005186897783334604
4271.6,-0.005178208976556635
4272.5,-0.00517893341820246
4273.4,-0.005178846720849824
4274.3,-0.005232486734084087
4275.2,-0.0053168102599259835
4276.1,-0.005398870344687022
4277.0,-0.005528708209370014
4277.9,-0.005591018500508589
4278.8,-0.0056641310979790565
4279.7,-0.005743255981920048
4280.6,-0.005797576358902981
4281.5,-0.005820463573099451
4282.4,-0.0058780257030796165
