wave,flux
3700.85,-0.006815510408674701
3701.75,-0.006818981206900143
3702.65,-0.006687241450728177
3703.55,-0.006457048442781798
3704.45,-0.006183158059715599
3705.35,-0.005937437370107357
3706.25,-0.005783175719628373
3707.15,-0.005733634577058596
3708.05,-0.005850778623101002
3708.96,-0.006019370300814413
3709.86,-0.006293241326200516
3710.76,-0.006598865754149306
3711.66,-0.0070142487086171
3712.56,-0.007434751551130824
3713.46,-0.00791206563023388
3714.36,-0.008307871963742027
3715.26,-0.008587368591809148
3716.16,-0.008757347651452904
3717.06,-0.008713281031372458
3717.96,-0.008463243844078027
3718.86,-0.008122737852233055
3719.76,-0.007610851070346514
3720.66,-0.007196604431479702
3721.56,-0.006900519305831427
3722.46,-0.0069218741778996114
3723.36,-0.007214912215670406
3724.26,-0.007738541875683845
3725.16,-0.008342611561065022
3726.06,-0.008886235754500565
3726.96,-0.00926421259983786
3727.86,-0.009490747155643471
3728.76,-0.00968970096495342
3729.66,-0.009728977653400521
3730.56,-0.009614126511241895
3731.46,-0.009393483250349333
3732.36,-0.008986122179999058
3733.26,-0.008456411887343434
3734.16,-0.007933757627863683
3735.06,-0.007564596723014753
3735.96,-0.007475065326256399
3736.86,-0.0077435134216161635
3737.76,-0.00834495838673717
3738.66,-0.009227797340150569
3739.56,-0.010121543533398659
3740.46,-0.011000295271301083
3741.36,-0.011597034658672538
3742.26,-0.01197141803606909
3743.16,-0.011896398799358675
3744.06,-0.011677121325675173
3744.96,-0.011280482468593554
3745.86,-0.010878732212247244
3746.76,-0.010444068021584483
3747.67,-0.01002985658073241
3748.57,-0.009728728648838801
3749.47,-0.009653088317632622
3750.37,-0.00993219648167334
3751.27,-0.01065669414929133
3752.17,-0.011772535183266125
3753.07,-0.013107160997834426
3753.97,-0.01447887106661234
3754.87,-0.015618426947149587
3755.77,-0.016234033916362925
3756.67,-0.016433285997710094
3757.57,-0.01635395872456787
3758.47,-0.016013530776238863
3759.37,-0.015725473461802673
3760.27,-0.01576559117005666
3761.17,-0.01604590461947817
3762.07,-0.016594717150254457
3762.97,-0.017094755335204544
3763.87,-0.017562442238286263
3764.77,-0.01795349834753088
3765.67,-0.018066054951415826
3766.57,-0.018207076095966283
3767.47,-0.018190320886335622
3768.37,-0.018258727861209693
3769.27,-0.01830418306428815
3770.17,-0.01849586594708623
3771.07,-0.018952731560592045
3771.97,-0.019690493143234723
3772.87,-0.02074008330885505
3773.77,-0.021951185894285238
3774.67,-0.023101902236237058
3775.57,-0.024067824597750254
3776.47,-0.025074352723283174
3777.37,-0.026057099299534075
3778.27,-0.027081167435907244
3779.17,-0.028156240777882542
3780.07,-0.02933330513820291
3780.97,-0.030412870730190222
3781.87,-0.03148665478951498
3782.77,-0.03229848142220635
3783.67,-0.03268613148755791
3784.57,-0.032993700708080574
3785.47,-0.03276304079576816
3786.38,-0.0321805296017882
3787.28,-0.03147820172404096
3788.18,-0.03071754760168538
3789.08,-0.030498937267722084
3789.98,-0.030335159459673352
3790.88,-0.03053905836252745
3791.78,-0.030894797307197335
3792.68,-0.030977120310650492
3793.58,-0.030784066704555652
3794.48,-0.03032748308077822
3795.38,-0.02984323216329075
3796.28,-0.02896707359740813
3797.18,-0.02835257463141984
3798.08,-0.028232086821281078
3798.98,-0.028720245987867127
3799.88,-0.03011243326634428
3800.78,-0.032575721073049006
3801.68,-0.035793868286982965
3802.58,-0.03892222979204788
3803.48,-0.0421498342479558
3804.38,-0.04447517150555891
3805.28,-0.046399901858296656
3806.18,-0.04771229065886661
3807.08,-0.048716985316788294
3807.98,-0.05013298326395895
3808.88,-0.0514056780044668
3809.78,-0.053098093394868415
3810.68,-0.0546589005713761
3811.58,-0.05552206068018274
3812.48,-0.05568938424613754
3813.38,-0.05487446827787827
3814.28,-0.053842765608845336
3815.18,-0.053053455190472845
3816.08,-0.05287503995075837
3816.98,-0.053503020618503344
3817.88,-0.054326404884339555
3818.78,-0.055404534216948215
3819.68,-0.056002537784421144
3820.58,-0.056300904958686025
3821.48,-0.056934564206961275
3822.38,-0.05735341763205187
3823.28,-0.05772944220713947
3824.18,-0.05782748508602712
3825.09,-0.0573819266631359
3825.99,-0.056846189487912015
3826.89,-0.05637970906431547
3827.79,-0.05617697987674405
3828.69,-0.056885545729671104
3829.59,-0.05706594639988332
3830.49,-0.05773577897601294
3831.39,-0.05744390686548567
3832.29,-0.056601452445415174
3833.19,-0.05547505499281762
3834.09,-0.05434188801611647
3834.99,-0.05405106747050303
3835.89,-0.0545467743261468
3836.79,-0.05603102123542624
3837.69,-0.058268683706202015
3838.59,-0.06157532857472626
3839.49,-0.0654081574539835
3840.39,-0.070718834536329
3841.29,-0.07685204297312329
3842.19,-0.08420256278715421
3843.09,-0.0925092113507479
3843.99,-0.100387918888983
3844.89,-0.10797871346407377
3845.79,-0.11375354154229163
3846.69,-0.11974460330603022
3847.59,-0.12446482863765276
3848.49,-0.12863430271636173
3849.39,-0.13262997231944193
3850.29,-0.1368049228399996
3851.19,-0.14008658447734312
3852.09,-0.14457681771607184
3852.99,-0.1483512086270814
3853.89,-0.15276102113748538
3854.79,-0.15529426816389624
3855.69,-0.15737534638250122
3856.59,-0.15808309432177123
3857.49,-0.15868332770899415
3858.39,-0.1601097397525982
3859.29,-0.16179806883114042
3860.19,-0.16573183703355804
3861.09,-0.17337417828539708
3861.99,-0.18321901264521737
3862.9,-0.1955446769365491
3863.8,-0.20649001409328022
3864.7,-0.2180724134965478
3865.6,-0.22708191517168466
3866.5,-0.23434347324067553
3867.4,-0.23993777701619828
3868.3,-0.24445148743966186
3869.2,-0.248891123112731
3870.1,-0.25172321746478915
3871.0,-0.25343762095990835
3871.9,-0.25744612542824374
3872.8,-0.26143604479362836
3873.7,-0.2693317558039114
3874.6,-0.2818825585710341
3875.5,-0.2953220889792407
3876.4,-0.30989413353467093
3877.3,-0.31901369129296564
3878.2,-0.3274053044017058
3879.1,-0.33488701414676686
3880.0,-0.34338471961183115
3880.9,-0.35430997109427176
3881.8,-0.36534923390354307
3882.7,-0.3769277038215953
3883.6,-0.3873267293872304
3884.5,-0.39364417729108775
3885.4,-0.3989587707583436
3886.3,-0.3972054652601495
3887.2,-0.39999449236425505
3888.1,-0.40291320832612815
3889.0,-0.4151993088688382
3889.9,-0.44023277969366953
3890.8,-0.4814200625736802
3891.7,-0.530969419890083
3892.6,-0.5895561831227022
3893.5,-0.6529216018985019
3894.4,-0.7136063595640056
3895.3,-0.7697896547081495
3896.2,-0.833160278561293
3897.1,-0.8998679964904076
3898.0,-0.9747694718501585
3898.9,-1.0522786924944374
3899.8,-1.136499159815801
3900.7,-1.2256772090911914
3901.6,-1.3263873579745868
3902.51,-1.442781140880617
3903.41,-1.562548393719966
3904.31,-1.7013154234846508
3905.21,-1.8596703549558171
3906.11,-2.060693434409216
3907.01,-2.3366283405182147
3907.91,-2.7119747944856254
3908.81,-3.212543519004826
3909.71,-3.876288565531379
3910.61,-4.786204198474306
3911.51,-6.126905098246353
3912.41,-8.198637580515102
3913.31,-12.0023952522612
3914.21,-21.83826768454144
3915.11,-112.19408578133343
3916.01,35.820028118956955
3916.91,15.46585589355303
3917.81,9.812327122546414
3918.71,7.12326525280855
3919.61,5.545665633251021
3920.51,4.553841614204076
3921.41,3.869252414603546
3922.31,3.3547580224877045
3923.21,2.97759158124674
3924.11,2.6815302007080644
3925.01,2.4205683634668014
3925.91,2.166774341472386
3926.81,1.9240396574521608
3927.71,1.6849043687439436
3928.61,1.452174028956971
3929.51,1.2360787163782414
3930.41,1.0337633578772665
3931.31,0.8560167917959873
3932.21,0.713288927982346
3933.11,0.6022779552178187
3934.01,0.5347149630189083
3934.91,0.5115343212923963
3935.81,0.526901275904416
3936.71,0.5752725837564473
3937.61,0.6459174557688828
3938.51,0.7258223206413763
3939.42,0.8079992837368545
3940.32,0.8737381284158595
3941.22,0.9203283879764335
3942.12,0.9506994573290686
3943.02,0.9705979967319077
3943.92,0.9824292634066094
3944.82,0.9939120141726971
3945.72,1.0107820353175998
3946.62,1.0219205241256903
3947.52,1.0324377430858696
3948.42,1.0438920773065599
3949.32,1.051480465509771
3950.22,1.053443743730514
3951.12,1.0512494394938683
3952.02,1.0507218461791743
3952.92,1.0448267974806815
3953.82,1.0368626832811374
3954.72,1.020904279332114
3955.62,1.0061872727250063
3956.52,0.9890700488192715
3957.42,0.9690155813803788
3958.32,0.9428658418901876
3959.22,0.9211854092672327
3960.12,0.8823603495782867
3961.02,0.8387353496395166
3961.92,0.7888454988158697
3962.82,0.7272334523608889
3963.72,0.6667726031752269
3964.62,0.6016867679142657
3965.52,0.5375670639323802
3966.42,0.47190929204415283
3967.32,0.41301963291660204
3968.22,0.3648684664128594
3969.12,0.3342688825152491
3970.02,0.32513051558095063
3970.92,0.34170000498952424
3971.82,0.37702825396602735
3972.72,0.4284400264306017
3973.62,0.48939028565978887
3974.52,0.5505476530213496
3975.42,0.611451989121985
3976.32,0.6671711087245381
3977.22,0.7181213552226193
3978.13,0.7641708503618139
3979.03,0.8015471357422015
3979.93,0.8379468993294308
3980.83,0.8623669254357709
3981.73,0.8808196865839785
3982.63,0.8861524829944573
3983.53,0.8920520170471057
3984.43,0.8927081198406341
3985.33,0.900184969072378
3986.23,0.9069458415534843
3987.13,0.9152214498505797
3988.03,0.9245321124827351
3988.93,0.9364755969649261
3989.83,0.948231566370825
3990.73,0.9528216146882065
3991.63,0.9636516804623599
3992.53,0.9638110614514002
3993.43,0.964084045280271
3994.33,0.9675476571789062
3995.23,0.9587310889312171
3996.13,0.9493063910301586
3997.03,0.9438991238766411
3997.93,0.9357753946207945
3998.83,0.9442041392290703
3999.73,0.9535868991537663
4000.63,0.9715736711164071
4001.53,0.9834111348056863
4002.43,0.9928953195705587
4003.33,0.9874886546685006
4004.23,0.9768339244158089
4005.13,0.9582435627525451
4006.03,0.9505230246700507
4006.93,0.9428306165381073
4007.83,0.9410247656540812
4008.73,0.9547624150854993
4009.63,0.9696286739757074
4010.53,0.9849694432770684
4011.43,1.000566115430695
4012.33,1.009082629387762
4013.23,1.0117530712399347
4014.13,1.0149671545436438
4015.03,1.0201761415835793
4015.93,1.021543404922194
4016.84,1.0255352240480637
4017.74,1.0330443871868926
4018.64,1.0364388106483062
4019.54,1.0409017918910257
4020.44,1.043039626419116
4021.34,1.0460248437740949
4022.24,1.0436944504433279
4023.14,1.0408227631138505
4024.04,1.0414157130091588
4024.94,1.0397651310445803
4025.84,1.0468774866616999
4026.74,1.0452076928829808
4027.64,1.0503109396379189
4028.54,1.0477150625511118
4029.44,1.0344907563939423
4030.34,1.0130546348635983
4031.24,0.9790115531500119
4032.14,0.9571796336382661
4033.04,0.9414292880374256
4033.94,0.9407707031854222
4034.84,0.9541743508237652
4035.74,0.9781918755335978
4036.64,1.007927080905893
4037.54,1.038228366319366
4038.44,1.060316238502759
4039.34,1.0731017114154462
4040.24,1.0820054166912279
4041.14,1.0720577230516266
4042.04,1.0598918065917922
4042.94,1.0397180639915156
4043.84,1.0094908255350612
4044.74,0.9786426300426917
4045.64,0.952374957349074
4046.54,0.9431947337749803
4047.44,0.9500677399273627
4048.34,0.9726949655732359
4049.24,1.0014078242135702
4050.14,1.0266428901850175
4051.04,1.0494785589435867
4051.94,1.053734454346091
4052.84,1.0530333309749962
4053.74,1.0418254848720807
4054.65,1.0238000219086025
4055.55,1.0131429787414774
4056.45,0.9960300239417038
4057.35,0.9867891108666624
4058.25,0.9856019315746665
4059.15,0.9884510840796339
4060.05,0.9923522181047103
4060.95,0.9930567989815355
4061.85,0.987225659744772
4062.75,0.9755210219091173
4063.65,0.9620181182028693
4064.55,0.9516869249318407
4065.45,0.9521719380469228
4066.35,0.956948877836143
4067.25,0.9711911275346108
4068.15,0.9875058317933775
4069.05,0.9989358666965428
4069.95,1.0115448196322465
4070.85,1.014363769758727
4071.75,1.0040949754857202
4072.65,1.0017846689263856
4073.55,0.9997578415039013
4074.45,0.9911275800054407
4075.35,0.9793367444598291
4076.25,0.9671591825718839
4077.15,0.951449835766306
4078.05,0.9392189167479911
4078.95,0.9465986130354817
4079.85,0.9596151973951423
4080.75,0.981439974882218
4081.65,1.0061505112139093
4082.55,1.0224722239181903
4083.45,1.033874554859916
4084.35,1.0379047966722583
4085.25,1.0362742225602442
4086.15,1.049269900346254
4087.05,1.054597467020756
4087.95,1.0697670859053605
4088.85,1.0818499189512767
4089.75,1.0924321363081033
4090.65,1.0989645621128912
4091.55,1.088576001142481
4092.45,1.0785013658514209
4093.36,1.0657680686269988
4094.26,1.0429616144796814
4095.16,1.022601536966072
4096.06,0.9921488626178753
4096.96,0.9656552847822066
4097.86,0.9315754938488623
4098.76,0.8940919197393729
4099.66,0.8589152923494737
4100.56,0.824069150249471
4101.46,0.7915304684095411
4102.36,0.7793437847737182
4103.26,0.7794236105127201
4104.16,0.8008394318127838
4105.06,0.8326945830264292
4105.96,0.8716014915122458
4106.86,0.9089495743123781
4107.76,0.9372487892122829
4108.66,0.9609167647599096
4109.56,0.9743177275084058
4110.46,0.9781520368324107
4111.36,0.9941842094638235
4112.26,0.9988823957568486
4113.16,1.014048476919667
4114.06,1.028093009484057
4114.96,1.0422198694267992
4115.86,1.0506813039833018
4116.76,1.059230147507688
4117.66,1.049552975055097
4118.56,1.0472893259623934
4119.46,1.0386219114505666
4120.36,1.0349594613471824
4121.26,1.025928801550309
4122.16,1.0251098296582006
4123.06,1.0247050441371672
4123.96,1.0291947499134695
4124.86,1.0340938951636183
4125.76,1.0371776333782274
4126.66,1.0326768435703035
4127.56,1.0319175804592533
4128.46,1.0185509392970236
4129.36,1.0102504067072449
4130.26,1.0019052493570881
4131.17,0.9890735371989743
4132.06,0.9771383538188563
4132.97,0.969470642066824
4133.87,0.9707101407607003
4134.77,0.9832536969310264
4135.67,0.9960554145352432
4136.57,1.0174413389554076
4137.47,1.0392493264641134
4138.37,1.0568325805465169
4139.27,1.0662101767766183
4140.17,1.0659330634869737
4141.07,1.0568641443194522
4141.97,1.0382115819348638
4142.87,1.0184840800823598
4143.77,0.9967604308537974
4144.67,0.9855593220883005
4145.57,0.980262204509399
4146.47,0.9910188264887334
4147.37,1.0037326605936918
4148.27,1.011450939702504
4149.17,1.0180542561865933
4150.07,1.0137407627576183
4150.97,1.011298083211242
4151.87,1.004217188951585
4152.77,1.0010864031393085
4153.67,0.9947244357658743
4154.57,0.9837080680994749
4155.47,0.9837655376697276
4156.37,0.9833942733236732
4157.27,0.9890136130889429
4158.17,0.9970235543268047
4159.07,1.0115709294047703
4159.97,1.024137402175864
4160.87,1.0369678184636588
4161.77,1.0524225847853965
4162.67,1.058502662313168
4163.57,1.0637901855589589
4164.47,1.066001157846754
4165.37,1.0627029820294511
4166.27,1.0543354478730194
4167.17,1.0461237152065177
4168.07,1.035614432527874
4168.98,1.0220351882858008
4169.88,1.013113031756087
4170.78,0.9969665715349413
4171.68,0.9814105080753719
4172.58,0.9651716754190983
4173.48,0.9482978339410347
4174.38,0.9368414985942094
4175.28,0.9349052343285299
4176.18,0.9383537634015936
4177.08,0.9456717448405468
4177.98,0.9505953180058134
4178.88,0.9626493919471191
4179.78,0.9727399331257294
4180.68,0.9737905913810133
4181.58,0.9840112423478339
4182.48,0.9924841555660073
4183.38,0.9959745006848744
4184.28,0.9983212956941092
4185.18,0.9973912159827867
4186.08,0.9985294925243552
4186.98,1.001640110117956
4187.88,1.0001081368973908
4188.78,1.0002372357919238
4189.68,1.0063644707479116
4190.58,1.0112755699544629
4191.48,1.020169788728905
4192.38,1.0251666428743793
4193.28,1.0335474128070354
4194.18,1.032999527380199
4195.08,1.0289392182676618
4195.98,1.0137720469461697
4196.88,0.9952593323692823
4197.78,0.976515686696591
4198.68,0.9570834492889855
4199.58,0.9478615218729206
4200.48,0.9447536890914179
4201.38,0.9412933346648267
4202.28,0.9508923566364528
4203.18,0.9596834656632331
4204.08,0.9707096025371638
4204.98,0.9865336660182251
4205.88,1.0025566286131036
4206.79,1.0198582365834727
4207.69,1.03007523956466
4208.59,1.0423128207754446
4209.49,1.0543432500298673
4210.39,1.0559330394203057
4211.29,1.0633286895202452
4212.19,1.0584125985702117
4213.09,1.055347459818299
4213.99,1.0431301829437856
4214.89,1.0329773220122311
4215.79,1.0226124849132852
4216.69,1.0286766091315809
4217.59,1.0286793698100793
4218.49,1.0454051630352714
4219.39,1.059765186474016
4220.29,1.0706556792775084
4221.19,1.0743780189535082
4222.09,1.0621722958556898
4222.99,1.0418786927298935
4223.89,1.004299313212886
4224.79,0.9650306182567229
4225.69,0.9199190456359555
4226.59,0.8887499835625003
4227.49,0.8786644195098837
4228.39,0.8873652132297746
4229.29,0.9190445011652618
4230.19,0.9504971723601484
4231.09,0.9875160086816505
4231.99,1.014741406677761
4232.89,1.02779185717786
4233.79,1.0330575440418854
4234.69,1.0269005891881893
4235.59,1.0176878340958841
4236.49,1.006115427450005
4237.39,1.0046009405021574
4238.29,0.9997891827677443
4239.19,1.0072811204676047
4240.09,1.0204603641088976
4240.99,1.032610936849744
4241.89,1.0491272766907747
4242.79,1.061457868585624
4243.69,1.0736495785927223
4244.59,1.0836033692214282
4245.5,1.0847389507400251
4246.4,1.0766840336298256
4247.3,1.0630534547135178
4248.2,1.048958823707605
4249.1,1.0312372617490517
4250.0,1.013773289039164
4250.9,1.0033027119858735
4251.8,1.0059139222973574
4252.7,1.0106011744092513
4253.6,1.0147571160997528
4254.5,1.0189123468507095
4255.4,1.0239858545115301
4256.3,1.0316207980533256
4257.2,1.0340104877127172
4258.1,1.0313939336536466
4259.0,1.025895105464965
4259.9,1.0175380994577923
4260.8,1.0126580723311007
4261.7,1.018175324817072
4262.6,1.0326456906716999
4263.5,1.047818162742623
4264.4,1.0783631604711663
4265.3,1.097218370272715
4266.2,1.1014747946367882
4267.1,1.1001088270703427
4268.0,1.087983224069319
4268.9,1.0631556626595091
4269.8,1.034270919472742
4270.7,1.0009623101908567
4271.6,0.9640058062920313
4272.5,0.9455994555653549
4273.4,0.9347466860373393
4274.3,0.9363930684927539
4275.2,0.9500347168943233
4276.1,0.9741465579051474
4277.0,0.9975048414237769
4277.9,1.022799479548146
4278.8,1.0402338345181603
4279.7,1.0564997710191062
4280.6,1.0592729821097995
4281.5,1.0537699557946796
4282.4,1.049494456215185
4283.31,1.0435364585448337
4284.21,1.0358477326299267
4285.11,1.0246579501198723
4286.01,1.0192327970025723
4286.91,0.9995343377231016
4287.81,0.9830302875728257
4288.71,0.9644069947570385
4289.61,0.9476439893931327
4290.51,0.937131238736242
4291.41,0.934857506779011
4292.31,0.9460356501395283
4293.21,0.9582460108380455
4294.11,0.9652318050007166
4295.01,0.9712133517239067
4295.91,0.9639703093390164
4296.81,0.9535909282743862
4297.71,0.9277155893887493
4298.61,0.9009882139820946
4299.51,0.8680546821694829
4300.41,0.8370350181239135
4301.31,0.8145434192593872
4302.21,0.8043307844706578
4303.11,0.8013791596597534
4304.01,0.801348686140768
4304.91,0.802786546407971
4305.81,0.802423683969319
4306.71,0.7975748381950218
4307.61,0.7919205352412032
4308.51,0.7861154284997997
4309.41,0.7887427556236218
4310.31,0.8002788905467416
4311.21,0.8175034704784753
4312.11,0.8487931744441343
4313.01,0.886188950136823
4313.91,0.9242026192472684
4314.81,0.971303866696975
4315.71,1.0143808000683432
4316.61,1.0631811198827419
4317.51,1.1059998888640779
4318.41,1.135301132734312
4319.31,1.1469768371469204
4320.21,1.1386158887985371
4321.12,1.126558624649333
4322.02,1.099702631384491
4322.92,1.0602548037144364
4323.82,1.0266204685963012
4324.72,0.9882227691937934
4325.62,0.9651236365752577
4326.52,0.9543758981171307
4327.42,0.961861723261594
4328.32,0.9878170819069445
4329.22,1.0221945506959806
4330.12,1.0467233856126144
4331.02,1.0730075031959205
4331.92,1.0905607290068686
4332.82,1.0974861933364275
4333.72,1.0946366222452257
4334.62,1.0837727873015095
4335.52,1.0592065376780693
4336.42,1.0289785058288234
4337.32,0.9825394988258794
4338.22,0.931525334604865
4339.12,0.8830189189117269
4340.02,0.8432990296600988
4340.92,0.8141090366877364
4341.82,0.8142709472362826
4342.72,0.8295934958009357
4343.62,0.8597363359308203
4344.52,0.9020823760478391
4345.42,0.9391161916876387
4346.32,0.9796811812192017
4347.22,1.010968208542371
4348.12,1.0288867394942953
4349.02,1.041710944737468
4349.92,1.0499931388401247
4350.82,1.0407996737726113
4351.72,1.0255802692428033
4352.62,1.0137851352768077
4353.52,1.0122051682655242
4354.42,1.0151271483783366
4355.32,1.0216935254586093
