wave,flux
3700.85,-5.31350431312639e-07
3701.75,-5.268131164412512e-07
3702.65,-5.174810034981628e-07
3703.55,-5.018160179454889e-07
3704.45,-4.850845265559346e-07
3705.35,-4.7468520485062277e-07
3706.25,-4.760739596234098e-07
3707.15,-4.755769115665918e-07
3708.05,-4.821904821729835e-07
3708.96,-4.888696971448444e-07
3709.86,-4.890607037825154e-07
3710.76,-4.896129870822109e-07
3711.66,-4.930147757445206e-07
3712.56,-4.995926120805841e-07
3713.46,-5.133907793388065e-07
3714.36,-5.325281291084115e-07
3715.26,-5.501184275286222e-07
3716.16,-5.636098015102678e-07
3717.06,-5.726696076590688e-07
3717.96,-5.658428477505073e-07
3718.86,-5.456764082042607e-07
3719.76,-5.190227785619757e-07
3720.66,-4.891984438771551e-07
3721.56,-4.6667727078234286e-07
3722.46,-4.5776827803298304e-07
3723.36,-4.670928258133307e-07
3724.26,-4.882951301444066e-07
3725.16,-5.186974299529238e-07
3726.06,-5.47832896010495e-07
3726.96,-5.681373268188011e-07
3727.86,-5.84887672755733e-07
3728.76,-5.927586609055325e-07
3729.66,-5.882047488222149e-07
3730.56,-5.748880736557782e-07
3731.46,-5.537059709428187e-07
3732.36,-5.193408116851838e-07
3733.26,-4.80947581434409e-07
3734.16,-4.5410039148356556e-07
3735.06,-4.3533204059805816e-07
3735.96,-4.347779164546758e-07
3736.86,-4.521968183064553e-07
3737.76,-4.848557031443468e-07
3738.66,-5.266219835446803e-07
3739.56,-5.70684060063543e-07
3740.46,-6.039678158961036e-07
3741.36,-6.304732871568083e-07
3742.26,-6.445847998753947e-07
3743.16,-6.382616580263645e-07
3744.06,-6.301335628295711e-07
3744.96,-6.051987885815749e-07
3745.86,-5.804425752775542e-07
3746.76,-5.446641697661736e-07
3747.67,-5.098983270420912e-07
3748.57,-4.794512944647154e-07
3749.47,-4.542175189804797e-07
3750.37,-4.4410504524744977e-07
3751.27,-4.5487935102151165e-07
3752.17,-4.82214822773159e-07
3753.07,-5.227378743690342e-07
3753.97,-5.673595744403219e-07
3754.87,-6.083103006974323e-07
3755.77,-6.4180062618025e-07
3756.67,-6.67804841888498e-07
3757.57,-6.788702277121173e-07
3758.47,-6.795985944875692e-07
3759.37,-6.838337792430642e-07
3760.27,-6.878375491613997e-07
3761.17,-6.93005022969087e-07
3762.07,-6.996775181387288e-07
3762.97,-7.0298737776805e-07
3763.87,-7.011358953978898e-07
3764.77,-6.899466887360672e-07
3765.67,-6.720018960472234e-07
3766.57,-6.466967210424697e-07
3767.47,-6.154130660628892e-07
3768.37,-5.793934822620253e-07
3769.27,-5.496130621912628e-07
3770.17,-5.254604225778831e-07
3771.07,-5.137306777631285e-07
3771.97,-5.210548945031825e-07
3772.87,-5.395837906104148e-07
3773.77,-5.725353328643894e-07
3774.67,-6.098713534176974e-07
3775.57,-6.48175027467421e-07
3776.47,-6.875477389148939e-07
3777.37,-7.25830941598853e-07
3778.27,-7.643982262452329e-07
3779.17,-7.976849798922359e-07
3780.07,-8.260673307388277e-07
3780.97,-8.50614285963896e-07
3781.87,-8.700769629951315e-07
3782.77,-8.864663700393124e-07
3783.67,-8.910039608658784e-07
3784.57,-8.922283372784294e-07
3785.47,-8.799497547469694e-07
3786.38,-8.644220244653782e-07
3787.28,-8.491946566397596e-07
3788.18,-8.294472390620874e-07
3789.08,-8.088054325328527e-07
3789.98,-7.890140217643685e-07
3790.88,-7.69876034472275e-07
3791.78,-7.446366569893098e-07
3792.68,-7.151289210386994e-07
3793.58,-6.810371156024687e-07
3794.48,-6.415418346014601e-07
3795.38,-5.944119525009259e-07
3796.28,-5.529618982778087e-07
3797.18,-5.192779358745861e-07
3798.08,-4.99462373726434e-07
3798.98,-4.963267045270253e-07
3799.88,-5.135955817872121e-07
3800.78,-5.477599761395508e-07
3801.68,-5.986807640648385e-07
3802.58,-6.536266602507662e-07
3803.48,-7.049391547389952e-07
3804.38,-7.496041893615184e-07
3805.28,-7.889226330717618e-07
3806.18,-8.143099869879806e-07
3807.08,-8.467996485153699e-07
3807.98,-8.727711907258405e-07
3808.88,-8.986485400949257e-07
3809.78,-9.205895208687941e-07
3810.68,-9.429906904851039e-07
3811.58,-9.567659724789068e-07
3812.48,-9.590581660387246e-07
3813.38,-9.601710404461036e-07
3814.28,-9.56390944968673e-07
3815.18,-9.573980953212475e-07
3816.08,-9.56960612318361e-07
3816.98,-9.585891308430116e-07
3817.88,-9.63998970403647e-07
3818.78,-9.651191918251462e-07
3819.68,-9.600670865970642e-07
3820.58,-9.473667528619689e-07
3821.48,-9.34219833491025e-07
3822.38,-9.210413133076533e-07
3823.28,-9.085608509050972e-07
3824.18,-8.865528751659157e-07
3825.09,-8.659144882721345e-07
3825.99,-8.327144271440005e-07
3826.89,-8.08862183943132e-07
3827.79,-7.802873749007811e-07
3828.69,-7.574714070222847e-07
3829.59,-7.25615307403748e-07
3830.49,-6.930527826554014e-07
3831.39,-6.521965594666771e-07
3832.29,-6.105587433622064e-07
3833.19,-5.631211209068297e-07
3834.09,-5.276077909754493e-07
3834.99,-4.972340818678136e-07
3835.89,-4.815917712520567e-07
3836.79,-4.8169263759896e-07
3837.69,-4.99254073698913e-07
3838.59,-5.305092617334924e-07
3839.49,-5.733823135805775e-07
3840.39,-6.206822529140404e-07
3841.29,-6.714534335597259e-07
3842.19,-7.272569392865461e-07
3843.09,-7.819067760428287e-07
3843.99,-8.264038416240591e-07
3844.89,-8.674127605573933e-07
3845.79,-9.048674734733723e-07
3846.69,-9.350480536786404e-07
3847.59,-9.665355523112107e-07
3848.49,-9.88401887092447e-07
3849.39,-1.0120977060138398e-06
3850.29,-1.02769680312853e-06
3851.19,-1.0452229281736506e-06
3852.09,-1.0613281139197667e-06
3852.99,-1.0825620486772905e-06
3853.89,-1.0937026983697445e-06
3854.79,-1.0958547372638213e-06
3855.69,-1.1058931715585896e-06
3856.59,-1.108606443488445e-06
3857.49,-1.1004813537853712e-06
3858.39,-1.1042833044272715e-06
3859.29,-1.1048705112620757e-06
3860.19,-1.1112542140787548e-06
3861.09,-1.1239475690590573e-06
3861.99,-1.1365599271568706e-06
3862.9,-1.148557206745942e-06
3863.8,-1.1556768663638546e-06
3864.7,-1.1680925242564723e-06
3865.6,-1.1682004456131616e-06
3866.5,-1.1726078538286706e-06
3867.4,-1.1708419815326573e-06
3868.3,-1.1664179507084444e-06
3869.2,-1.1544020183686887e-06
3870.1,-1.1510535079883992e-06
3871.0,-1.140264149679929e-06
3871.9,-1.1232292083546984e-06
3872.8,-1.1075982093390761e-06
3873.7,-1.0958807291332373e-06
3874.6,-1.0874220009828063e-06
3875.5,-1.0711317648731777e-06
3876.4,-1.0622304512021237e-06
3877.3,-1.0327284195818019e-06
3878.2,-1.0127291343748283e-06
3879.1,-9.825921003521324e-07
3880.0,-9.598464682773575e-07
3880.9,-9.311466161338659e-07
3881.8,-9.048529015481743e-07
3882.7,-8.766938275730339e-07
3883.6,-8.44463887556815e-07
3884.5,-8.046487861320516e-07
3885.4,-7.608388323052744e-07
3886.3,-7.063430193350245e-07
3887.2,-6.625377684700021e-07
3888.1,-6.217475240084871e-07
3889.0,-5.908542017991247e-07
3889.9,-5.85129673900678e-07
3890.8,-6.01589808609362e-07
3891.7,-6.329050971875263e-07
3892.6,-6.778730947590284e-07
3893.5,-7.303158648759356e-07
3894.4,-7.771060100244145e-07
3895.3,-8.247507026754008e-07
3896.2,-8.621888356740622e-07
3897.1,-9.032733603763708e-07
3898.0,-9.32904486624021e-07
3898.9,-9.684731049521533e-07
3899.8,-9.961764864287451e-07
3900.7,-1.021983904852946e-06
3901.6,-1.0457153011024805e-06
3902.51,-1.0734468457633778e-06
3903.41,-1.0900596068230212e-06
3904.31,-1.1081592435621778e-06
3905.21,-1.1258366139779667e-06
3906.11,-1.1404765103322337e-06
3907.01,-1.1590460317734601e-06
3907.91,-1.1879050568371858e-06
3908.81,-1.2151994122472786e-06
3909.71,-1.2387058094875188e-06
3910.61,-1.2639612300307186e-06
3911.51,-1.2813198300029873e-06
3912.41,-1.290811859680714e-06
3913.31,-1.2919986744412408e-06
3914.21,-1.2980007934372326e-06
3915.11,-1.2992548694292027e-06
3916.01,-1.2968619776714155e-06
3916.91,-1.2914571459706662e-06
3917.81,-1.2881024950002304e-06
3918.71,-1.2927111432288283e-06
3919.61,-1.2953189817149014e-06
3920.51,-1.2950900450949133e-06
3921.41,-1.2971705987864757e-06
3922.31,-1.2991359733941311e-06
3923.21,-1.3046692422387875e-06
3924.11,-1.3075375654737038e-06
3925.01,-1.3063616387941602e-06
3925.91,-1.2904541472385962e-06
3926.81,-1.2792827767082565e-06
3927.71,-1.2533206719099263e-06
3928.61,-1.2128737939245921e-06
3929.51,-1.164839825080816e-06
3930.41,-1.0999543818756924e-06
3931.31,-1.033050489058023e-06
3932.21,-9.623173334877226e-07
3933.11,-9.014063469037229e-07
3934.01,-8.630098489585673e-07
3934.91,-8.529415738290611e-07
3935.81,-8.832053094199078e-07
3936.71,-9.369492867265979e-07
3937.61,-1.0134706436714602e-06
3938.51,-1.0830199549950532e-06
3939.42,-1.152871868768518e-06
3940.32,-1.210112206901155e-06
3941.22,-1.2376103309928306e-06
3942.12,-1.266696265754391e-06
3943.02,-1.2760871886950636e-06
3943.92,-1.2859878039784738e-06
3944.82,-1.2915083048204472e-06
3945.72,-1.300774943473135e-06
3946.62,-1.3035653996749032e-06
3947.52,-1.3044587233327508e-06
3948.42,-1.3075645318168688e-06
3949.32,-1.301080147060963e-06
3950.22,-1.3006142577488246e-06
3951.12,-1.3003307305424113e-06
3952.02,-1.292327968477019e-06
3952.92,-1.290300064434775e-06
3953.82,-1.275269870219365e-06
3954.72,-1.2668936125806712e-06
3955.62,-1.256882779634178e-06
3956.52,-1.235231872793801e-06
3957.42,-1.2107289763058015e-06
3958.32,-1.1866635888158145e-06
3959.22,-1.1592349753388771e-06
3960.12,-1.1257474196159008e-06
3961.02,-1.0838671185490091e-06
3961.92,-1.040633126511123e-06
3962.82,-9.86770527989901e-07
3963.72,-9.286375541378948e-07
3964.62,-8.598145644171886e-07
3965.52,-7.918927541694434e-07
3966.42,-7.151199926178343e-07
3967.32,-6.416894553021215e-07
3968.22,-5.759164176495829e-07
3969.12,-5.26817796908166e-07
3970.02,-5.032580587557089e-07
3970.92,-5.067232167147896e-07
3971.82,-5.351433311516067e-07
3972.72,-5.896691148026135e-07
3973.62,-6.573164042701614e-07
3974.52,-7.293773911365124e-07
3975.42,-8.074095755108266e-07
3976.32,-8.810377606430663e-07
3977.22,-9.454561030209618e-07
3978.13,-1.0088924282549426e-06
3979.03,-1.0614579985759073e-06
3979.93,-1.1117785090205462e-06
3980.83,-1.154904350159586e-06
3981.73,-1.1874038843861117e-06
3982.63,-1.215735367073431e-06
3983.53,-1.2426529576538918e-06
3984.43,-1.2696990291217081e-06
3985.33,-1.287189528534018e-06
3986.23,-1.314223345248079e-06
3987.13,-1.3425510825643614e-06
3988.03,-1.3640775300821245e-06
3988.93,-1.3846816180326394e-06
3989.83,-1.4015018166451982e-06
3990.73,-1.421678149895967e-06
3991.63,-1.440795013962245e-06
3992.53,-1.4629556956057007e-06
3993.43,-1.473745802715806e-06
3994.33,-1.4762606359143498e-06
3995.23,-1.481004567781311e-06
3996.13,-1.4818275675891117e-06
3997.03,-1.4791088290277898e-06
3997.93,-1.481044442037566e-06
3998.83,-1.4957390180656137e-06
3999.73,-1.5004611181257067e-06
4000.63,-1.523912308366118e-06
4001.53,-1.5374539447004513e-06
4002.43,-1.5442872738325532e-06
4003.33,-1.5540462880793755e-06
4004.23,-1.5519711053175662e-06
4005.13,-1.545578409513792e-06
4006.03,-1.538836244356303e-06
4006.93,-1.5482301516290406e-06
4007.83,-1.5582442469159494e-06
4008.73,-1.5743454001273678e-06
4009.63,-1.5900170374115366e-06
4010.53,-1.6012492246465026e-06
4011.43,-1.6129083368574646e-06
4012.33,-1.6233886544230675e-06
4013.23,-1.6385862709917888e-06
4014.13,-1.633947846067553e-06
4015.03,-1.638101278065386e-06
4015.93,-1.6413880665793307e-06
4016.84,-1.6473312082196969e-06
4017.74,-1.6550186130303444e-06
4018.64,-1.655157702347262e-06
4019.54,-1.661787559770062e-06
4020.44,-1.6708693472920987e-06
4021.34,-1.6784121412742142e-06
4022.24,-1.6776902480853945e-06
4023.14,-1.6826733770590125e-06
4024.04,-1.6812704453453327e-06
4024.94,-1.678703841584918e-06
4025.84,-1.680835595693177e-06
4026.74,-1.6850877693499885e-06
4027.64,-1.685450666785191e-06
4028.54,-1.6862916773921191e-06
4029.44,-1.6730801374309352e-06
4030.34,-1.658255466804877e-06
4031.24,-1.6495768973517228e-06
4032.14,-1.637847630819616e-06
4033.04,-1.6275341096654954e-06
4033.94,-1.6456097743847978e-06
4034.84,-1.6470852118467853e-06
4035.74,-1.6616993480089697e-06
4036.64,-1.6909545564426652e-06
4037.54,-1.717368757966196e-06
4038.44,-1.7300357659884493e-06
4039.34,-1.7427319458352088e-06
4040.24,-1.7387605841028875e-06
4041.14,-1.733523493967266e-06
4042.04,-1.7300148998770134e-06
4042.94,-1.714904092593274e-06
4043.84,-1.6956289056353842e-06
4044.74,-1.6752539838552417e-06
4045.64,-1.6684235263226444e-06
4046.54,-1.6634688274113877e-06
4047.44,-1.6684065728925793e-06
4048.34,-1.6780677804421036e-06
4049.24,-1.710923797480542e-06
4050.14,-1.716778774833436e-06
4051.04,-1.7348615001360305e-06
4051.94,-1.7322728698791089e-06
4052.84,-1.7278353218442213e-06
4053.74,-1.7166518556123449e-06
4054.65,-1.7128419060726366e-06
4055.55,-1.70501802499717e-06
4056.45,-1.6985242356213548e-06
4057.35,-1.6936504147674941e-06
4058.25,-1.6937543252554414e-06
4059.15,-1.7055662487220395e-06
4060.05,-1.7002477941060288e-06
4060.95,-1.7123076828206528e-06
4061.85,-1.7056184996309386e-06
4062.75,-1.7037900461142916e-06
4063.65,-1.6848556501559631e-06
4064.55,-1.6820574903287705e-06
4065.45,-1.6821312756119116e-06
4066.35,-1.6807608886239783e-06
4067.25,-1.6824175705697095e-06
4068.15,-1.6982458164735247e-06
4069.05,-1.701444269579104e-06
4069.95,-1.707909888879505e-06
4070.85,-1.70604467490596e-06
4071.75,-1.7018477735881157e-06
4072.65,-1.6918187466427306e-06
4073.55,-1.6814712857235786e-06
4074.45,-1.6653348003815284e-06
4075.35,-1.6497401433112324e-06
4076.25,-1.6287676741854638e-06
4077.15,-1.6200382738022283e-06
4078.05,-1.607107534048001e-06
4078.95,-1.60338860385327e-06
4079.85,-1.6048015173521857e-06
4080.75,-1.6095999476150013e-06
4081.65,-1.6153658981269272e-06
4082.55,-1.6244629357877595e-06
4083.45,-1.6191078824695695e-06
4084.35,-1.6088578389138633e-06
4085.25,-1.5979139273535333e-06
4086.15,-1.5883488898578795e-06
4087.05,-1.5835816320448284e-06
4087.95,-1.572856186307996e-06
4088.85,-1.5729638062723156e-06
4089.75,-1.5630136423011169e-06
4090.65,-1.5423712697460547e-06
4091.55,-1.5180908028184968e-06
4092.45,-1.4947943706602825e-06
4093.36,-1.454688538152136e-06
4094.26,-1.4129603385220725e-06
4095.16,-1.3669228168786827e-06
4096.06,-1.3132534981593606e-06
4096.96,-1.2583945201428882e-06
4097.86,-1.1945821378881588e-06
4098.76,-1.1312115146287696e-06
4099.66,-1.061411886850634e-06
4100.56,-1.0033077564072242e-06
4101.46,-9.540663191214622e-07
4102.36,-9.264570277322635e-07
4103.26,-9.33085708617999e-07
4104.16,-9.578936800020997e-07
4105.06,-1.007037024833163e-06
4105.96,-1.079464558096246e-06
4106.86,-1.1378074323833586e-06
4107.76,-1.1994273447654908e-06
4108.66,-1.2590594501591425e-06
4109.56,-1.3105700642263732e-06
4110.46,-1.3541583108456307e-06
4111.36,-1.3899476112660971e-06
4112.26,-1.439199640973071e-06
4113.16,-1.4766450601178347e-06
4114.06,-1.5127189030373137e-06
4114.96,-1.551659355224416e-06
4115.86,-1.5757864106057165e-06
4116.76,-1.6033757027161472e-06
4117.66,-1.6254563939541282e-06
4118.56,-1.6382853931562845e-06
4119.46,-1.6523869747976766e-06
4120.36,-1.6551719562122376e-06
4121.26,-1.6634884024162099e-06
4122.16,-1.6808644160796837e-06
4123.06,-1.6954729271674428e-06
4123.96,-1.7130852893398206e-06
4124.86,-1.723777293907657e-06
4125.76,-1.7311258831222601e-06
4126.66,-1.746490762009596e-06
4127.56,-1.750426950222166e-06
4128.46,-1.7524051351086468e-06
4129.36,-1.7375381833096691e-06
4130.26,-1.745255034010618e-06
4131.17,-1.7494620306599613e-06
4132.06,-1.7541813884859292e-06
4132.97,-1.7550825263281245e-06
4133.87,-1.7660210873616048e-06
4134.77,-1.7820622150954802e-06
4135.67,-1.8060053289630803e-06
4136.57,-1.8286548335762921e-06
4137.47,-1.8489705037409817e-06
4138.37,-1.8696542879627738e-06
4139.27,-1.8858376394480534e-06
4140.17,-1.8979030225431673e-06
4141.07,-1.8929487807034626e-06
4141.97,-1.8803663660098245e-06
4142.87,-1.8679902687708565e-06
4143.77,-1.8597580869302797e-06
4144.67,-1.85640966408027e-06
4145.57,-1.864085181274404e-06
4146.47,-1.8750844134596242e-06
4147.37,-1.8811833747718968e-06
4148.27,-1.8846272392707873e-06
4149.17,-1.9022448916895565e-06
4150.07,-1.9111504665706043e-06
4150.97,-1.912365748749231e-06
4151.87,-1.8996038122603865e-06
4152.77,-1.9012907415763757e-06
4153.67,-1.9002093978915495e-06
4154.57,-1.9034464317746566e-06
4155.47,-1.8914965030517115e-06
4156.37,-1.8914543186597424e-06
4157.27,-1.8991072090636174e-06
4158.17,-1.9153865586713478e-06
4159.07,-1.9266148410045704e-06
4159.97,-1.9469116874628913e-06
4160.87,-1.9495614884957756e-06
4161.77,-1.967544461417223e-06
4162.67,-1.978144116390476e-06
4163.57,-1.9766225010157015e-06
4164.47,-1.9837810539234177e-06
4165.37,-1.990375470354669e-06
4166.27,-1.9822205522527325e-06
4167.17,-1.9746235051329975e-06
4168.07,-1.975652427548306e-06
4168.98,-1.9669678932288686e-06
4169.88,-1.9593975561562435e-06
4170.78,-1.948132370612077e-06
4171.68,-1.941349169932549e-06
4172.58,-1.9132054385949375e-06
4173.48,-1.90208139750716e-06
4174.38,-1.8904229135078578e-06
4175.28,-1.8826805463167149e-06
4176.18,-1.8956930927717064e-06
4177.08,-1.9041883120495168e-06
4177.98,-1.9147268503696116e-06
4178.88,-1.9250365921162383e-06
4179.78,-1.92547781316436e-06
4180.68,-1.9442887247387118e-06
4181.58,-1.954499048525033e-06
4182.48,-1.9561604515364427e-06
4183.38,-1.969551613497287e-06
4184.28,-1.98059193515805e-06
4185.18,-1.9888462776578418e-06
4186.08,-1.99609545139343e-06
4186.98,-1.9899490863841296e-06
4187.88,-1.99387724603207e-06
4188.78,-1.988648987975295e-06
4189.68,-2.009559601952696e-06
4190.58,-2.012060563627842e-06
4191.48,-2.0166286952241163e-06
4192.38,-2.033430087256037e-06
4193.28,-2.0459622566694295e-06
4194.18,-2.0453189456880387e-06
4195.08,-2.0442391580968292e-06
4195.98,-2.0279245260254905e-06
4196.88,-2.0178033090873397e-06
4197.78,-2.0024480576254955e-06
4198.68,-1.989656458491987e-06
4199.58,-1.9778729022218344e-06
4200.48,-1.9848677015215613e-06
4201.38,-1.9823728564933404e-06
4202.28,-1.995934883725996e-06
4203.18,-1.996415121506673e-06
4204.08,-2.004159818090446e-06
4204.98,-2.024105765425476e-06
4205.88,-2.037430287166382e-06
4206.79,-2.0443127373890693e-06
4207.69,-2.0598925104508334e-06
4208.59,-2.074716869944464e-06
4209.49,-2.0927528858665738e-06
4210.39,-2.089808403778119e-06
4211.29,-2.109674158766964e-06
4212.19,-2.1006272216630695e-06
4213.09,-2.0955446736073674e-06
4213.99,-2.085207133976128e-06
4214.89,-2.0866652089062197e-06
4215.79,-2.0729006666349954e-06
4216.69,-2.067833552815127e-06
4217.59,-2.082208722285417e-06
4218.49,-2.083748587011644e-06
4219.39,-2.103814009991684e-06
4220.29,-2.1136240357380618e-06
4221.19,-2.1237258607533967e-06
4222.09,-2.1166020193080473e-06
4222.99,-2.101270840900812e-06
4223.89,-2.0786911561837945e-06
4224.79,-2.0382825925130123e-06
4225.69,-2.013569815196452e-06
4226.59,-1.995752657245417e-06
4227.49,-1.9823229608306576e-06
4228.39,-1.9952375626804598e-06
4229.29,-2.0177147416094133e-06
4230.19,-2.050337169703791e-06
4231.09,-2.0781270492424283e-06
4231.99,-2.096508728246833e-06
4232.89,-2.1103729018815957e-06
4233.79,-2.1118439812449687e-06
4234.69,-2.1033436633981245e-06
4235.59,-2.0952763424250263e-06
4236.49,-2.0904873259399446e-06
4237.39,-2.090642742249105e-06
4238.29,-2.0946583555668466e-06
4239.19,-2.103285985389159e-06
4240.09,-2.1269631914514462e-06
4240.99,-2.1419281553249828e-06
4241.89,-2.1413054098207963e-06
4242.79,-2.1523419059536274e-06
4243.69,-2.162662788194569e-06
4244.59,-2.1677174182104588e-06
4245.5,-2.1666801596265296e-06
4246.4,-2.1563000322213997e-06
4247.3,-2.1395536637750817e-06
4248.2,-2.1293847999940913e-06
4249.1,-2.1141415814490306e-06
4250.0,-2.1197159176301576e-06
4250.9,-2.1217426022079446e-06
4251.8,-2.1246157837254826e-06
4252.7,-2.137354382672921e-06
4253.6,-2.152474333209319e-06
4254.5,-2.1534129922277817e-06
4255.4,-2.1633079632222e-06
4256.3,-2.1716210162499053e-06
4257.2,-2.1779677668033014e-06
4258.1,-2.167669086074278e-06
4259.0,-2.1675763961128237e-06
4259.9,-2.158559618639158e-06
4260.8,-2.1520818910039355e-06
4261.7,-2.167088522616933e-06
4262.6,-2.1748905492538567e-06
4263.5,-2.1937767510543487e-06
4264.4,-2.214046983362403e-06
4265.3,-2.2314022276130575e-06
4266.2,-2.2363487569284666e-06
4267.1,-2.225768554382195e-06
4268.0,-2.2325390852222627e-06
4268.9,-2.2070153023854953e-06
4269.8,-2.195382444113789e-06
4270.7,-2.1561422376858297e-06
4271.6,-2.1362963177316123e-06
4272.5,-2.1204550383612727e-06
4273.4,-2.1043754311722226e-06
4274.3,-2.1100575900747117e-06
