wave,flux
3700.85,-2.479454584715957e-07
3701.75,-2.4326991895106283e-07
3702.65,-2.335712208068872e-07
3703.55,-2.1735252653443586e-07
3704.45,-2.018179725656288e-07
3705.35,-1.8526191869213556e-07
3706.25,-1.7295688749667637e-07
3707.15,-1.6528503447521026e-07
3708.05,-1.644588144943124e-07
3708.96,-1.694575306549614e-07
3709.86,-1.790472283529848e-07
3710.76,-1.9403986346808514e-07
3711.66,-2.11280913667577e-07
3712.56,-2.2909023921990128e-07
3713.46,-2.440864379185805e-07
3714.36,-2.5275308772168473e-07
3715.26,-2.547091503272518e-07
3716.16,-2.4691683500963044e-07
3717.06,-2.3385048244476453e-07
3717.96,-2.12867145493318e-07
3718.86,-1.9121004246723708e-07
3719.76,-1.694111734099801e-07
3720.66,-1.5198607259782028e-07
3721.56,-1.4326949148961717e-07
3722.46,-1.4374257062517368e-07
3723.36,-1.5334788754905474e-07
3724.26,-1.68319320851732e-07
3725.16,-1.8237828424955244e-07
3726.06,-1.941085811150963e-07
3726.96,-1.9957850809743945e-07
3727.86,-2.0172091656003259e-07
3728.76,-2.007438154979366e-07
3729.66,-1.9790147129210398e-07
3730.56,-1.929024841037938e-07
3731.46,-1.8394174127474327e-07
3732.36,-1.7111591503705136e-07
3733.26,-1.551227600272343e-07
3734.16,-1.377676666792116e-07
3735.06,-1.2506999457147873e-07
3735.96,-1.181649749791282e-07
3736.86,-1.1887843825586426e-07
3737.76,-1.2791037597761276e-07
3738.66,-1.4314181752302018e-07
3739.56,-1.605495343292483e-07
3740.46,-1.757125536228473e-07
3741.36,-1.8546111486984618e-07
3742.26,-1.867308419828923e-07
3743.16,-1.811682996478857e-07
3744.06,-1.6993057427052862e-07
3744.96,-1.5698750418740295e-07
3745.86,-1.4416828215101805e-07
3746.76,-1.3370117185115956e-07
3747.67,-1.270855670405557e-07
3748.57,-1.2467305179924985e-07
3749.47,-1.2656735915700706e-07
3750.37,-1.3557665293697348e-07
3751.27,-1.5107324280844683e-07
3752.17,-1.700661752273717e-07
3753.07,-1.91959891850811e-07
3753.97,-2.089959033070487e-07
3754.87,-2.2075430317013356e-07
3755.77,-2.256277015378366e-07
3756.67,-2.1980846450585874e-07
3757.57,-2.0877995908710707e-07
3758.47,-1.956714278695257e-07
3759.37,-1.8543839822787601e-07
3760.27,-1.817948670552422e-07
3761.17,-1.8238024341495798e-07
3762.07,-1.855816748353327e-07
3762.97,-1.8831929909723997e-07
3763.87,-1.9002229958583205e-07
3764.77,-1.9212026464884998e-07
3765.67,-1.9287745270979012e-07
3766.57,-1.947700012802443e-07
3767.47,-1.988942738363997e-07
3768.37,-2.0482646090374142e-07
3769.27,-2.126968260150528e-07
3770.17,-2.2224654738020023e-07
3771.07,-2.320023642957359e-07
3771.97,-2.4184049084101994e-07
3772.87,-2.497717040462601e-07
3773.77,-2.5702402386293053e-07
3774.67,-2.608860852730657e-07
3775.57,-2.6178595181899536e-07
3776.47,-2.6374953999180537e-07
3777.37,-2.651555536697186e-07
3778.27,-2.6776735791968626e-07
3779.17,-2.710563200281661e-07
3780.07,-2.773926125159016e-07
3780.97,-2.823104768645843e-07
3781.87,-2.8512254938192656e-07
3782.77,-2.880931256671061e-07
3783.67,-2.861906971307901e-07
3784.57,-2.799435966565707e-07
3785.47,-2.694808813948709e-07
3786.38,-2.552502817213474e-07
3787.28,-2.405716084134711e-07
3788.18,-2.2662120669221998e-07
3789.08,-2.1784578036664875e-07
3789.98,-2.1332779401676253e-07
3790.88,-2.132579389906264e-07
3791.78,-2.1434991372894595e-07
3792.68,-2.1429825662982173e-07
3793.58,-2.1229591165903343e-07
3794.48,-2.0880437408799958e-07
3795.38,-2.026199087972938e-07
3796.28,-1.9773597553971815e-07
3797.18,-1.928227776066187e-07
3798.08,-1.9006379908095873e-07
3798.98,-1.9111500953575502e-07
3799.88,-1.9676370070863197e-07
3800.78,-2.076449159000275e-07
3801.68,-2.213824857501357e-07
3802.58,-2.3779436837996273e-07
3803.48,-2.505392029540824e-07
3804.38,-2.608659230701863e-07
3805.28,-2.639147566043212e-07
3806.18,-2.628758513625708e-07
3807.08,-2.605680922627787e-07
3807.98,-2.577107770667487e-07
3808.88,-2.581588081078005e-07
3809.78,-2.601395068361374e-07
3810.68,-2.6062242754895827e-07
3811.58,-2.5833783562020817e-07
3812.48,-2.4906218792482856e-07
3813.38,-2.3703513936409272e-07
3814.28,-2.2251449280513344e-07
3815.18,-2.0879915271762014e-07
3816.08,-1.9829492098636348e-07
3816.98,-1.9132685468584965e-07
3817.88,-1.8613622554970092e-07
3818.78,-1.822187384866182e-07
3819.68,-1.7773059193156458e-07
3820.58,-1.732409216298884e-07
3821.48,-1.688366482074368e-07
3822.38,-1.6528746045467804e-07
3823.28,-1.6213786988950714e-07
3824.18,-1.5886599193578078e-07
3825.09,-1.528262857966633e-07
3825.99,-1.4695888532603547e-07
3826.89,-1.421140698310262e-07
3827.79,-1.4020474647093074e-07
3828.69,-1.401977255492915e-07
3829.59,-1.4160506145874279e-07
3830.49,-1.4414014816571638e-07
3831.39,-1.4406311247163167e-07
3832.29,-1.4280282952501418e-07
3833.19,-1.4144191142938146e-07
3834.09,-1.3971032501048517e-07
3834.99,-1.398645299297213e-07
3835.89,-1.4174337261348076e-07
3836.79,-1.4427971375627187e-07
3837.69,-1.4395351615196865e-07
3838.59,-1.43822831688055e-07
3839.49,-1.4556936408086112e-07
3840.39,-1.4944817768719556e-07
3841.29,-1.582922401381262e-07
3842.19,-1.7215189926079842e-07
3843.09,-1.87309407321773e-07
3843.99,-2.0417905812808765e-07
3844.89,-2.169572843312516e-07
3845.79,-2.2669186523275805e-07
3846.69,-2.3176498852841422e-07
3847.59,-2.3312556219249074e-07
3848.49,-2.3171277018070979e-07
3849.39,-2.2933351423617562e-07
3850.29,-2.2648302294216725e-07
3851.19,-2.245479420338215e-07
3852.09,-2.2383615262855678e-07
3852.99,-2.2267923806007856e-07
3853.89,-2.209324926241408e-07
3854.79,-2.1664487983783523e-07
3855.69,-2.0934831627320758e-07
3856.59,-2.000999384938602e-07
3857.49,-1.9254571257685866e-07
3858.39,-1.8275135216108168e-07
3859.29,-1.7764265059348637e-07
3860.19,-1.7578818048529104e-07
3861.09,-1.806479941566246e-07
3861.99,-1.9157557848783515e-07
3862.9,-2.045107888844711e-07
3863.8,-2.1681643107697844e-07
3864.7,-2.2498432749950226e-07
3865.6,-2.3180015033883556e-07
3866.5,-2.313752652302213e-07
3867.4,-2.2903085752567097e-07
3868.3,-2.2526092428251713e-07
3869.2,-2.1921828567228724e-07
3870.1,-2.1218640037766252e-07
3871.0,-2.0522547983059646e-07
3871.9,-2.018237736634516e-07
3872.8,-2.0272267330377215e-07
3873.7,-2.0661534540841317e-07
3874.6,-2.1545869240612222e-07
3875.5,-2.2262938327721193e-07
3876.4,-2.2664722564510183e-07
3877.3,-2.2684173237024254e-07
3878.2,-2.2360814373657174e-07
3879.1,-2.1788113781435697e-07
3880.0,-2.1522618820191271e-07
3880.9,-2.1415148688971625e-07
3881.8,-2.1456862878481747e-07
3882.7,-2.1705274582297296e-07
3883.6,-2.2092659233658477e-07
3884.5,-2.2191874529583697e-07
3885.4,-2.2151569665262916e-07
3886.3,-2.1893582560092585e-07
3887.2,-2.1572652718385789e-07
3888.1,-2.1597267074108407e-07
3889.0,-2.228242437164744e-07
3889.9,-2.3372363952105557e-07
3890.8,-2.475634351445513e-07
3891.7,-2.64414246717656e-07
3892.6,-2.7730886323558505e-07
3893.5,-2.8758009569905207e-07
3894.4,-2.927528511927967e-07
3895.3,-2.9510623078440464e-07
3896.2,-2.933136690345526e-07
3897.1,-2.94556610335583e-07
3898.0,-2.9271801117547603e-07
3898.9,-2.926919723071139e-07
3899.8,-2.928479916837344e-07
3900.7,-2.915579333646709e-07
3901.6,-2.9024414939486e-07
3902.51,-2.879338197610422e-07
3903.41,-2.842796113557618e-07
3904.31,-2.813505329357197e-07
3905.21,-2.788786539694637e-07
3906.11,-2.791602710392991e-07
3907.01,-2.856283080255475e-07
3907.91,-2.946011437224557e-07
3908.81,-3.0807774204010564e-07
3909.71,-3.203640584868056e-07
3910.61,-3.3475126603940523e-07
3911.51,-3.4529657066766816e-07
3912.41,-3.5051741427241795e-07
3913.31,-3.5566779374618197e-07
3914.21,-3.5297293216568553e-07
3915.11,-3.5073152467575673e-07
3916.01,-3.457036859027638e-07
3916.91,-3.3684773624023273e-07
3917.81,-3.274874725428197e-07
3918.71,-3.148876154363974e-07
3919.61,-3.010917398132798e-07
3920.51,-2.885647619083933e-07
3921.41,-2.764820314690897e-07
3922.31,-2.682131924135997e-07
3923.21,-2.633328512696506e-07
3924.11,-2.597385921421724e-07
3925.01,-2.54846244465268e-07
3925.91,-2.4718204526050406e-07
3926.81,-2.345244809591454e-07
3927.71,-2.1681878465677242e-07
3928.61,-1.9601093206123528e-07
3929.51,-1.7375050153235544e-07
3930.41,-1.527454124370373e-07
3931.31,-1.32836439678806e-07
3932.21,-1.1730806339758211e-07
3933.11,-1.0565170270004564e-07
3934.01,-1.000718393869638e-07
3934.91,-1.0014438024342374e-07
3935.81,-1.0691051771918161e-07
3936.71,-1.1950015478025902e-07
3937.61,-1.3727345149958428e-07
3938.51,-1.5745847621378957e-07
3939.42,-1.79104678636122e-07
3940.32,-1.9779475687011162e-07
3941.22,-2.139431221729084e-07
3942.12,-2.2565324321356837e-07
3943.02,-2.3630162679986167e-07
3943.92,-2.4450851526111e-07
3944.82,-2.551725147520378e-07
3945.72,-2.6790919996676166e-07
3946.62,-2.8345961771245933e-07
3947.52,-2.9876642547652604e-07
3948.42,-3.153210240994669e-07
3949.32,-3.3018832482663944e-07
3950.22,-3.4008300877525317e-07
3951.12,-3.5149353340315437e-07
3952.02,-3.595137603124339e-07
3952.92,-3.6223832693449366e-07
3953.82,-3.644571072598619e-07
3954.72,-3.6605374652582906e-07
3955.62,-3.641815793967522e-07
3956.52,-3.627854741486491e-07
3957.42,-3.549387025347956e-07
3958.32,-3.473629211039746e-07
3959.22,-3.3570876339734013e-07
3960.12,-3.1951654027126086e-07
3961.02,-2.991987481009965e-07
3961.92,-2.75814107708619e-07
3962.82,-2.522291210453658e-07
3963.72,-2.2919928380701335e-07
3964.62,-2.0678195773054478e-07
3965.52,-1.8693801895504774e-07
3966.42,-1.6672441761122152e-07
3967.32,-1.4925678951977706e-07
3968.22,-1.349061366542547e-07
3969.12,-1.2701405600170833e-07
3970.02,-1.2745214139855945e-07
3970.92,-1.365182762998127e-07
3971.82,-1.53373442523627e-07
3972.72,-1.7638118161793075e-07
3973.62,-2.0407601480250173e-07
3974.52,-2.3281240844270357e-07
3975.42,-2.614334086858137e-07
3976.32,-2.904942642289239e-07
3977.22,-3.1921520490756286e-07
3978.13,-3.460801341038633e-07
3979.03,-3.686277942482282e-07
3979.93,-3.8762515132400585e-07
3980.83,-4.044090693808771e-07
3981.73,-4.134916495594674e-07
3982.63,-4.194478429367558e-07
3983.53,-4.2358135919043153e-07
3984.43,-4.289333899558082e-07
3985.33,-4.322010643557809e-07
3986.23,-4.394304713255592e-07
3987.13,-4.467681470580074e-07
3988.03,-4.557372940558314e-07
3988.93,-4.6007949650324885e-07
3989.83,-4.6669013967815033e-07
3990.73,-4.712441460811635e-07
3991.63,-4.774307052625456e-07
3992.53,-4.807396684878544e-07
3993.43,-4.821659116386705e-07
3994.33,-4.810007239730748e-07
3995.23,-4.79555658998744e-07
3996.13,-4.7442745811838734e-07
3997.03,-4.721094093663762e-07
3997.93,-4.7291821822163053e-07
3998.83,-4.764718094199362e-07
3999.73,-4.858862599455353e-07
4000.63,-4.958511640926509e-07
4001.53,-5.055145911999554e-07
4002.43,-5.11176363269661e-07
4003.33,-5.116803863072971e-07
4004.23,-5.057366599400928e-07
4005.13,-4.940511587857709e-07
4006.03,-4.866205307813398e-07
4006.93,-4.800313023747918e-07
4007.83,-4.818271390094196e-07
4008.73,-4.916400304436587e-07
4009.63,-5.017524807474289e-07
4010.53,-5.148588760881749e-07
4011.43,-5.238164989537817e-07
4012.33,-5.338684082604041e-07
4013.23,-5.404030048833664e-07
4014.13,-5.443823624533266e-07
4015.03,-5.457497005658448e-07
4015.93,-5.49045075382877e-07
4016.84,-5.518038153529839e-07
4017.74,-5.53052720068808e-07
4018.64,-5.523180462966011e-07
4019.54,-5.546171211261374e-07
4020.44,-5.554071681448148e-07
4021.34,-5.556971737760718e-07
4022.24,-5.592617418407994e-07
4023.14,-5.547636725488244e-07
4024.04,-5.550040176224662e-07
4024.94,-5.592626203872907e-07
4025.84,-5.594296953561776e-07
4026.74,-5.639373975587526e-07
4027.64,-5.673599495295523e-07
4028.54,-5.64202574756586e-07
4029.44,-5.554305745671322e-07
4030.34,-5.37246888184108e-07
4031.24,-5.169063439524464e-07
4032.14,-4.97605159964929e-07
4033.04,-4.829434892708338e-07
4033.94,-4.802310207302639e-07
4034.84,-4.85700292422062e-07
4035.74,-5.018164497506092e-07
4036.64,-5.277352669999029e-07
4037.54,-5.500441593762816e-07
4038.44,-5.720104843771827e-07
4039.34,-5.841084833848365e-07
4040.24,-5.893882918069189e-07
4041.14,-5.848687686758456e-07
4042.04,-5.734299409818053e-07
4042.94,-5.545112791699068e-07
4043.84,-5.319565952666847e-07
4044.74,-5.053087222156421e-07
4045.64,-4.845608970527831e-07
4046.54,-4.726017781707383e-07
4047.44,-4.7551994993648305e-07
4048.34,-4.943679610601062e-07
4049.24,-5.199159078090657e-07
4050.14,-5.464952344654495e-07
4051.04,-5.672964370805708e-07
4051.94,-5.806609294622729e-07
4052.84,-5.819119092591225e-07
4053.74,-5.811498704032542e-07
4054.65,-5.694975812988147e-07
4055.55,-5.60897670861246e-07
4056.45,-5.516117880814453e-07
4057.35,-5.43499844920494e-07
4058.25,-5.414949895536858e-07
4059.15,-5.380637346469992e-07
4060.05,-5.385005429781692e-07
4060.95,-5.326293581869197e-07
4061.85,-5.286232524620423e-07
4062.75,-5.16810317066627e-07
4063.65,-5.03936203480156e-07
4064.55,-4.97128593648934e-07
4065.45,-4.974121740852921e-07
4066.35,-5.051500120070611e-07
4067.25,-5.201729201897546e-07
4068.15,-5.330366786692333e-07
4069.05,-5.50087197405087e-07
4069.95,-5.551256750554771e-07
4070.85,-5.566428824330526e-07
4071.75,-5.522459016071264e-07
4072.65,-5.525769846995171e-07
4073.55,-5.488551539025579e-07
4074.45,-5.495153451364315e-07
4075.35,-5.46344759302031e-07
4076.25,-5.426505881590981e-07
4077.15,-5.405835720054964e-07
4078.05,-5.392141103567902e-07
4078.95,-5.460658100780327e-07
4079.85,-5.577925120578971e-07
4080.75,-5.785840148113529e-07
4081.65,-5.963137902036832e-07
4082.55,-6.096715078303569e-07
4083.45,-6.205522217461323e-07
4084.35,-6.251902857212577e-07
4085.25,-6.297023157250784e-07
4086.15,-6.356084620525356e-07
4087.05,-6.497882910134523e-07
4087.95,-6.608165807072059e-07
4088.85,-6.765163488400548e-07
4089.75,-6.855643393811056e-07
4090.65,-6.923356032085615e-07
4091.55,-6.880101607967075e-07
4092.45,-6.830804288141384e-07
4093.36,-6.729390100592999e-07
4094.26,-6.588079582396931e-07
4095.16,-6.45810300587272e-07
4096.06,-6.291926282473976e-07
4096.96,-6.141489622694124e-07
4097.86,-5.991130917785803e-07
4098.76,-5.811691950350366e-07
4099.66,-5.666442965659783e-07
4100.56,-5.529144553786863e-07
4101.46,-5.420429189279429e-07
4102.36,-5.365772955625418e-07
4103.26,-5.408760277617983e-07
4104.16,-5.536643172646391e-07
4105.06,-5.723072742797032e-07
4105.96,-5.941096911992491e-07
4106.86,-6.144011086649268e-07
4107.76,-6.280099099347976e-07
4108.66,-6.344594920413507e-07
4109.56,-6.398253936852869e-07
4110.46,-6.371761184319826e-07
4111.36,-6.375614932792819e-07
4112.26,-6.412773199053787e-07
4113.16,-6.455778030884787e-07
4114.06,-6.547538968344042e-07
4114.96,-6.629603532517181e-07
4115.86,-6.66478931764619e-07
4116.76,-6.734386926721807e-07
4117.66,-6.683499468202298e-07
4118.56,-6.621275042140533e-07
4119.46,-6.579192402620811e-07
4120.36,-6.550071193410063e-07
4121.26,-6.531561573002857e-07
4122.16,-6.524321706866688e-07
4123.06,-6.573683327106089e-07
4123.96,-6.607885699724041e-07
4124.86,-6.65298328668698e-07
4125.76,-6.688459810749018e-07
4126.66,-6.691001011858707e-07
4127.56,-6.638557623508634e-07
4128.46,-6.577870528312754e-07
4129.36,-6.465642942774393e-07
4130.26,-6.344652245545852e-07
4131.17,-6.195976068647018e-07
4132.06,-6.099704979342635e-07
4132.97,-6.011855728039462e-07
4133.87,-6.007143941240098e-07
4134.77,-6.067877772117116e-07
4135.67,-6.209347345438929e-07
4136.57,-6.379677077613207e-07
4137.47,-6.592792920140894e-07
4138.37,-6.71374830657427e-07
4139.27,-6.808635833287677e-07
4140.17,-6.806108714403965e-07
4141.07,-6.68492898114498e-07
4141.97,-6.506684336957497e-07
4142.87,-6.294054672573594e-07
4143.77,-6.118024382647036e-07
4144.67,-6.027267531539524e-07
4145.57,-6.029985490121311e-07
4146.47,-6.13136640649442e-07
4147.37,-6.235487396075584e-07
4148.27,-6.375472901581391e-07
4149.17,-6.493703161625204e-07
4150.07,-6.520055295352564e-07
4150.97,-6.477839014138926e-07
4151.87,-6.463779699224157e-07
4152.77,-6.418141449738569e-07
4153.67,-6.384792776703372e-07
4154.57,-6.358966854371665e-07
4155.47,-6.39220499920954e-07
4156.37,-6.386475994229772e-07
4157.27,-6.472904479809175e-07
4158.17,-6.576301025308353e-07
4159.07,-6.70410641125236e-07
4159.97,-6.883711034068828e-07
4160.87,-7.011567712154552e-07
4161.77,-7.106568502156223e-07
4162.67,-7.220701461806957e-07
4163.57,-7.25084100823604e-07
4164.47,-7.240896413539724e-07
4165.37,-7.191588972653525e-07
4166.27,-7.116648312852431e-07
4167.17,-7.037409436308552e-07
4168.07,-6.921188602218831e-07
4168.98,-6.890198919807308e-07
4169.88,-6.805928383632628e-07
4170.78,-6.735402854309679e-07
4171.68,-6.610058596667398e-07
4172.58,-6.502149431078999e-07
4173.48,-6.388934937736847e-07
4174.38,-6.334325172834007e-07
4175.28,-6.290666927483044e-07
4176.18,-6.339362044411023e-07
4177.08,-6.413548135582266e-07
4177.98,-6.486282370523911e-07
4178.88,-6.595494776960629e-07
4179.78,-6.677049778327552e-07
4180.68,-6.719802890188281e-07
4181.58,-6.764972083373639e-07
4182.48,-6.83566986213357e-07
4183.38,-6.857878979512057e-07
4184.28,-6.890630776419627e-07
4185.18,-6.922106855681151e-07
4186.08,-6.912094588090069e-07
4186.98,-6.891436832416703e-07
4187.88,-6.861750094046674e-07
4188.78,-6.857930824005183e-07
4189.68,-6.873280454833645e-07
4190.58,-6.939642294591865e-07
4191.48,-7.022904520523143e-07
4192.38,-7.169164881359539e-07
4193.28,-7.201664912937085e-07
4194.18,-7.209756981955877e-07
4195.08,-7.163198600831297e-07
4195.98,-7.024044366869993e-07
4196.88,-6.875132224914174e-07
4197.78,-6.695560469413984e-07
4198.68,-6.536712174202589e-07
4199.58,-6.447784752967169e-07
4200.48,-6.390381798421508e-07
4201.38,-6.423395711026312e-07
4202.28,-6.510563057240482e-07
4203.18,-6.589090128243315e-07
4204.08,-6.750949499654146e-07
4204.98,-6.966271203165024e-07
4205.88,-7.163043735105746e-07
4206.79,-7.356784509898938e-07
4207.69,-7.538045977548197e-07
4208.59,-7.666517537605014e-07
4209.49,-7.747278190700235e-07
4210.39,-7.771425010210252e-07
4211.29,-7.775440880288672e-07
4212.19,-7.6993212419388e-07
4213.09,-7.655651594908496e-07
4213.99,-7.526194366217604e-07
4214.89,-7.472216780956485e-07
4215.79,-7.45377660758544e-07
4216.69,-7.474154254868125e-07
4217.59,-7.516593858209507e-07
4218.49,-7.6899239093811e-07
4219.39,-7.849581929682471e-07
4220.29,-7.979961251081753e-07
4221.19,-7.957154800172681e-07
4222.09,-7.841194347266097e-07
4222.99,-7.587490955975207e-07
4223.89,-7.165826059175282e-07
4224.79,-6.741779781102583e-07
4225.69,-6.250020520878934e-07
4226.59,-5.875199554166223e-07
4227.49,-5.7310560087686e-07
4228.39,-5.840780755357532e-07
4229.29,-6.145221839219846e-07
4230.19,-6.497301009892775e-07
4231.09,-6.938181642135087e-07
4231.99,-7.27188561079236e-07
4232.89,-7.477568938562179e-07
4233.79,-7.58049025558092e-07
4234.69,-7.548726405575254e-07
4235.59,-7.512510331931052e-07
4236.49,-7.458488938201305e-07
4237.39,-7.433531044434338e-07
4238.29,-7.469516533164992e-07
4239.19,-7.544858077763908e-07
4240.09,-7.684896692278448e-07
4240.99,-7.862144858668417e-07
4241.89,-8.042535122040004e-07
4242.79,-8.230891545232464e-07
4243.69,-8.397678880540563e-07
4244.59,-8.522366329044255e-07
4245.5,-8.549228258431966e-07
4246.4,-8.484188272924162e-07
4247.3,-8.330293210846984e-07
4248.2,-8.111528177049327e-07
4249.1,-7.917202379464091e-07
4250.0,-7.650889776189275e-07
4250.9,-7.519556231253223e-07
4251.8,-7.457867068476538e-07
4252.7,-7.435395943112807e-07
4253.6,-7.468538803810425e-07
4254.5,-7.501924457782105e-07
4255.4,-7.616224751057654e-07
4256.3,-7.660686520729877e-07
4257.2,-7.74673771197171e-07
4258.1,-7.7728670596505e-07
4259.0,-7.764978832668551e-07
4259.9,-7.699104347140863e-07
4260.8,-7.679520514798451e-07
4261.7,-7.743639665580224e-07
4262.6,-7.925460737294837e-07
4263.5,-8.162480305661844e-07
4264.4,-8.466112124923196e-07
4265.3,-8.68969728628259e-07
4266.2,-8.792319535548331e-07
4267.1,-8.798008314453968e-07
4268.0,-8.642909368365453e-07
4268.9,-8.334690043007066e-07
4269.8,-7.995183113589882e-07
4270.7,-7.605149341473416e-07
4271.6,-7.220794315341341e-07
4272.5,-6.93755175213502e-07
4273.4,-6.790882569612159e-07
4274.3,-6.786454631334927e-07
4275.2,-6.970931382319328e-07
4276.1,-7.243152701224284e-07
4277.0,-7.606038812547398e-07
4277.9,-7.938277105494735e-07
4278.8,-8.17844101780796e-07
