wave,flux
3700.85,-4.4861623285978354e-05
3701.75,-4.421631153798693e-05
3702.65,-4.26207766081392e-05
3703.55,-3.990268675555787e-05
3704.45,-3.677424832269702e-05
3705.35,-3.403867248716389e-05
3706.25,-3.178260829302339e-05
3707.15,-3.0377361612377057e-05
3708.05,-3.032366452803826e-05
3708.96,-3.133599601661262e-05
3709.86,-3.3368129645088355e-05
3710.76,-3.6451635010995264e-05
3711.66,-4.0220002944743913e-05
3712.56,-4.3916551288929855e-05
3713.46,-4.679642019261349e-05
3714.36,-4.87941953743004e-05
3715.26,-4.922542027102509e-05
3716.16,-4.792241472198958e-05
3717.06,-4.518557814072407e-05
3717.96,-4.160100714310326e-05
3718.86,-3.7282724968094034e-05
3719.76,-3.321692956783192e-05
3720.66,-2.9855982215603625e-05
3721.56,-2.8098644800764087e-05
3722.46,-2.8291039295829632e-05
3723.36,-3.0286020914569516e-05
3724.26,-3.316039616217315e-05
3725.16,-3.6112202078922256e-05
3726.06,-3.842990024432417e-05
3726.96,-3.981897540913927e-05
3727.86,-4.019193056311506e-05
3728.76,-4.0057728669624015e-05
3729.66,-3.9750209986490724e-05
3730.56,-3.867645561670509e-05
3731.46,-3.71572905210201e-05
3732.36,-3.451921537055975e-05
3733.26,-3.120487668274581e-05
3734.16,-2.812112668317695e-05
3735.06,-2.5684503323273573e-05
3735.96,-2.4386498514947157e-05
3736.86,-2.4781033363690414e-05
3737.76,-2.6825349141970175e-05
3738.66,-3.0115703881990677e-05
3739.56,-3.389207554538918e-05
3740.46,-3.748677937903903e-05
3741.36,-3.955837229172612e-05
3742.26,-4.024659026861059e-05
3743.16,-3.8769964208949745e-05
3744.06,-3.636121615809491e-05
3744.96,-3.365127676284241e-05
3745.86,-3.10772896024428e-05
3746.76,-2.8891232118659968e-05
3747.67,-2.768111252967508e-05
3748.57,-2.7132228429020647e-05
3749.47,-2.7810537410940804e-05
3750.37,-2.982333739713305e-05
3751.27,-3.345025540746124e-05
3752.17,-3.791523483963616e-05
3753.07,-4.270582497418889e-05
3753.97,-4.718088513589506e-05
3754.87,-4.989251567277515e-05
3755.77,-5.105247435525145e-05
3756.67,-5.0138013767159044e-05
3757.57,-4.787755559379688e-05
3758.47,-4.4890631859856814e-05
3759.37,-4.275963593953037e-05
3760.27,-4.163911540828264e-05
3761.17,-4.180029542936107e-05
3762.07,-4.262920589691092e-05
3762.97,-4.347523884554247e-05
3763.87,-4.379992982219662e-05
3764.77,-4.430534452515639e-05
3765.67,-4.4804543268671904e-05
3766.57,-4.527800282179752e-05
3767.47,-4.649294378697014e-05
3768.37,-4.791871174213403e-05
3769.27,-5.032432780362763e-05
3770.17,-5.28479464221685e-05
3771.07,-5.570356992192131e-05
3771.97,-5.856690790817786e-05
3772.87,-6.074816592726721e-05
3773.77,-6.26888467192448e-05
3774.67,-6.392180971256833e-05
3775.57,-6.456180468006964e-05
3776.47,-6.480908979141437e-05
3777.37,-6.564583095629734e-05
3778.27,-6.639210856268468e-05
3779.17,-6.77661876573995e-05
3780.07,-6.904565087938962e-05
3780.97,-7.072785222077052e-05
3781.87,-7.232544698394772e-05
3782.77,-7.31339455553931e-05
3783.67,-7.303012064645849e-05
3784.57,-7.137693823007428e-05
3785.47,-6.89615034335302e-05
3786.38,-6.517101601292126e-05
3787.28,-6.140037695900308e-05
3788.18,-5.803725165962556e-05
3789.08,-5.53877286460043e-05
3789.98,-5.437728711260773e-05
3790.88,-5.414974333121046e-05
3791.78,-5.485893249812886e-05
3792.68,-5.5309054587820526e-05
3793.58,-5.4800817628656786e-05
3794.48,-5.438947427577886e-05
3795.38,-5.30414569528823e-05
3796.28,-5.14557987615225e-05
3797.18,-5.0534940746611485e-05
3798.08,-5.014978651842033e-05
3798.98,-5.0646803933036715e-05
3799.88,-5.244456594675997e-05
3800.78,-5.53941599160298e-05
3801.68,-5.950401674896257e-05
3802.58,-6.382307361381952e-05
3803.48,-6.766650859551405e-05
3804.38,-7.02319589403612e-05
3805.28,-7.152898645431307e-05
3806.18,-7.14096080324361e-05
3807.08,-7.131381577327943e-05
3807.98,-7.11390102302052e-05
3808.88,-7.150419269820048e-05
3809.78,-7.253262452146052e-05
3810.68,-7.293188685411645e-05
3811.58,-7.281274763406163e-05
3812.48,-7.100932795488837e-05
3813.38,-6.742201664109114e-05
3814.28,-6.349255268544444e-05
3815.18,-5.960490347823058e-05
3816.08,-5.638167262273198e-05
3816.98,-5.413938986241504e-05
3817.88,-5.2975132260888805e-05
3818.78,-5.200783637251436e-05
3819.68,-5.073483739366033e-05
3820.58,-4.96588358545505e-05
3821.48,-4.871055771462209e-05
3822.38,-4.794382727754408e-05
3823.28,-4.744410428987225e-05
3824.18,-4.653701062426358e-05
3825.09,-4.5054294737155844e-05
3825.99,-4.373038325480024e-05
3826.89,-4.2544317766988474e-05
3827.79,-4.215398617798469e-05
3828.69,-4.248272614439015e-05
3829.59,-4.32010602278182e-05
3830.49,-4.3794087247651474e-05
3831.39,-4.431068512460504e-05
3832.29,-4.431433910252849e-05
3833.19,-4.3905658564889865e-05
3834.09,-4.391085462803731e-05
3834.99,-4.411255014009521e-05
3835.89,-4.487964455626295e-05
3836.79,-4.573983803047802e-05
3837.69,-4.614254211528956e-05
3838.59,-4.6154462456943676e-05
3839.49,-4.655903227256769e-05
3840.39,-4.823099560599514e-05
3841.29,-5.082855198035321e-05
3842.19,-5.5090277933542835e-05
3843.09,-6.025772463421368e-05
3843.99,-6.49943356988913e-05
3844.89,-6.912895962227702e-05
3845.79,-7.227042552794376e-05
3846.69,-7.40931907056015e-05
3847.59,-7.499536657530735e-05
3848.49,-7.486925074116828e-05
3849.39,-7.400347394000512e-05
3850.29,-7.335907205032933e-05
3851.19,-7.306034363125821e-05
3852.09,-7.321413206543465e-05
3852.99,-7.292085006471107e-05
3853.89,-7.268223409662985e-05
3854.79,-7.16407123557531e-05
3855.69,-6.982962360208888e-05
3856.59,-6.784535461045455e-05
3857.49,-6.463524939724966e-05
3858.39,-6.25004339604452e-05
3859.29,-6.080594675700775e-05
3860.19,-6.071490760703059e-05
3861.09,-6.269031541139053e-05
3861.99,-6.680723450773998e-05
3862.9,-7.167906100471861e-05
3863.8,-7.678670720082155e-05
3864.7,-8.029402782744208e-05
3865.6,-8.198742589071591e-05
3866.5,-8.253847700171889e-05
3867.4,-8.150838866001497e-05
3868.3,-7.948105893921007e-05
3869.2,-7.744495478754586e-05
3870.1,-7.524490356720322e-05
3871.0,-7.302527734321059e-05
3871.9,-7.258270866001866e-05
3872.8,-7.395847258873208e-05
3873.7,-7.719602918892502e-05
3874.6,-8.165589542101666e-05
3875.5,-8.574981841030304e-05
3876.4,-8.889886552920788e-05
3877.3,-8.894822027296803e-05
3878.2,-8.734946233938811e-05
3879.1,-8.528170292337837e-05
3880.0,-8.426898242291078e-05
3880.9,-8.355684694420492e-05
3881.8,-8.406247449929497e-05
3882.7,-8.51721034251618e-05
3883.6,-8.760680891795465e-05
3884.5,-8.888187866010976e-05
3885.4,-8.970925624067602e-05
3886.3,-8.966698120241766e-05
3887.2,-8.933279530441463e-05
3888.1,-9.098710221436343e-05
3889.0,-9.355841055311749e-05
3889.9,-9.935052463518332e-05
3890.8,-0.00010669192352140579
3891.7,-0.00011490204660662801
3892.6,-0.0001221298367369654
3893.5,-0.00012698825142441853
3894.4,-0.00013012135642871046
3895.3,-0.00013186840032172064
3896.2,-0.00013202877656648648
3897.1,-0.00013258810052738955
3898.0,-0.00013266406092335987
3898.9,-0.00013302494778550736
3899.8,-0.00013349545666244456
3900.7,-0.00013383018881581464
3901.6,-0.00013354582003613472
3902.51,-0.00013314607624191345
3903.41,-0.000131740868258407
3904.31,-0.00012975456412645078
3905.21,-0.00012940477893097477
3906.11,-0.0001299350249250456
3907.01,-0.0001337407766072402
3907.91,-0.00013926722122387908
3908.81,-0.00014722221767519053
3909.71,-0.0001553386854346325
3910.61,-0.00016210649551328703
3911.51,-0.00016746765134404248
3912.41,-0.0001718039041217831
3913.31,-0.00017447813270162382
3914.21,-0.00017596258312157795
3915.11,-0.0001752699918821115
3916.01,-0.00017254574347482237
3916.91,-0.00017009137367296877
3917.81,-0.00016570180848752295
3918.71,-0.0001596312652141199
3919.61,-0.0001540618041923919
3920.51,-0.00014671351232116856
3921.41,-0.0001413159723653147
3922.31,-0.00013729286201598093
3923.21,-0.00013555655279782878
3924.11,-0.0001345469374651668
3925.01,-0.0001333514126837433
3925.91,-0.00013045843693154497
3926.81,-0.0001245572457482877
3927.71,-0.00011620417338809205
3928.61,-0.0001054722575349953
3929.51,-9.408115179559035e-05
3930.41,-8.317999114714366e-05
3931.31,-7.290188061642818e-05
3932.21,-6.404327291539467e-05
3933.11,-5.804083808351082e-05
3934.01,-5.4600425005684934e-05
3934.91,-5.515480063854502e-05
3935.81,-5.889493551680445e-05
3936.71,-6.655432690354685e-05
3937.61,-7.723189583727667e-05
3938.51,-8.922836593414378e-05
3939.42,-0.00010203443788543788
3940.32,-0.00011355715541789117
3941.22,-0.0001228780446631714
3942.12,-0.00012925751839956657
3943.02,-0.00013505171596618184
3943.92,-0.00014035173486696119
3944.82,-0.00014722519355623052
3945.72,-0.0001558114257817828
3946.62,-0.0001661486078680923
3947.52,-0.00017649474278655182
3948.42,-0.00018719328748968356
3949.32,-0.00019649766887717233
3950.22,-0.00020542164649217277
3951.12,-0.00021305134982569404
3952.02,-0.0002176162421584385
3952.92,-0.00022280292036206935
3953.82,-0.00022515802912148787
3954.72,-0.00022686871415627348
3955.62,-0.00022607295107215602
3956.52,-0.00022473427162929906
3957.42,-0.00022399954971926122
3958.32,-0.0002197565600838886
3959.22,-0.00021335222771989287
3960.12,-0.0002051959314409231
3961.02,-0.00019247091931421116
3961.92,-0.00017829748432693032
3962.82,-0.00016351216828608577
3963.72,-0.00014917062741875734
3964.62,-0.00013626504870546834
3965.52,-0.00012257546194867296
3966.42,-0.00011073440060144504
3967.32,-9.921355887736102e-05
3968.22,-9.019264607275447e-05
3969.12,-8.559880444967231e-05
3970.02,-8.574901399344132e-05
3970.92,-9.252113419944937e-05
3971.82,-0.00010465294204132147
3972.72,-0.00012028818429439964
3973.62,-0.00014002626964338682
3974.52,-0.00015978562091829558
3975.42,-0.00018062638555701614
3976.32,-0.00020109070012429205
3977.22,-0.00022293367266546185
3978.13,-0.00024300297218018613
3979.03,-0.00026083595012698453
3979.93,-0.0002769815850172645
3980.83,-0.00029032552026736036
3981.73,-0.00029814817217926757
3982.63,-0.00030607898019926024
3983.53,-0.00030982312148141567
3984.43,-0.0003132047496117826
3985.33,-0.0003195137562764277
3986.23,-0.00032432931923779727
3987.13,-0.000331257018879556
3988.03,-0.00033845330665919837
3988.93,-0.00034529749161426286
3989.83,-0.0003518156076158744
3990.73,-0.00035880903257874236
3991.63,-0.00036415096060025894
3992.53,-0.0003674679432937293
3993.43,-0.000372393740096459
3994.33,-0.00037464044787879273
3995.23,-0.0003741560862145898
3996.13,-0.00037540197063348985
3997.03,-0.00037281197298218806
3997.93,-0.00037747685760527067
3998.83,-0.00038479263532641605
3999.73,-0.0003933381207892255
4000.63,-0.00040627995189101653
4001.53,-0.00041537452226246037
4002.43,-0.0004221564194737624
4003.33,-0.0004243696287033682
4004.23,-0.000420145160019648
4005.13,-0.00041126088749372336
4006.03,-0.00040765470465869074
4006.93,-0.000403344306012108
4007.83,-0.0004065726769531101
4008.73,-0.00041526629292466387
4009.63,-0.0004291846644822083
4010.53,-0.00044163991526376074
4011.43,-0.00045389055824989995
4012.33,-0.0004632194279726191
4013.23,-0.00047162508759736674
4014.13,-0.00047677904908203914
4015.03,-0.0004843077679237879
4015.93,-0.0004899409418951683
4016.84,-0.0004939200521478812
4017.74,-0.0004991644653316187
4018.64,-0.0005012503932488216
4019.54,-0.0005098473168999933
4020.44,-0.0005150788821126615
4021.34,-0.0005165420175746581
4022.24,-0.0005172028056401504
4023.14,-0.0005191711184952194
4024.04,-0.0005194342607090098
4024.94,-0.0005221370918320957
4025.84,-0.0005273714895002434
4026.74,-0.0005325683760176907
4027.64,-0.0005363203419627128
4028.54,-0.0005351035983582915
4029.44,-0.0005272602672192511
4030.34,-0.0005125238736188198
4031.24,-0.0004941870657660251
4032.14,-0.00047286098421010276
4033.04,-0.0004595538597977703
4033.94,-0.00045804237850214177
4034.84,-0.00046413922884843637
4035.74,-0.0004854846764405359
4036.64,-0.0005140486719142674
4037.54,-0.0005449626475348832
4038.44,-0.0005711315607659583
4039.34,-0.0005900127075239561
4040.24,-0.0005987549421360356
4041.14,-0.000598802542949069
4042.04,-0.0005925699457475856
4042.94,-0.000576337331012006
4043.84,-0.0005526778291334254
4044.74,-0.0005236877136672167
4045.64,-0.0005034242836095656
4046.54,-0.0004903845663055684
4047.44,-0.0004981312365125227
4048.34,-0.0005197243194244823
4049.24,-0.0005520963431978225
4050.14,-0.0005851996100221544
4051.04,-0.000615802590074847
4051.94,-0.0006321602828578669
4052.84,-0.000638908420766502
4053.74,-0.0006355815617958409
4054.65,-0.0006274481362729987
4055.55,-0.0006170730574225008
4056.45,-0.0006051142647700153
4057.35,-0.0005962584184552603
4058.25,-0.0005963705758455769
4059.15,-0.0005956817042792171
4060.05,-0.0005979271379762748
4060.95,-0.0005982060703705279
4061.85,-0.0005957397219608207
4062.75,-0.0005865273150964612
4063.65,-0.0005761276046287813
4064.55,-0.0005723408485058007
4065.45,-0.0005732632204593695
4066.35,-0.0005855503642959555
4067.25,-0.0006098644445665589
4068.15,-0.0006310125624444132
4069.05,-0.0006499097137711654
4069.95,-0.0006648755583514243
4070.85,-0.0006704732595792533
4071.75,-0.0006682816202706239
4072.65,-0.0006717674580405163
4073.55,-0.0006745289260755884
4074.45,-0.0006766130898652321
4075.35,-0.0006796429279583055
4076.25,-0.000678818460483808
4077.15,-0.0006781455836026121
4078.05,-0.000680393034212515
4078.95,-0.0006939766815337219
4079.85,-0.0007173745325416601
4080.75,-0.0007452754490843434
4081.65,-0.0007796897089033047
4082.55,-0.0008051664933898036
4083.45,-0.0008229879998075088
4084.35,-0.0008358258999418228
4085.25,-0.0008492184125768669
4086.15,-0.0008589969784364287
4087.05,-0.0008801923578076364
4087.95,-0.0009033885800985161
4088.85,-0.0009308648869383625
4089.75,-0.0009475583837940643
4090.65,-0.0009579907322453199
4091.55,-0.0009594529700840639
4092.45,-0.0009508162420404724
4093.36,-0.0009434666918298831
4094.26,-0.0009311479171642774
4095.16,-0.000912801516324957
4096.06,-0.0008901517022174718
4096.96,-0.0008725834308699113
4097.86,-0.0008490884613417606
4098.76,-0.0008280934748142872
4099.66,-0.0008078263118169589
4100.56,-0.0007950616883661522
4101.46,-0.0007855570602415617
4102.36,-0.0007828117451658989
4103.26,-0.0007935631003242251
4104.16,-0.0008207117840448284
4105.06,-0.0008574498273092546
4105.96,-0.0008966072908195652
4106.86,-0.0009335489717610468
4107.76,-0.0009613085771996094
4108.66,-0.0009817291532392563
4109.56,-0.0009969574419408185
4110.46,-0.0009983995434017536
4111.36,-0.001000905929234454
4112.26,-0.0010120056465868176
4113.16,-0.0010278942889956214
4114.06,-0.001044482659083197
4114.96,-0.0010706625608238826
4115.86,-0.00108632474728703
4116.76,-0.0011011180797248356
4117.66,-0.0011056819362894779
4118.56,-0.0011002326539625495
4119.46,-0.0010953673972794533
4120.36,-0.0010933518345485516
4121.26,-0.0010901669564212756
4122.16,-0.0010992237814110076
4123.06,-0.0011079033849198372
4123.96,-0.0011264001294512033
4124.86,-0.0011397926190000512
4125.76,-0.0011463645292072206
4126.66,-0.0011531702104348729
4127.56,-0.00115744339903055
4128.46,-0.0011527739117229725
4129.36,-0.0011387676011500132
4130.26,-0.001124790851267581
4131.17,-0.0011002090555416383
4132.06,-0.001088707373292517
4132.97,-0.0010859550803062855
4133.87,-0.0010883531017334437
4134.77,-0.0011034121683772286
4135.67,-0.001137037197185693
4136.57,-0.0011788356224269217
4137.47,-0.0012255645975728963
4138.37,-0.0012646850318014343
4139.27,-0.0012892797145106953
4140.17,-0.0012942404084823344
4141.07,-0.0012877764844483003
4141.97,-0.0012567046735705372
4142.87,-0.001223688532616477
4143.77,-0.0011908754203274008
4144.67,-0.0011754608956352434
4145.57,-0.001184174019862026
4146.47,-0.0012051531835649417
4147.37,-0.00123833965885101
4148.27,-0.0012640236110416476
4149.17,-0.0012928990271092343
4150.07,-0.0013017448603768412
4150.97,-0.00130322595821013
4151.87,-0.0013020891401204215
4152.77,-0.0013047627159986526
4153.67,-0.001299922779417778
4154.57,-0.0013065625792046595
4155.47,-0.0013097384143385853
4156.37,-0.0013302922242284527
4157.27,-0.00134876782146399
4158.17,-0.0013810494734845045
4159.07,-0.0014233470271958273
4159.97,-0.0014674835529935482
4160.87,-0.00151362213324421
4161.77,-0.0015523753533188752
4162.67,-0.001587287731215213
4163.57,-0.0016103713955934091
4164.47,-0.0016240834096874135
4165.37,-0.0016279386635318098
4166.27,-0.0016103150379767255
4167.17,-0.001600473390946463
4168.07,-0.0015921427457675674
4168.98,-0.0015815662253864696
4169.88,-0.0015823520548073186
4170.78,-0.0015690201717114462
4171.68,-0.0015577552829640574
4172.58,-0.0015437125131956587
4173.48,-0.0015218936515263327
4174.38,-0.001514570207900161
4175.28,-0.0015070504868608418
4176.18,-0.0015254607588908848
4177.08,-0.0015493203772961425
4177.98,-0.0015753832945665416
4178.88,-0.0016066549771626612
4179.78,-0.0016317832778442553
4180.68,-0.0016515181382955805
4181.58,-0.0016851031178961755
4182.48,-0.001710132109800844
4183.38,-0.0017433132148762783
4184.28,-0.0017688704031917739
4185.18,-0.0017913038620546236
4186.08,-0.0018105348892461057
4186.98,-0.0018302941081528659
4187.88,-0.0018344257700031775
4188.78,-0.0018472360583799924
4189.68,-0.0018686091205405318
4190.58,-0.0019000620457830938
4191.48,-0.0019423316708334596
4192.38,-0.0019811802579123915
4193.28,-0.0020156785696344103
4194.18,-0.002016761468937609
4195.08,-0.0020167253333560607
4195.98,-0.0019776863355254214
4196.88,-0.0019444918447238811
4197.78,-0.0019036505349596183
4198.68,-0.0018731419256562388
4199.58,-0.001844694392689054
4200.48,-0.001866032003841026
4201.38,-0.001887433260328675
4202.28,-0.0019211005143626326
4203.18,-0.0019792689422347917
4204.08,-0.002049206088400513
4204.98,-0.002130819382433924
4205.88,-0.00222137437500573
4206.79,-0.002310663136750902
4207.69,-0.0023741124122739717
4208.59,-0.0024257434992301895
4209.49,-0.0024564999006492796
4210.39,-0.002478995186166466
4211.29,-0.002482143171280373
4212.19,-0.0024935730143905853
4213.09,-0.002476297762463044
4213.99,-0.0024504798670846187
4214.89,-0.0024569959232478623
4215.79,-0.002441834175401014
4216.69,-0.0024788563083358796
4217.59,-0.002532699698277573
4218.49,-0.0026162495598359738
4219.39,-0.0027053115760947047
4220.29,-0.0027679919543308774
4221.19,-0.0028001432318570042
4222.09,-0.0027894027070281043
4222.99,-0.002709560032862664
4223.89,-0.0025915353306052843
4224.79,-0.002420258134918443
4225.69,-0.0022739492016849295
4226.59,-0.00215001608703387
4227.49,-0.0021111587905432655
4228.39,-0.002151038356449405
4229.29,-0.002278824474061422
4230.19,-0.0024499587551968464
4231.09,-0.002642035985416748
4231.99,-0.002787604080321344
4232.89,-0.0028977697030984286
4233.79,-0.0029506211910289974
4234.69,-0.0029628697817532033
4235.59,-0.002962987071023659
4236.49,-0.002967175450016133
4237.39,-0.002963425902245833
4238.29,-0.0029986298423783004
4239.19,-0.0030558232722298503
4240.09,-0.0031573254946971113
4240.99,-0.0032609126177091012
4241.89,-0.003381376148323028
4242.79,-0.0034954825638729555
4243.69,-0.0035982189639385833
4244.59,-0.0037095492864218814
4245.5,-0.003749574104331922
4246.4,-0.003756674192784732
4247.3,-0.00371480319783052
4248.2,-0.003641717098877674
4249.1,-0.0035611792651453695
4250.0,-0.003449360287898489
4250.9,-0.0034014555273540236
4251.8,-0.0033742302442717987
4252.7,-0.003374968958520061
4253.6,-0.003417106490792601
4254.5,-0.0034654217929782484
4255.4,-0.003537490349996873
4256.3,-0.003613028975943892
4257.2,-0.003675611146531786
4258.1,-0.0037131600376798437
4259.0,-0.0037271751536530158
4259.9,-0.003742446956881916
4260.8,-0.0037552075923566893
4261.7,-0.0038257751333742925
4262.6,-0.003940224646466644
4263.5,-0.004116959251374136
4264.4,-0.0042857644573103095
4265.3,-0.004488773764564294
4266.2,-0.004579547732182826
4267.1,-0.004632883761996337
4268.0,-0.004578368591821337
4268.9,-0.00442989042598267
4269.8,-0.004239975919773229
4270.7,-0.004011027407312127
4271.6,-0.0038213578081378726
4272.5,-0.0036820478424125654
4273.4,-0.0036347218065790818
4274.3,-0.0036656183861912355
4275.2,-0.003796629039908662
4276.1,-0.004000975408698093
4277.0,-0.004228148232796197
4277.9,-0.004494887704957829
4278.8,-0.004684700540077239
4279.7,-0.004863138379721074
4280.6,-0.004933700485949413
4281.5,-0.005003265881126703
4282.4,-0.005013588001297473
