wave,flux
3700.85,-4.775586905717025e-07
3701.75,-4.7492063749777845e-07
3702.65,-4.6085763698223784e-07
3703.55,-4.410533600790845e-07
3704.45,-4.2254421279087387e-07
3705.35,-4.0512416756283645e-07
3706.25,-3.937682006723936e-07
3707.15,-3.9077105424766704e-07
3708.05,-3.9302637654748314e-07
3708.96,-3.9998216935214933e-07
3709.86,-4.057445319762063e-07
3710.76,-4.172207870562078e-07
3711.66,-4.290341047582149e-07
3712.56,-4.426655682970793e-07
3713.46,-4.598620691064076e-07
3714.36,-4.788064365320201e-07
3715.26,-4.941106113854888e-07
3716.16,-5.032221883954467e-07
3717.06,-5.039042848579518e-07
3717.96,-4.952797060009737e-07
3718.86,-4.756913795512703e-07
3719.76,-4.478478640537476e-07
3720.66,-4.215499539453938e-07
3721.56,-3.9672914723415194e-07
3722.46,-3.8849630146717826e-07
3723.36,-3.970961811857524e-07
3724.26,-4.1540661364390945e-07
3725.16,-4.3683269013853895e-07
3726.06,-4.610879364109969e-07
3726.96,-4.7363240665024605e-07
3727.86,-4.838504678386648e-07
3728.76,-4.873587456753372e-07
3729.66,-4.841479494071224e-07
3730.56,-4.7323124697462605e-07
3731.46,-4.541202867774692e-07
3732.36,-4.271342101912515e-07
3733.26,-3.989693194403818e-07
3734.16,-3.7295633873614657e-07
3735.06,-3.5546552165085567e-07
3735.96,-3.540921410013173e-07
3736.86,-3.6676996906496784e-07
3737.76,-3.898066017403693e-07
3738.66,-4.2355279184415273e-07
3739.56,-4.563934715391427e-07
3740.46,-4.855690723630727e-07
3741.36,-5.030017845757032e-07
3742.26,-5.090648098991378e-07
3743.16,-5.036089304731089e-07
3744.06,-4.910071531718105e-07
3744.96,-4.727766799714149e-07
3745.86,-4.50600845619391e-07
3746.76,-4.257133934353623e-07
3747.67,-4.0259125971632064e-07
3748.57,-3.8115369209798784e-07
3749.47,-3.668835440792094e-07
3750.37,-3.6485866419739375e-07
3751.27,-3.804587508264407e-07
3752.17,-4.084560698633062e-07
3753.07,-4.4747519363649964e-07
3753.97,-4.893658525691165e-07
3754.87,-5.205853330230061e-07
3755.77,-5.419309367137273e-07
3756.67,-5.514813823703946e-07
3757.57,-5.442230370502109e-07
3758.47,-5.323343815699045e-07
3759.37,-5.211220227991652e-07
3760.27,-5.16762656896251e-07
3761.17,-5.179532208009679e-07
3762.07,-5.255816957923179e-07
3762.97,-5.298676282679894e-07
3763.87,-5.350762242208249e-07
3764.77,-5.344976073146324e-07
3765.67,-5.282396332044037e-07
3766.57,-5.182935051051193e-07
3767.47,-4.975334645057541e-07
3768.37,-4.78170943556999e-07
3769.27,-4.604603400978909e-07
3770.17,-4.5049575302583177e-07
3771.07,-4.448739064469384e-07
3771.97,-4.5554972405383506e-07
3772.87,-4.7420672540949134e-07
3773.77,-5.003273929543658e-07
3774.67,-5.240954925567569e-07
3775.57,-5.50425830054315e-07
3776.47,-5.747007110481971e-07
3777.37,-5.970642440206815e-07
3778.27,-6.194569068771503e-07
3779.17,-6.358284471079737e-07
3780.07,-6.598627150666762e-07
3780.97,-6.798774044375467e-07
3781.87,-6.910697466596488e-07
3782.77,-6.991972688641343e-07
3783.67,-7.020200815552559e-07
3784.57,-6.965682925811589e-07
3785.47,-6.815978686703858e-07
3786.38,-6.620903161952994e-07
3787.28,-6.414122590701911e-07
3788.18,-6.190426057836942e-07
3789.08,-6.034939259217898e-07
3789.98,-5.918470986514709e-07
3790.88,-5.794692367613313e-07
3791.78,-5.693807728950695e-07
3792.68,-5.589231931948749e-07
3793.58,-5.383363350483091e-07
3794.48,-5.128199940737067e-07
3795.38,-4.859911257207818e-07
3796.28,-4.564431430845476e-07
3797.18,-4.3504202820396316e-07
3798.08,-4.2009267178047934e-07
3798.98,-4.205259361047705e-07
3799.88,-4.3597258737897204e-07
3800.78,-4.653193570126285e-07
3801.68,-5.058278022059359e-07
3802.58,-5.449563825673153e-07
3803.48,-5.821937146524648e-07
3804.38,-6.138271390708211e-07
3805.28,-6.349099849412705e-07
3806.18,-6.465938902436107e-07
3807.08,-6.636242923310925e-07
3807.98,-6.736965960304246e-07
3808.88,-6.891089715257454e-07
3809.78,-6.999610529081788e-07
3810.68,-7.106721615138352e-07
3811.58,-7.127223102825443e-07
3812.48,-7.049360718230664e-07
3813.38,-6.886068865339728e-07
3814.28,-6.688254758952537e-07
3815.18,-6.567020956283004e-07
3816.08,-6.493036840407214e-07
3816.98,-6.530809102567377e-07
3817.88,-6.567220512606375e-07
3818.78,-6.63265079852414e-07
3819.68,-6.620427208493811e-07
3820.58,-6.577789075248297e-07
3821.48,-6.486183647832298e-07
3822.38,-6.448999838697721e-07
3823.28,-6.323934789497317e-07
3824.18,-6.205456372187639e-07
3825.09,-6.02887790049833e-07
3825.99,-5.844901271745114e-07
3826.89,-5.690503551494769e-07
3827.79,-5.568017247424626e-07
3828.69,-5.448471156426097e-07
3829.59,-5.336189575152331e-07
3830.49,-5.173976136226342e-07
3831.39,-4.967833415957454e-07
3832.29,-4.7259566459332866e-07
3833.19,-4.451317114623272e-07
3834.09,-4.1730105651263337e-07
3834.99,-3.98837438027367e-07
3835.89,-3.8987467490479196e-07
3836.79,-3.925220053728092e-07
3837.69,-4.06555437563962e-07
3838.59,-4.280091332324657e-07
3839.49,-4.544513156511188e-07
3840.39,-4.89344209751113e-07
3841.29,-5.245918305664973e-07
3842.19,-5.608138500314915e-07
3843.09,-5.958343854664402e-07
3843.99,-6.241555399014225e-07
3844.89,-6.524794059667535e-07
3845.79,-6.750792246433153e-07
3846.69,-6.919663223478911e-07
3847.59,-7.075044854659358e-07
3848.49,-7.250359605186246e-07
3849.39,-7.361824087449125e-07
3850.29,-7.413802705870731e-07
3851.19,-7.544953713425895e-07
3852.09,-7.625169686462706e-07
3852.99,-7.695322432547922e-07
3853.89,-7.735661347941195e-07
3854.79,-7.735257266502449e-07
3855.69,-7.688070269175956e-07
3856.59,-7.597844792746318e-07
3857.49,-7.540465170237565e-07
3858.39,-7.471507889941504e-07
3859.29,-7.448413234496075e-07
3860.19,-7.41571823762611e-07
3861.09,-7.519274518078727e-07
3861.99,-7.663958563703784e-07
3862.9,-7.815108753323844e-07
3863.8,-7.93195853956896e-07
3864.7,-8.077695847374465e-07
3865.6,-8.079119448944314e-07
3866.5,-8.111246645886908e-07
3867.4,-8.104604459378911e-07
3868.3,-8.068533398440143e-07
3869.2,-8.045830974709885e-07
3870.1,-7.961358463567865e-07
3871.0,-7.820588095775818e-07
3871.9,-7.716996274067049e-07
3872.8,-7.619425901195444e-07
3873.7,-7.598952689241512e-07
3874.6,-7.609785534513141e-07
3875.5,-7.637807229803493e-07
3876.4,-7.630274719079904e-07
3877.3,-7.569767958725557e-07
3878.2,-7.497949925281777e-07
3879.1,-7.381096659811215e-07
3880.0,-7.307142325996792e-07
3880.9,-7.219829164684725e-07
3881.8,-7.13914489752678e-07
3882.7,-6.973653390598486e-07
3883.6,-6.810986064598426e-07
3884.5,-6.54756275898347e-07
3885.4,-6.226930928763984e-07
3886.3,-5.841839027914333e-07
3887.2,-5.494357323725166e-07
3888.1,-5.175143478361975e-07
3889.0,-5.003152135068724e-07
3889.9,-4.994739468297915e-07
3890.8,-5.174514005988611e-07
3891.7,-5.454105003419049e-07
3892.6,-5.845490355029525e-07
3893.5,-6.21544233913683e-07
3894.4,-6.562207005541574e-07
3895.3,-6.870007121923871e-07
3896.2,-7.069972738566511e-07
3897.1,-7.30144580448394e-07
3898.0,-7.480147628503099e-07
3898.9,-7.62865648385352e-07
3899.8,-7.746526626490945e-07
3900.7,-7.893828001021158e-07
3901.6,-7.972503366555977e-07
3902.51,-8.062815846967936e-07
3903.41,-8.112512875001118e-07
3904.31,-8.101172871963914e-07
3905.21,-8.058337207052632e-07
3906.11,-8.063913038684566e-07
3907.01,-8.192562625070246e-07
3907.91,-8.392588603013661e-07
3908.81,-8.639641069675026e-07
3909.71,-8.870593008989748e-07
3910.61,-9.076394503556728e-07
3911.51,-9.328973523502111e-07
3912.41,-9.338362554974799e-07
3913.31,-9.343466398784138e-07
3914.21,-9.340827998771972e-07
3915.11,-9.266672000099068e-07
3916.01,-9.204403465973166e-07
3916.91,-9.104845114787295e-07
3917.81,-9.01022620773567e-07
3918.71,-8.879882968861475e-07
3919.61,-8.800348139040951e-07
3920.51,-8.698054929160417e-07
3921.41,-8.65813884364395e-07
3922.31,-8.645687376653072e-07
3923.21,-8.650872528121584e-07
3924.11,-8.625024641436174e-07
3925.01,-8.51557550960909e-07
3925.91,-8.289280612980784e-07
3926.81,-7.948608617920968e-07
3927.71,-7.480010695565859e-07
3928.61,-6.894167142168923e-07
3929.51,-6.230171488394854e-07
3930.41,-5.548579552577489e-07
3931.31,-4.85364322718417e-07
3932.21,-4.196251078733792e-07
3933.11,-3.702616507174625e-07
3934.01,-3.418026294180671e-07
3934.91,-3.3773704713324775e-07
3935.81,-3.6128714200767606e-07
3936.71,-4.079069281524169e-07
3937.61,-4.6986869850254497e-07
3938.51,-5.414424914635291e-07
3939.42,-6.112293248864589e-07
3940.32,-6.704953394484653e-07
3941.22,-7.213857611816837e-07
3942.12,-7.585216759845285e-07
3943.02,-7.865021039916213e-07
3943.92,-8.059294313222613e-07
3944.82,-8.243181973909314e-07
3945.72,-8.427412461738449e-07
3946.62,-8.631928400649781e-07
3947.52,-8.769023926081642e-07
3948.42,-8.870421155353847e-07
3949.32,-8.984853909703885e-07
3950.22,-9.098378319705299e-07
3951.12,-9.16625743031779e-07
3952.02,-9.222527146456387e-07
3952.92,-9.247215975013941e-07
3953.82,-9.282837250871612e-07
3954.72,-9.284027284728752e-07
3955.62,-9.261571411156791e-07
3956.52,-9.155307579929188e-07
3957.42,-9.111933354858878e-07
3958.32,-9.036325844153736e-07
3959.22,-8.86688690209936e-07
3960.12,-8.672516221410985e-07
3961.02,-8.424369557259772e-07
3961.92,-8.039644116513477e-07
3962.82,-7.515734942229789e-07
3963.72,-7.003326613910341e-07
3964.62,-6.406303656554832e-07
3965.52,-5.813634552704413e-07
3966.42,-5.145549058637528e-07
3967.32,-4.537256310674277e-07
3968.22,-4.0297519374731944e-07
3969.12,-3.686540086159951e-07
3970.02,-3.5835734253051524e-07
3970.92,-3.7339744788722297e-07
3971.82,-4.086353894522219e-07
3972.72,-4.622746561775549e-07
3973.62,-5.255153202988006e-07
3974.52,-5.878548635683696e-07
3975.42,-6.530429649487286e-07
3976.32,-7.105830966332047e-07
3977.22,-7.700775277464309e-07
3978.13,-8.176668538295959e-07
3979.03,-8.652195466044272e-07
3979.93,-9.07081671007196e-07
3980.83,-9.396210322225964e-07
3981.73,-9.639052134899543e-07
3982.63,-9.76576204696392e-07
3983.53,-9.861620317425542e-07
3984.43,-9.963370010145761e-07
3985.33,-1.0052108860437315e-06
3986.23,-1.0164734553575035e-06
3987.13,-1.0276673626253827e-06
3988.03,-1.0516122256209956e-06
3988.93,-1.0639195336443559e-06
3989.83,-1.0817767427337894e-06
3990.73,-1.0945294422511437e-06
3991.63,-1.1077890176333865e-06
3992.53,-1.1165891363368034e-06
3993.43,-1.1242614792254506e-06
3994.33,-1.1337708867940202e-06
3995.23,-1.1272884153179527e-06
3996.13,-1.1218448927386604e-06
3997.03,-1.1175402643559197e-06
3997.93,-1.1180358855705197e-06
3998.83,-1.1313470944177863e-06
3999.73,-1.1444000076065805e-06
4000.63,-1.1623131047863923e-06
4001.53,-1.1773671962015656e-06
4002.43,-1.1863563773567663e-06
4003.33,-1.188482809028607e-06
4004.23,-1.1733352538103506e-06
4005.13,-1.160967651149348e-06
4006.03,-1.151779454656414e-06
4006.93,-1.1487050268180834e-06
4007.83,-1.1506938588616466e-06
4008.73,-1.1672375902543524e-06
4009.63,-1.186753794742165e-06
4010.53,-1.201421366739463e-06
4011.43,-1.2107323507022229e-06
4012.33,-1.2226162985296635e-06
4013.23,-1.2253897853634187e-06
4014.13,-1.2274799454599333e-06
4015.03,-1.2359762500525801e-06
4015.93,-1.2397581130357716e-06
4016.84,-1.247119413771271e-06
4017.74,-1.2589292291708863e-06
4018.64,-1.2625507615024093e-06
4019.54,-1.280649156243214e-06
4020.44,-1.287280014750048e-06
4021.34,-1.290150327541518e-06
4022.24,-1.2908377713544463e-06
4023.14,-1.2839562656154458e-06
4024.04,-1.280546359315089e-06
4024.94,-1.2730331830603872e-06
4025.84,-1.2765956312687787e-06
4026.74,-1.28086588202125e-06
4027.64,-1.2813372512840422e-06
4028.54,-1.2843164709394357e-06
4029.44,-1.2645991581549973e-06
4030.34,-1.2348747670786121e-06
4031.24,-1.2069890387538251e-06
4032.14,-1.1790332154060684e-06
4033.04,-1.1629189841418703e-06
4033.94,-1.160004104998636e-06
4034.84,-1.180760621659745e-06
4035.74,-1.2112936763400512e-06
4036.64,-1.245146781387069e-06
4037.54,-1.284261943525434e-06
4038.44,-1.3107599937867132e-06
4039.34,-1.3294815627980534e-06
4040.24,-1.334484873365299e-06
4041.14,-1.3308227385009905e-06
4042.04,-1.3180542812834253e-06
4042.94,-1.2978853289463808e-06
4043.84,-1.2728498027529193e-06
4044.74,-1.2468276949041862e-06
4045.64,-1.2225884515652824e-06
4046.54,-1.210833182146748e-06
4047.44,-1.2200507868524946e-06
4048.34,-1.2418660762491402e-06
4049.24,-1.2728165025404617e-06
4050.14,-1.2966081321883764e-06
4051.04,-1.3113518745269025e-06
4051.94,-1.3138025992027477e-06
4052.84,-1.304951867906868e-06
4053.74,-1.289327221380237e-06
4054.65,-1.2694165311647051e-06
4055.55,-1.2537057521523262e-06
4056.45,-1.2373290663438551e-06
4057.35,-1.231034080032902e-06
4058.25,-1.224930975057384e-06
4059.15,-1.2346100567375244e-06
4060.05,-1.2468258171281508e-06
4060.95,-1.2488962621363717e-06
4061.85,-1.2522305236715247e-06
4062.75,-1.2457927653190723e-06
4063.65,-1.2327049504650755e-06
4064.55,-1.2282266592611125e-06
4065.45,-1.2222581721271854e-06
4066.35,-1.2321240010316455e-06
4067.25,-1.2394735789892682e-06
4068.15,-1.2539374604015151e-06
4069.05,-1.2680115017260678e-06
4069.95,-1.2751099693639236e-06
4070.85,-1.2739308415581517e-06
4071.75,-1.2768992043113677e-06
4072.65,-1.2677216694025248e-06
4073.55,-1.2657771231869045e-06
4074.45,-1.2506824616041337e-06
4075.35,-1.2330878237967631e-06
4076.25,-1.2174832057847673e-06
4077.15,-1.198942191611904e-06
4078.05,-1.1819643599318223e-06
4078.95,-1.1865555645580168e-06
4079.85,-1.201707485776268e-06
4080.75,-1.2264894554660032e-06
4081.65,-1.2560806311532794e-06
4082.55,-1.2803409136567562e-06
4083.45,-1.2894041554126506e-06
4084.35,-1.2909050637832955e-06
4085.25,-1.288286292377976e-06
4086.15,-1.287831461875832e-06
4087.05,-1.2978129380655453e-06
4087.95,-1.3023739514556614e-06
4088.85,-1.3142485481280193e-06
4089.75,-1.3130534143738994e-06
4090.65,-1.3168807475203054e-06
4091.55,-1.3107586673535078e-06
4092.45,-1.2882954459129202e-06
4093.36,-1.2714961980217857e-06
4094.26,-1.2411257487474228e-06
4095.16,-1.2064987487545684e-06
4096.06,-1.1652870281107447e-06
4096.96,-1.1201119107135972e-06
4097.86,-1.0731884411613975e-06
4098.76,-1.021725021597809e-06
4099.66,-9.674753539375735e-07
4100.56,-9.179303772075829e-07
4101.46,-8.800861151090953e-07
4102.36,-8.553641655998871e-07
4103.26,-8.5387933029281e-07
4104.16,-8.854184695830268e-07
4105.06,-9.300921038201113e-07
4105.96,-9.82177917140224e-07
4106.86,-1.0444310513146827e-06
4107.76,-1.0918646745364114e-06
4108.66,-1.1344855881103581e-06
4109.56,-1.1673274521722961e-06
4110.46,-1.1900274352353317e-06
4111.36,-1.2131204798495452e-06
4112.26,-1.2364953604839042e-06
4113.16,-1.2628594233082456e-06
4114.06,-1.2901915347907725e-06
4114.96,-1.3139732751972265e-06
4115.86,-1.3356626237915212e-06
4116.76,-1.3501515421786911e-06
4117.66,-1.3566183978436948e-06
4118.56,-1.3552600525520585e-06
4119.46,-1.3470707645458738e-06
4120.36,-1.3440988133881404e-06
4121.26,-1.3421441070500984e-06
4122.16,-1.3486331282685897e-06
4123.06,-1.348962549764024e-06
4123.96,-1.3537559038261344e-06
4124.86,-1.3633739756370705e-06
4125.76,-1.3685385101793824e-06
4126.66,-1.367623764745389e-06
4127.56,-1.3614121154257774e-06
4128.46,-1.3535701207294265e-06
4129.36,-1.3507820905044252e-06
4130.26,-1.3448668161347546e-06
4131.17,-1.3372189616787986e-06
4132.06,-1.330207181725318e-06
4132.97,-1.330633469741012e-06
4133.87,-1.3413720414896887e-06
4134.77,-1.355855542799076e-06
4135.67,-1.3772404169360915e-06
4136.57,-1.406601575832557e-06
4137.47,-1.44280250074402e-06
4138.37,-1.4632054577887664e-06
4139.27,-1.4869334617036072e-06
4140.17,-1.4954942571651781e-06
4141.07,-1.4836702798803088e-06
4141.97,-1.473458213153824e-06
4142.87,-1.4435849110333875e-06
4143.77,-1.4224624824954018e-06
4144.67,-1.4153103814981093e-06
4145.57,-1.411206638196107e-06
4146.47,-1.4202067908092792e-06
4147.37,-1.4305294361390034e-06
4148.27,-1.4393364480342544e-06
4149.17,-1.4442497197425702e-06
4150.07,-1.4397911670282227e-06
4150.97,-1.4381733973165136e-06
4151.87,-1.4296437320888134e-06
4152.77,-1.42824364085549e-06
4153.67,-1.4224214170654397e-06
4154.57,-1.4073792749448028e-06
4155.47,-1.4001955232549816e-06
4156.37,-1.4014993814198035e-06
4157.27,-1.4094036362033943e-06
4158.17,-1.422612053481208e-06
4159.07,-1.4315220152137618e-06
4159.97,-1.4506901754178547e-06
4160.87,-1.4749702529386393e-06
4161.77,-1.4907373699578072e-06
4162.67,-1.5131923308173359e-06
4163.57,-1.5235971665445179e-06
4164.47,-1.5388749680220606e-06
4165.37,-1.531373325822607e-06
4166.27,-1.5302910304770484e-06
4167.17,-1.5211734585271302e-06
4168.07,-1.5056954332559627e-06
4168.98,-1.49922406697163e-06
4169.88,-1.4857505987472772e-06
4170.78,-1.4622121560561613e-06
4171.68,-1.4344480547079415e-06
4172.58,-1.4138451360027011e-06
4173.48,-1.3933103752547995e-06
4174.38,-1.378252886489858e-06
4175.28,-1.3731248132978017e-06
4176.18,-1.3772249154944855e-06
4177.08,-1.3879972893017516e-06
4177.98,-1.396571421421581e-06
4178.88,-1.4055368534556826e-06
4179.78,-1.428892881452281e-06
4180.68,-1.4308491808955796e-06
4181.58,-1.4537971447788264e-06
4182.48,-1.4632477572795005e-06
4183.38,-1.4755844697178075e-06
4184.28,-1.4822160463008106e-06
4185.18,-1.4943552799465052e-06
4186.08,-1.5031489621780648e-06
4186.98,-1.5059559579483e-06
4187.88,-1.513906011120113e-06
4188.78,-1.5148479614459028e-06
4189.68,-1.5292333102961325e-06
4190.58,-1.5400055390000506e-06
4191.48,-1.5591167259547228e-06
4192.38,-1.5791578914000635e-06
4193.28,-1.580937527246611e-06
4194.18,-1.58663946211956e-06
4195.08,-1.5776674045883947e-06
4195.98,-1.5606835263383123e-06
4196.88,-1.5324835327424114e-06
4197.78,-1.5078946411974874e-06
4198.68,-1.4878217635829999e-06
4199.58,-1.475340694865923e-06
4200.48,-1.470736067361351e-06
4201.38,-1.4771045334417531e-06
4202.28,-1.4836153906510604e-06
4203.18,-1.5014125626756976e-06
4204.08,-1.5156626905036447e-06
4204.98,-1.537652568179651e-06
4205.88,-1.559182892801448e-06
4206.79,-1.5819482144795206e-06
4207.69,-1.6043611139463737e-06
4208.59,-1.6125016482157188e-06
4209.49,-1.6187223375639066e-06
4210.39,-1.6311689592976473e-06
4211.29,-1.6388509953205356e-06
4212.19,-1.638635859542356e-06
4213.09,-1.634780213735752e-06
4213.99,-1.6315628242692216e-06
4214.89,-1.6153092685975116e-06
4215.79,-1.6111409490375838e-06
4216.69,-1.6022582707581709e-06
4217.59,-1.6197645827265016e-06
4218.49,-1.6429442271062234e-06
4219.39,-1.6560868998927635e-06
4220.29,-1.6795007020177483e-06
4221.19,-1.6874627615225688e-06
4222.09,-1.6891257745634852e-06
4222.99,-1.665751834150076e-06
4223.89,-1.6222577287111886e-06
4224.79,-1.5799696837275513e-06
4225.69,-1.529102510538625e-06
4226.59,-1.486446644323482e-06
4227.49,-1.4679513705084897e-06
4228.39,-1.4856643940764437e-06
4229.29,-1.5209758116402728e-06
4230.19,-1.5708915267183689e-06
4231.09,-1.6220017093993526e-06
4231.99,-1.6566879014487028e-06
4232.89,-1.6704743048543472e-06
4233.79,-1.66863334567858e-06
4234.69,-1.6582074607744607e-06
4235.59,-1.6490941821055436e-06
4236.49,-1.6328328404676996e-06
4237.39,-1.629040353855896e-06
4238.29,-1.6222717170836184e-06
4239.19,-1.642868852723478e-06
4240.09,-1.6560880673913291e-06
4240.99,-1.6673106767859997e-06
4241.89,-1.6884469429407172e-06
4242.79,-1.7172302682157242e-06
4243.69,-1.7360381938653063e-06
4244.59,-1.7457832748591986e-06
4245.5,-1.7553046156481518e-06
4246.4,-1.734559604427363e-06
4247.3,-1.728499969367502e-06
4248.2,-1.7075241601388475e-06
4249.1,-1.6870385544251068e-06
4250.0,-1.6803376735516323e-06
4250.9,-1.6789683462360576e-06
4251.8,-1.673059091000265e-06
4252.7,-1.688318585548329e-06
4253.6,-1.703753490797406e-06
4254.5,-1.7160539856929128e-06
4255.4,-1.7242408783249775e-06
4256.3,-1.7331383459048381e-06
4257.2,-1.7276550177531937e-06
4258.1,-1.7290879135048445e-06
4259.0,-1.7201090602111745e-06
4259.9,-1.7081847672899471e-06
4260.8,-1.6992893449009636e-06
4261.7,-1.7097432605568843e-06
4262.6,-1.7352960236519416e-06
4263.5,-1.7662242130845127e-06
4264.4,-1.787015720642432e-06
4265.3,-1.8297185044513369e-06
4266.2,-1.849941682084408e-06
4267.1,-1.8480179131881038e-06
4268.0,-1.835113818924492e-06
4268.9,-1.8009032646228997e-06
4269.8,-1.7571500863555743e-06
4270.7,-1.71158449522741e-06
4271.6,-1.677351334737343e-06
4272.5,-1.6427424581266401e-06
4273.4,-1.6375324207845076e-06
4274.3,-1.6430966025781541e-06
4275.2,-1.6576294802986209e-06
