wave,flux
3700.85,-0.00643051444434191
3701.75,-0.0064059085211743095
3702.65,-0.006343115667289572
3703.55,-0.006147961531107324
3704.45,-0.005949316547189435
3705.35,-0.005780370244681207
3706.25,-0.005691344640134425
3707.15,-0.005725699160399146
3708.05,-0.005859960889358696
3708.96,-0.005994818478993802
3709.86,-0.006199305143340932
3710.76,-0.006425823156767297
3711.66,-0.0067432250054873435
3712.56,-0.007066209675380411
3713.46,-0.007453274492097975
3714.36,-0.007834332143725996
3715.26,-0.008113568220761341
3716.16,-0.008358005181920968
3717.06,-0.008415411772113194
3717.96,-0.008277968492897405
3718.86,-0.007987531737143682
3719.76,-0.007627602797713594
3720.66,-0.00721321749672711
3721.56,-0.006963483464761141
3722.46,-0.006928922792196475
3723.36,-0.007163624626189945
3724.26,-0.007675406103727825
3725.16,-0.008236118129790216
3726.06,-0.008751730330775346
3726.96,-0.009166021423881445
3727.86,-0.009451143062652325
3728.76,-0.009612427159534752
3729.66,-0.009712037089703708
3730.56,-0.009699769685392316
3731.46,-0.009484842395817955
3732.36,-0.009141516206652829
3733.26,-0.008615548437679714
3734.16,-0.008165967722505723
3735.06,-0.007817730597798658
3735.96,-0.007758512168762024
3736.86,-0.008007129479965593
3737.76,-0.008575150409266935
3738.66,-0.009401872218510535
3739.56,-0.01029945699120789
3740.46,-0.011045590788131741
3741.36,-0.011722181315969867
3742.26,-0.01205655189139718
3743.16,-0.012093734214596471
3744.06,-0.011978920896821402
3744.96,-0.011637303314064887
3745.86,-0.011310404090410934
3746.76,-0.010928696474960127
3747.67,-0.010476136397070668
3748.57,-0.010177233129970596
3749.47,-0.010050746384092004
3750.37,-0.010236290695208124
3751.27,-0.010824968938140087
3752.17,-0.01179203242464492
3753.07,-0.013011065015889996
3753.97,-0.01417736199760945
3754.87,-0.015386392472576504
3755.77,-0.016095254939011126
3756.67,-0.016412414135850796
3757.57,-0.016366011015425543
3758.47,-0.01621580472391937
3759.37,-0.016060120745876552
3760.27,-0.0161594637357905
3761.17,-0.01654085777605899
3762.07,-0.016955061020517807
3762.97,-0.017528581912462513
3763.87,-0.01813156865338667
3764.77,-0.018479131575914253
3765.67,-0.018725749447648432
3766.57,-0.01878686780726507
3767.47,-0.018682788003590408
3768.37,-0.018647766735635146
3769.27,-0.018500216951200948
3770.17,-0.018516535105678262
3771.07,-0.018858556415235702
3771.97,-0.019385987934944164
3772.87,-0.02039625711360034
3773.77,-0.021572000290018597
3774.67,-0.022585088482601774
3775.57,-0.023775000017594545
3776.47,-0.024925157060782018
3777.37,-0.025838509291439958
3778.27,-0.026840930548464807
3779.17,-0.02791637213005825
3780.07,-0.029106744629578785
3780.97,-0.030109612404345645
3781.87,-0.03131437291107169
3782.77,-0.03205396684910961
3783.67,-0.03245406982575709
3784.57,-0.03270639358062123
3785.47,-0.03264260499112792
3786.38,-0.03243825110982095
3787.28,-0.0320553629338131
3788.18,-0.03163638962595993
3789.08,-0.031633122555254786
3789.98,-0.0316750418263397
3790.88,-0.03199638137649047
3791.78,-0.03211904021378031
3792.68,-0.032320475190889764
3793.58,-0.032018714308379125
3794.48,-0.03168128135922114
3795.38,-0.03099001732836744
3796.28,-0.030117199816133856
3797.18,-0.029401447164846377
3798.08,-0.0291176623876253
3798.98,-0.029509352337259542
3799.88,-0.03114026209092869
3800.78,-0.033258655237904854
3801.68,-0.03636322814607011
3802.58,-0.039673704284350575
3803.48,-0.04269516993565563
3804.38,-0.04543275433898749
3805.28,-0.0474009320610572
3806.18,-0.04884697705674107
3807.08,-0.05013215611828744
3807.98,-0.051403698050011735
3808.88,-0.052749001895466115
3809.78,-0.05439888376621834
3810.68,-0.05572108266634276
3811.58,-0.056776911587161166
3812.48,-0.0570100305200279
3813.38,-0.05667387419846601
3814.28,-0.05638688163936459
3815.18,-0.05589855479886326
3816.08,-0.056227183480234665
3816.98,-0.056822747378180355
3817.88,-0.05811618599184702
3818.78,-0.05933095790293285
3819.68,-0.06000696502875945
3820.58,-0.06070658757098205
3821.48,-0.06122506712701264
3822.38,-0.062004971569171945
3823.28,-0.06259853829829336
3824.18,-0.06270554636488654
3825.09,-0.06242665489043329
3825.99,-0.06232428081971165
3826.89,-0.06200541774523388
3827.79,-0.062098331354185514
3828.69,-0.06250565172739193
3829.59,-0.06295517663916438
3830.49,-0.06310844294828481
3831.39,-0.06247280738666301
3832.29,-0.061118614891142814
3833.19,-0.05962526910985097
3834.09,-0.05822911434851859
3834.99,-0.05735234408797945
3835.89,-0.057769297451043956
3836.79,-0.05905990023365038
3837.69,-0.061540701070792785
3838.59,-0.0651065143998769
3839.49,-0.06939944685039155
3840.39,-0.07508948014432597
3841.29,-0.08199507589732812
3842.19,-0.08957910064785689
3843.09,-0.09765393528700382
3843.99,-0.10544477572485396
3844.89,-0.11290244799810577
3845.79,-0.11936402083762063
3846.69,-0.12528383727544248
3847.59,-0.12989322235945944
3848.49,-0.13460819666247018
3849.39,-0.1388831448626744
3850.29,-0.14212706942433107
3851.19,-0.14709514789132483
3852.09,-0.15219370844564822
3852.99,-0.15582461374462303
3853.89,-0.1604241556388885
3854.79,-0.1641392970946844
3855.69,-0.1673124482954546
3856.59,-0.16772802400763756
3857.49,-0.16979353950240228
3858.39,-0.17074074160579641
3859.29,-0.1726862582007078
3860.19,-0.17764447851711943
3861.09,-0.18438741456544616
3861.99,-0.19445912410104008
3862.9,-0.20536974895954838
3863.8,-0.21631360859182308
3864.7,-0.22734398337796138
3865.6,-0.23668617209044449
3866.5,-0.2446441975301335
3867.4,-0.25184628921433294
3868.3,-0.25758462746721444
3869.2,-0.26232704931597195
3870.1,-0.2667953225145746
3871.0,-0.27052582277422166
3871.9,-0.27316529217441293
3872.8,-0.27658101912671923
3873.7,-0.2829620594396345
3874.6,-0.2930966280173439
3875.5,-0.3055844213046071
3876.4,-0.3154752176732347
3877.3,-0.3269252130172115
3878.2,-0.3352947072455544
3879.1,-0.34555110277427487
3880.0,-0.3540674811448174
3880.9,-0.36631509481081476
3881.8,-0.38023684558932114
3882.7,-0.39044851354633675
3883.6,-0.40205284241760486
3884.5,-0.40675720903097473
3885.4,-0.4109234637816404
3886.3,-0.40884084898517187
3887.2,-0.40654247931683424
3888.1,-0.40804227328012566
3889.0,-0.4164200735524012
3889.9,-0.43437675641214374
3890.8,-0.46814264447279924
3891.7,-0.512906941561589
3892.6,-0.5643291253844378
3893.5,-0.6214903249189996
3894.4,-0.6804274364494082
3895.3,-0.7322101083645426
3896.2,-0.7963985325514595
3897.1,-0.8569049048725961
3898.0,-0.925601656651646
3898.9,-0.9972643359950502
3899.8,-1.0706778559009986
3900.7,-1.155357385424087
3901.6,-1.2447034587127577
3902.51,-1.3496291463894234
3903.41,-1.450119371150111
3904.31,-1.5660415711110383
3905.21,-1.706374795233152
3906.11,-1.8701102112985473
3907.01,-2.0917951201034777
3907.91,-2.3623111154798857
3908.81,-2.72558058458953
3909.71,-3.212121794967705
3910.61,-3.829879871673022
3911.51,-4.624416025339872
3912.41,-5.766870104215136
3913.31,-7.395442391334756
3914.21,-10.296929724080917
3915.11,-16.592193178606845
3916.01,-42.396914748390714
3916.91,77.73868586081245
3917.81,20.18740199327967
3918.71,11.54814531416377
3919.61,8.03795211412879
3920.51,6.176822824395459
3921.41,5.051960475934383
3922.31,4.250904603520769
3923.21,3.6849749694570093
3924.11,3.2465091883039987
3925.01,2.884502200084058
3925.91,2.5633328330290857
3926.81,2.2629375703733197
3927.71,1.9809842899417256
3928.61,1.7048456725267283
3929.51,1.4525426344788586
3930.41,1.2144928044196592
3931.31,1.0101297514625251
3932.21,0.833022151998679
3933.11,0.6965997300574114
3934.01,0.6130656905687195
3934.91,0.5812801278103177
3935.81,0.5969883156474313
3936.71,0.6497491518421433
3937.61,0.7272744504260198
3938.51,0.8173223772360011
3939.42,0.9049615902683907
3940.32,0.9808026096848539
3941.22,1.0326726771638879
3942.12,1.0636641740805322
3943.02,1.081611113177989
3943.92,1.0932715840536833
3944.82,1.1024727586422827
3945.72,1.1084309598481539
3946.62,1.1177056170168276
3947.52,1.124916924279172
3948.42,1.1223766540329623
3949.32,1.1215166003284498
3950.22,1.1200904106410097
3951.12,1.110825546559931
3952.02,1.1046109009155363
3952.92,1.094290904241587
3953.82,1.0866569109970599
3954.72,1.07535429688881
3955.62,1.0606425152200794
3956.52,1.037819703983398
3957.42,1.022883595855646
3958.32,0.9975894719694666
3959.22,0.9747153561469182
3960.12,0.9411664138984533
3961.02,0.8987521302380205
3961.92,0.8489568780034019
3962.82,0.7863451239255888
3963.72,0.726429970486695
3964.62,0.661105214227973
3965.52,0.5892063807817352
3966.42,0.5177420570775897
3967.32,0.4496677605384723
3968.22,0.3917742967824889
3969.12,0.3582654724591322
3970.02,0.3471684065483103
3970.92,0.36186934680035615
3971.82,0.3989562805548837
3972.72,0.4553771875373541
3973.62,0.5177184966684077
3974.52,0.5849650509742956
3975.42,0.6458676200262564
3976.32,0.7033797498693956
3977.22,0.7555969840559584
3978.13,0.800640375792851
3979.03,0.8344410123249085
3979.93,0.8668536505070455
3980.83,0.8896845015201977
3981.73,0.9034065091214779
3982.63,0.9069827159906486
3983.53,0.9145830971651234
3984.43,0.9154433944154388
3985.33,0.9231307005380953
3986.23,0.9320395195730536
3987.13,0.9396349550620858
3988.03,0.9474626454132032
3988.93,0.9514385432850535
3989.83,0.9600045836443512
3990.73,0.9710555165593782
3991.63,0.9722498072494912
3992.53,0.9827989356520287
3993.43,0.981390932319076
3994.33,0.9839041304592999
3995.23,0.9721138745342703
3996.13,0.9612519360263954
3997.03,0.9520665716632548
3997.93,0.947390675011581
3998.83,0.9485059651992683
3999.73,0.9587454168666139
4000.63,0.9690035000675232
4001.53,0.9834408672413967
4002.43,0.986984290057826
4003.33,0.9896503752878117
4004.23,0.9794908496513848
4005.13,0.9665686099052838
4006.03,0.9567461398743664
4006.93,0.9546147085489789
4007.83,0.9567069885727782
4008.73,0.9653302344960443
4009.63,0.9791573062868373
4010.53,0.9890566233582162
4011.43,0.9979990598465056
4012.33,1.0045482230267995
4013.23,1.009810509074028
4014.13,1.0100350981904282
4015.03,1.0149431408483154
4015.93,1.0156795973449468
4016.84,1.0172278478468029
4017.74,1.0179610863445847
4018.64,1.0197417750398636
4019.54,1.0186947094633971
4020.44,1.0290186496782434
4021.34,1.0293076396796847
4022.24,1.027002473166008
4023.14,1.0250148794852623
4024.04,1.0260471268822409
4024.94,1.027487438367881
4025.84,1.030384352013186
4026.74,1.0369644482758342
4027.64,1.0418442329492204
4028.54,1.0378611346142415
4029.44,1.02846831874765
4030.34,1.0106781110048904
4031.24,0.9875524014188044
4032.14,0.9729141655431143
4033.04,0.9675819288967482
4033.94,0.9618581035649422
4034.84,0.9738331137310059
4035.74,0.9897987798978634
4036.64,1.014283321008315
4037.54,1.0354342982640414
4038.44,1.0574116968454914
4039.34,1.0640013927324086
4040.24,1.0654552239423036
4041.14,1.0661225307313618
4042.04,1.0488598703553638
4042.94,1.0307963021654765
4043.84,1.0125049989845212
4044.74,0.9891740813362657
4045.64,0.971453776250334
4046.54,0.9592260325889153
4047.44,0.9684851325031993
4048.34,0.9828320937843359
4049.24,1.0042971442688549
4050.14,1.0253721867665122
4051.04,1.0416287391746704
4051.94,1.044845768333698
4052.84,1.0472647203652614
4053.74,1.038998387689244
4054.65,1.0248641274575314
4055.55,1.018327982107955
4056.45,1.0146009678973877
4057.35,1.0106795030088027
4058.25,1.0124840350108537
4059.15,1.0130023271457578
4060.05,1.0114430317279974
4060.95,1.0174658103790721
4061.85,1.0047345845714322
4062.75,0.99815639315162
4063.65,0.9850303085831972
4064.55,0.9713138286879452
4065.45,0.9704377939715564
4066.35,0.9790014243164714
4067.25,0.9818703431215309
4068.15,1.0027505952661473
4069.05,1.0078745291479658
4069.95,1.0152672450298224
4070.85,1.017904940421657
4071.75,1.0102570748993285
4072.65,1.0120178926490944
4073.55,1.0022492931765787
4074.45,0.9957203770234827
4075.35,0.9869624012758403
4076.25,0.9711134399532895
4077.15,0.9575042367008733
4078.05,0.9460126595520367
4078.95,0.9477862417562541
4079.85,0.9562609588262253
4080.75,0.9741350389272061
4081.65,0.99512107153276
4082.55,1.0052210877757732
4083.45,1.0165813771780434
4084.35,1.017851601944632
4085.25,1.0223263598725882
4086.15,1.0300350431288314
4087.05,1.040943799636475
4087.95,1.0520188119887925
4088.85,1.0622607502388883
4089.75,1.072517053106113
4090.65,1.0746392028782894
4091.55,1.0695709878596105
4092.45,1.0624059408014184
4093.36,1.05111552098302
4094.26,1.0360415340339462
4095.16,1.0175497215070048
4096.06,0.9901978593718421
4096.96,0.9642775885230105
4097.86,0.9311708361427089
4098.76,0.8990760100998526
4099.66,0.8564242023012049
4100.56,0.8224924098661788
4101.46,0.7900269550812101
4102.36,0.7746301335580097
4103.26,0.7722403282343058
4104.16,0.7908655911053153
4105.06,0.8209878262944353
4105.96,0.8593699331373847
4106.86,0.8957910871683031
4107.76,0.926550628818844
4108.66,0.9466276983588336
4109.56,0.9659329483063805
4110.46,0.9712658867988688
4111.36,0.9833242374652229
4112.26,0.9930865152967646
4113.16,1.0078552845341264
4114.06,1.0144717184436047
4114.96,1.0278338872428006
4115.86,1.0352428272094771
4116.76,1.037156612556934
4117.66,1.0400262096702868
4118.56,1.0333328350009956
4119.46,1.0274245214044901
4120.36,1.0253819045071029
4121.26,1.0181037754295887
4122.16,1.0168740329096744
4123.06,1.015855663379011
4123.96,1.0233564145186378
4124.86,1.0283122793853863
4125.76,1.0326077669754803
4126.66,1.0300662736510546
4127.56,1.0303929623039134
4128.46,1.023560894334983
4129.36,1.0156046562497376
4130.26,1.0059881565522197
4131.17,0.997479910236783
4132.06,0.98651776275406
4132.97,0.9816020482321385
4133.87,0.9793166755358078
4134.77,0.9825694672758455
4135.67,0.9953675550393959
4136.57,1.0141052314239805
4137.47,1.0307536532482546
4138.37,1.0405621194062733
4139.27,1.0516156339160219
4140.17,1.0548019160726008
4141.07,1.0470130110167815
4141.97,1.03116706626591
4142.87,1.0149234534453841
4143.77,0.9960587937986138
4144.67,0.9860710961702586
4145.57,0.9892481922376941
4146.47,0.9964848809158847
4147.37,1.0080749319324396
4148.27,1.0210864452913941
4149.17,1.02459998067222
4150.07,1.0232086773550335
4150.97,1.0223291886156034
4151.87,1.0181161927481954
4152.77,1.0145635800727186
4153.67,1.005555423033698
4154.57,1.0059812873304856
4155.47,1.0011005528830013
4156.37,0.9994762512784132
4157.27,1.0024065338998873
4158.17,1.017737049571104
4159.07,1.020737825575266
4159.97,1.0321229185126133
4160.87,1.042510176097755
4161.77,1.051397878015728
4162.67,1.0574321694541242
4163.57,1.0580511758907325
4164.47,1.0551719296840376
4165.37,1.0581086183311614
4166.27,1.0508881675637964
4167.17,1.0463909864472798
4168.07,1.038841600246345
4168.98,1.03074140931233
4169.88,1.0178847295345574
4170.78,1.006483453834859
4171.68,0.9917942186961808
4172.58,0.9763241352499872
4173.48,0.9592445988384884
4174.38,0.9540702840929727
4175.28,0.9512305366378077
4176.18,0.95578818955173
4177.08,0.9642396600346654
4177.98,0.975055130869905
4178.88,0.9816707014004501
4179.78,0.9925932140406557
4180.68,0.9977566958027283
4181.58,1.0023424082145116
4182.48,1.0043463288232621
4183.38,1.0060951631472337
4184.28,1.0084145532150608
4185.18,1.0106245427599674
4186.08,1.0049851200360798
4186.98,1.0070971274267724
4187.88,1.0054507713306016
4188.78,1.0003384668427782
4189.68,1.0024806777872473
4190.58,1.0104049677003928
4191.48,1.0174574796942122
4192.38,1.023284386858952
4193.28,1.0287972914033001
4194.18,1.0278088792536564
4195.08,1.0270058194715292
4195.98,1.0237946326282104
4196.88,1.0049923168987034
4197.78,0.9927979819723527
4198.68,0.9824366195631059
4199.58,0.9726107480532149
4200.48,0.9641176245679516
4201.38,0.9639529999971849
4202.28,0.9652733926591065
4203.18,0.9735425259757114
4204.08,0.9783075919753259
4204.98,0.9893772317890138
4205.88,0.9974172543231178
4206.79,1.0128035759897513
4207.69,1.0236792226470586
4208.59,1.034095552465022
4209.49,1.0410053253897527
4210.39,1.0430709730862595
4211.29,1.0487882148381902
4212.19,1.0447722566026663
4213.09,1.0430713487288468
4213.99,1.0353608065475857
4214.89,1.0233819334515382
4215.79,1.0176595527624879
4216.69,1.0160328437064285
4217.59,1.0148576312289717
4218.49,1.0213779612029044
4219.39,1.033166468334597
4220.29,1.0388485871002768
4221.19,1.0433494989708338
4222.09,1.0387337000810186
4222.99,1.0247163658516703
4223.89,0.9951594462539302
4224.79,0.9652259002365517
4225.69,0.9314897718426326
4226.59,0.9057450930306482
4227.49,0.9005514830350934
4228.39,0.9068985446201624
4229.29,0.9301704130741957
4230.19,0.9619729858096802
4231.09,0.9884914851048466
4231.99,1.0072678461484221
4232.89,1.0208347299146432
4233.79,1.022575983754672
4234.69,1.0173809873609037
4235.59,1.0075157670725414
4236.49,1.0035400911770622
4237.39,1.0005537021058237
4238.29,1.0026009637375064
4239.19,1.0057303691630908
4240.09,1.0136633163739082
4240.99,1.0242158828412418
4241.89,1.0351089958251956
4242.79,1.0370913996249553
4243.69,1.0464109406030422
4244.59,1.055436636920796
4245.5,1.0515121997482026
4246.4,1.0445401774131433
4247.3,1.035542383450002
4248.2,1.0256931067618595
4249.1,1.014748324742863
4250.0,1.0039739471064233
4250.9,1.0071844228816749
4251.8,1.0100344666141787
4252.7,1.014514148643268
4253.6,1.017728291649709
4254.5,1.026322797569393
4255.4,1.0261843384691902
4256.3,1.0316395338912405
4257.2,1.0306800014357287
4258.1,1.0310194955615526
4259.0,1.0256914983441474
4259.9,1.0231128490734225
4260.8,1.0188609127639028
4261.7,1.0190594839220541
4262.6,1.0308425596537953
4263.5,1.0420852577530815
4264.4,1.0564014507383677
4265.3,1.0760072841244837
4266.2,1.0786670591847527
4267.1,1.0784963166222887
4268.0,1.0745777865119368
4268.9,1.0540671055654351
4269.8,1.0312811424298447
4270.7,1.00968931189804
4271.6,0.9871916630430703
4272.5,0.9703079090108612
4273.4,0.9601112342708407
4274.3,0.9650574810762629
4275.2,0.9708535665217602
4276.1,0.9904097852761308
4277.0,1.0116808324981714
4277.9,1.026789502094795
4278.8,1.0399138220260142
4279.7,1.0452165037481935
4280.6,1.0440315910184403
4281.5,1.04017831314073
4282.4,1.0352431936317634
4283.31,1.0323794442858378
4284.21,1.0246967436841519
4285.11,1.019173036561894
4286.01,1.0028290701736498
4286.91,0.9954424996735206
4287.81,0.9780549972798683
4288.71,0.9646630704052283
4289.61,0.9545655213293988
4290.51,0.9479773805781333
4291.41,0.9514918595162422
4292.31,0.952515637944472
4293.21,0.9628179806887041
4294.11,0.9667046713674389
4295.01,0.9738309742215512
4295.91,0.9657948446412958
4296.81,0.9551078781379952
4297.71,0.9331767269463332
4298.61,0.906412031980522
4299.51,0.8805525576918661
4300.41,0.8565811675366355
4301.31,0.8372613561217891
4302.21,0.8275052766613705
4303.11,0.8237533604224119
4304.01,0.830058938564639
4304.91,0.8285572801478174
4305.81,0.8278111933792889
4306.71,0.8299714333350545
4307.61,0.8229428876245419
4308.51,0.8213663309077729
4309.41,0.8204233698185774
4310.31,0.8234889274161205
4311.21,0.8392158811957565
4312.11,0.8602031604685826
4313.01,0.8906239251067812
4313.91,0.9219437831685193
4314.81,0.9612454399230806
4315.71,1.0029747697396392
4316.61,1.0437553931377577
4317.51,1.0814411504314192
4318.41,1.1027632051159109
4319.31,1.1175641121960236
4320.21,1.1204878160321028
4321.12,1.1070366857550262
4322.02,1.086722586919354
4322.92,1.0600361449091502
4323.82,1.0313616038850029
4324.72,1.0042176376392546
4325.62,0.9833434557946125
4326.52,0.9740552962228677
4327.42,0.9842230843937457
4328.32,0.9991964592145687
4329.22,1.025592357482043
4330.12,1.047619314457142
4331.02,1.0624116138842905
4331.92,1.0752849107588003
4332.82,1.0748401972838495
4333.72,1.0755070473975508
4334.62,1.062787291019215
4335.52,1.0397752245287217
4336.42,1.0102594735696997
4337.32,0.9736426282825733
4338.22,0.9274759595916594
4339.12,0.8774873134094334
4340.02,0.8398354165079147
4340.92,0.8202677804503816
4341.82,0.81459941811042
4342.72,0.8275037243023984
4343.62,0.8596424200207976
4344.52,0.8986597750037942
4345.42,0.9415760530187037
4346.32,0.9713948741200699
4347.22,0.9992262160639483
4348.12,1.0190958052756345
4349.02,1.030629122134469
4349.92,1.0330869771573783
4350.82,1.0263396328266632
4351.72,1.0203385252508028
4352.62,1.009821896580779
4353.52,1.009555775895974
4354.42,1.0162128206937
4355.32,1.0268964304176924
