wave,flux
3700.85,-0.1956244611671717
3701.75,-0.201166214547813
3702.65,-0.20290193494387243
3703.55,-0.20111704004826111
3704.45,-0.198896379203616
3705.35,-0.19690186485917752
3706.25,-0.198545514443596
3707.15,-0.20476118737395813
3708.05,-0.21589585181135074
3708.96,-0.23136479415324127
3709.86,-0.25069585413400214
3710.76,-0.27535410386330544
3711.66,-0.3068288788303099
3712.56,-0.34130999035348425
3713.46,-0.37938584975202744
3714.36,-0.4201584960877357
3715.26,-0.4592743901996032
3716.16,-0.49193923973641684
3717.06,-0.5190085338245379
3717.96,-0.5375916815507339
3718.86,-0.5447436537718572
3719.76,-0.5520328378802056
3720.66,-0.5646268204734174
3721.56,-0.5944883551234205
3722.46,-0.6628978843350666
3723.36,-0.7815508851388621
3724.26,-0.9671715702991331
3725.16,-1.2158373332575652
3726.06,-1.5600456878316349
3726.96,-2.0479101609737747
3727.86,-2.8205738256592667
3728.76,-4.385794458878338
3729.66,-9.571487426590254
3730.56,56.00700733983381
3731.46,6.887115378593795
3732.36,3.5118947652556476
3733.26,2.252506089490032
3734.16,1.585950165510348
3735.06,1.209285319937547
3735.96,0.9870919722748799
3736.86,0.8644778697294183
3737.76,0.8103602382682651
3738.66,0.7895418318048968
3739.56,0.7835451077980752
3740.46,0.7691520306095707
3741.36,0.7462088002666235
3742.26,0.7095240391226106
3743.16,0.6539245104000535
3744.06,0.5974779178727185
3744.96,0.5382039185624667
3745.86,0.48169178753887754
3746.76,0.4346995801017673
3747.67,0.39563657940495894
3748.57,0.3674279247258761
3749.47,0.34865609854563606
3750.37,0.3457776781484109
3751.27,0.3561601496345071
3752.17,0.3758134174345308
3753.07,0.400013832188833
3753.97,0.41885319907521273
3754.87,0.4302151313319548
3755.77,0.4288552260070332
3756.67,0.4153583102120487
3757.57,0.39634217018327744
3758.47,0.37093998414576984
3759.37,0.35126383111417675
3760.27,0.33990872777250897
3761.17,0.33574897841399237
3762.07,0.3347110551656699
3762.97,0.33537920289684897
3763.87,0.33536908177530284
3764.77,0.3321318542667756
3765.67,0.3271072762579176
3766.57,0.3227928998073589
3767.47,0.316776853747061
3768.37,0.30961396565387445
3769.27,0.3072537725982968
3770.17,0.30459227381565185
3771.07,0.3057827024706154
3771.97,0.31002792177844163
3772.87,0.31624294385076046
3773.77,0.3234902181564923
3774.67,0.326423191913528
3775.57,0.33255291012869753
3776.47,0.3329699675300335
3777.37,0.3357186184134384
3778.27,0.33955607380857666
3779.17,0.34294025193543465
3780.07,0.3466647115348837
3780.97,0.3504463549086114
3781.87,0.35400912214985836
3782.77,0.3543898850187783
3783.67,0.35087402430248515
3784.57,0.344959283803014
3785.47,0.33502247889179404
3786.38,0.3207711124597632
3787.28,0.3086706759213169
3788.18,0.29746408271800723
3789.08,0.2880909766137277
3789.98,0.28376463011788133
3790.88,0.2813586752107138
3791.78,0.27855501808323097
3792.68,0.27635474196501053
3793.58,0.27196511384402916
3794.48,0.2621150224097042
3795.38,0.25469362437038207
3796.28,0.2462249910837021
3797.18,0.23682071707472005
3798.08,0.2320682352594283
3798.98,0.23305843126924056
3799.88,0.23925870244932743
3800.78,0.25170268374655874
3801.68,0.2675259275388044
3802.58,0.28395355953466245
3803.48,0.2997161138882922
3804.38,0.309375438969923
3805.28,0.31581579370637075
3806.18,0.3160043105577346
3807.08,0.31616315962813196
3807.98,0.3154606383808092
3808.88,0.3173745153600294
3809.78,0.3178544358900608
3810.68,0.3193678102969224
3811.58,0.3164736537004347
3812.48,0.3100944888912194
3813.38,0.3017549727198131
3814.28,0.28929900525077173
3815.18,0.2788313504351149
3816.08,0.2713535348306911
3816.98,0.267691787400553
3817.88,0.2660216759493597
3818.78,0.26418970086281907
3819.68,0.2635129056761332
3820.58,0.25637333948903107
3821.48,0.25438304160174796
3822.38,0.25175073133782633
3823.28,0.24906279354456168
3824.18,0.24548212751371914
3825.09,0.2385160750366838
3825.99,0.23187709835179343
3826.89,0.2255650103804023
3827.79,0.2226302699655032
3828.69,0.22070902405972243
3829.59,0.22127631429056777
3830.49,0.21902000847125644
3831.39,0.21575214648142244
3832.29,0.2108220804703795
3833.19,0.20287290991066306
3834.09,0.19830292184416703
3834.99,0.19482580256781926
3835.89,0.19504666992413885
3836.79,0.19601643551532838
3837.69,0.19954386021113976
3838.59,0.20420580660815393
3839.49,0.21084305749274806
3840.39,0.22192228025066218
3841.29,0.23681345637807064
3842.19,0.25464954996498634
3843.09,0.2750001139190026
3843.99,0.29363992599797034
3844.89,0.3100142607683709
3845.79,0.3234463910476597
3846.69,0.3320720921064733
3847.59,0.3354991157218947
3848.49,0.3390300685067507
3849.39,0.3393528837724073
3850.29,0.3396897079790508
3851.19,0.3399495994459413
3852.09,0.3431601820979425
3852.99,0.3451334022003723
3853.89,0.34557461320296234
3854.79,0.34261413923315276
3855.69,0.3386101298779919
3856.59,0.33093458813057436
3857.49,0.32246547600205205
3858.39,0.31422568632109643
3859.29,0.3078631578865788
3860.19,0.3069729680041633
3861.09,0.31454257457161783
3861.99,0.3249907353613586
3862.9,0.34349538937002966
3863.8,0.3592994762797311
3864.7,0.3703213583688077
3865.6,0.37802245588207134
3866.5,0.38056318919132953
3867.4,0.38061019360385534
3868.3,0.3819260910953662
3869.2,0.3777826349074437
3870.1,0.372610151352792
3871.0,0.36289114639431674
3871.9,0.3564045039037418
3872.8,0.3525884284777539
3873.7,0.3544633519338988
3874.6,0.36059982572974675
3875.5,0.3659653182840796
3876.4,0.3729035054722697
3877.3,0.3728024978126999
3878.2,0.3730860256367641
3879.1,0.3721838460198877
3880.0,0.3694250732753239
3880.9,0.37348046089291576
3881.8,0.37728531698919876
3882.7,0.37767703490852567
3883.6,0.37839683850050176
3884.5,0.37528811353852365
3885.4,0.36948008788130143
3886.3,0.35793561684390746
3887.2,0.3490245131357122
3888.1,0.3426475222734329
3889.0,0.3422704073579079
3889.9,0.34931165847343937
3890.8,0.36317155387165523
3891.7,0.38266365721203743
3892.6,0.4032325627335115
3893.5,0.4199157732320005
3894.4,0.4318195505483154
3895.3,0.44181381042624884
3896.2,0.4503844821173216
3897.1,0.4557215034291022
3898.0,0.46216533923131886
3898.9,0.4676029675769468
3899.8,0.47333501037287934
3900.7,0.47820323816811683
3901.6,0.47889077387939644
3902.51,0.48195083621563767
3903.41,0.47974853455991134
3904.31,0.479282931742352
3905.21,0.47934451822322066
3906.11,0.4797703189414929
3907.01,0.48797685329982493
3907.91,0.5000509364870581
3908.81,0.5182982467493678
3909.71,0.5377980709322636
3910.61,0.555861892265795
3911.51,0.5708083487209531
3912.41,0.5814549629908135
3913.31,0.5842873906126791
3914.21,0.5840287985352735
3915.11,0.5846477698564814
3916.01,0.579167926047368
3916.91,0.5709053372081244
3917.81,0.563163015783882
3918.71,0.553891632544595
3919.61,0.5439135019517579
3920.51,0.5313713089193121
3921.41,0.5211275362652877
3922.31,0.5125535186488153
3923.21,0.5110255790094728
3924.11,0.5064929956007929
3925.01,0.49944111720883744
3925.91,0.4851317267284227
3926.81,0.4620324503741973
3927.71,0.4323978333850014
3928.61,0.39509488633447254
3929.51,0.35151167881500206
3930.41,0.30772465692115364
3931.31,0.26702323430176356
3932.21,0.23081843477819936
3933.11,0.202339507789376
3934.01,0.18857162010624287
3934.91,0.18802869969722502
3935.81,0.20185724103515268
3936.71,0.23074657251834105
3937.61,0.2698173663973628
3938.51,0.3169545624377701
3939.42,0.36521116349060573
3940.32,0.4093539570182027
3941.22,0.4479394141541592
3942.12,0.4796143112340414
3943.02,0.5041801674680102
3943.92,0.527575456855117
3944.82,0.5492279687876789
3945.72,0.5718638527319649
3946.62,0.5959872572738574
3947.52,0.6171364338420222
3948.42,0.6399855213292002
3949.32,0.657359280439067
3950.22,0.6747817229460416
3951.12,0.6871317402348761
3952.02,0.6978997246485013
3952.92,0.7074601881690721
3953.82,0.7148851827730315
3954.72,0.7153423252857383
3955.62,0.7178762627482084
3956.52,0.7181883151955559
3957.42,0.7120848228395629
3958.32,0.7037333442921709
3959.22,0.6907771144984837
3960.12,0.6730491047845618
3961.02,0.6450949276522316
3961.92,0.6100502015261309
3962.82,0.5664017860119951
3963.72,0.5185081371786101
3964.62,0.4740636225476838
3965.52,0.42364301687821465
3966.42,0.3751026340037382
3967.32,0.3288267759637064
3968.22,0.2903784403455148
3969.12,0.26877570493967823
3970.02,0.26653464981800823
3970.92,0.2864936355664692
3971.82,0.32247675879656823
3972.72,0.3734067846529405
3973.62,0.43478815449691177
3974.52,0.4931968758187236
3975.42,0.555668894643309
3976.32,0.6137709758561951
3977.22,0.6647650438748975
3978.13,0.7122318698592884
3979.03,0.749130855503699
3979.93,0.7846628039207009
3980.83,0.8121568020278512
3981.73,0.8285307687597067
3982.63,0.8401985598523544
3983.53,0.8470638473253944
3984.43,0.8554273210995722
3985.33,0.8663771327651009
3986.23,0.8782111488956323
3987.13,0.8889567522514067
3988.03,0.9025024744959914
3988.93,0.9135517444115238
3989.83,0.9256149700288993
3990.73,0.9342656795440034
3991.63,0.9401917788166682
3992.53,0.9475030757121241
3993.43,0.9531074714662644
3994.33,0.950339682926868
3995.23,0.9467990517234
3996.13,0.9391130508982763
3997.03,0.9319391339533716
3997.93,0.9267114889198018
3998.83,0.9310558459220065
3999.73,0.9422074939482548
4000.63,0.956928450810012
4001.53,0.9714404252312976
4002.43,0.9819486877112824
4003.33,0.980646187956995
4004.23,0.9730018586324276
4005.13,0.9612940872927964
4006.03,0.9517518382310454
4006.93,0.9451065113239543
4007.83,0.9534717149634077
4008.73,0.9616104835658633
4009.63,0.9816451526606002
4010.53,0.9961953755351203
4011.43,1.0113827443149084
4012.33,1.014664465971795
4013.23,1.022268884629885
4014.13,1.0257427729160757
4015.03,1.029444332448704
4015.93,1.027618302556178
4016.84,1.0317792786605164
4017.74,1.028947315448875
4018.64,1.0312417851766325
4019.54,1.0364833167328669
4020.44,1.0379788525468512
4021.34,1.035594142470105
4022.24,1.0371521569287774
4023.14,1.0410640337788644
4024.04,1.0368501772629533
4024.94,1.0384407306439776
4025.84,1.0412597998529525
4026.74,1.0537355269661424
4027.64,1.049856795553702
4028.54,1.049995586210511
4029.44,1.0398190898368487
4030.34,1.0168743863285992
4031.24,0.9925779549756346
4032.14,0.9711123753932227
4033.04,0.9536072149055209
4033.94,0.9521330038184302
4034.84,0.967611906163578
4035.74,0.9831943573420113
4036.64,1.0113406602978705
4037.54,1.0384573095979017
4038.44,1.0577861399706716
4039.34,1.0752935953140952
4040.24,1.0832339486535656
4041.14,1.0703654471370336
4042.04,1.0535814723928587
4042.94,1.03156462091442
4043.84,1.000422491283603
4044.74,0.974706417907861
4045.64,0.9513071825603235
4046.54,0.9324688453624462
4047.44,0.937392279309988
4048.34,0.9593169614314164
4049.24,0.9846352181944419
4050.14,1.014529022776414
4051.04,1.0361446977518685
4051.94,1.0471255451325872
4052.84,1.0509096520642043
4053.74,1.0407347296847567
4054.65,1.0360089098203422
4055.55,1.0223491475767197
4056.45,1.0121091807065945
4057.35,1.0046926669713292
4058.25,1.0022595012534694
4059.15,1.0034251256757225
4060.05,1.0053673106247223
4060.95,0.9988555424853607
4061.85,0.9924104301876799
4062.75,0.978841300074337
4063.65,0.957769617003747
4064.55,0.942987926417034
4065.45,0.940225794144203
4066.35,0.946982661987665
4067.25,0.962328572380712
4068.15,0.975957392294418
4069.05,0.9858557124580906
4069.95,0.9971036275595488
4070.85,0.9961160538562291
4071.75,0.9937635803730884
4072.65,0.9900494771107932
4073.55,0.9840692705897999
4074.45,0.9765404159526374
4075.35,0.9651997401982363
4076.25,0.9503134026075606
4077.15,0.9417872770020865
4078.05,0.9288769673938736
4078.95,0.9291634040032721
4079.85,0.9433956722763873
4080.75,0.9619333263842806
4081.65,0.9858639572398428
4082.55,1.004546742376281
4083.45,1.0187651803241033
4084.35,1.0209994394446262
4085.25,1.0247135597209993
4086.15,1.0318968730853937
4087.05,1.0476170096906123
4087.95,1.0622304296249985
4088.85,1.0793317967156124
4089.75,1.0873785497378656
4090.65,1.0978557249838692
4091.55,1.0948167780755886
4092.45,1.0861567848080893
4093.36,1.0720709408489335
4094.26,1.0591665218436062
4095.16,1.0405355380350603
4096.06,1.0201457741555535
4096.96,0.9958306710061341
4097.86,0.9649829070690014
4098.76,0.9369173284166362
4099.66,0.9014374314295845
4100.56,0.8673400086496073
4101.46,0.8406025713787771
4102.36,0.8237571547007971
4103.26,0.8237785062108858
4104.16,0.8405783293635113
4105.06,0.8732419021647846
4105.96,0.902962348943994
4106.86,0.9400200376060472
4107.76,0.9645615016148109
4108.66,0.9764774687462786
4109.56,0.9885817228449465
4110.46,0.9949229079618434
4111.36,0.9981672410331549
4112.26,1.009073819416806
4113.16,1.018527010582225
4114.06,1.0258970550170163
4114.96,1.0352304183389378
4115.86,1.0430518074129507
4116.76,1.0419751082891806
4117.66,1.0403423284938937
4118.56,1.0329798862121968
4119.46,1.0306163305054068
4120.36,1.01937483009259
4121.26,1.0157158014057328
4122.16,1.0128897900201825
4123.06,1.013415753338088
4123.96,1.0224553526615723
4124.86,1.0272822220509898
4125.76,1.0276491081804993
4126.66,1.0301672533085358
4127.56,1.0192311595432646
4128.46,1.0162377989838265
4129.36,1.0037603798659003
4130.26,0.997336013260538
4131.17,0.9797330894918761
4132.06,0.9669917661452256
4132.97,0.9583473508352585
4133.87,0.955625192880618
4134.77,0.9662969197232303
4135.67,0.9761607749641149
4136.57,0.994386967661728
4137.47,1.017331132986363
4138.37,1.033122832944722
4139.27,1.0397560554045402
4140.17,1.0414395659453763
4141.07,1.0282541267678642
4141.97,1.0110009259953643
4142.87,0.9904332535856286
4143.77,0.9729543049385057
4144.67,0.9585004845758149
4145.57,0.9589362105314067
4146.47,0.9693016322619568
4147.37,0.9845747010773956
4148.27,0.9994198205652509
4149.17,1.0083125129334751
4150.07,1.0119429922488505
4150.97,1.0122567665531468
4151.87,1.0111371972413474
4152.77,1.0011733248486776
4153.67,0.9970593142276968
4154.57,0.9920126452229692
4155.47,0.9892368604239904
4156.37,0.9940728476846489
4157.27,0.9989831949723154
4158.17,1.0055390984321642
4159.07,1.0194608960423557
4159.97,1.0297513010567885
4160.87,1.0438278469358468
4161.77,1.0499326592520963
4162.67,1.059446498468858
4163.57,1.0653880841972534
4164.47,1.062532356206007
4165.37,1.0567893864661555
4166.27,1.0550200097930398
4167.17,1.0481588145301133
4168.07,1.0386579366946471
4168.98,1.025887567996992
4169.88,1.0167087784302855
4170.78,1.0020496121174112
4171.68,0.9865072427653963
4172.58,0.9693241888636451
4173.48,0.9564289797952089
4174.38,0.9487087287343423
4175.28,0.9481247070645971
4176.18,0.9539890993925974
4177.08,0.9628335792992034
4177.98,0.9768096706239102
4178.88,0.984986157049382
4179.78,0.9950091422860304
4180.68,1.003021513193084
4181.58,1.0087676918497812
4182.48,1.009143782853513
4183.38,1.0139595540226491
4184.28,1.0141597157796598
4185.18,1.0094856744853806
4186.08,1.0069697077014288
4186.98,1.0054083599310633
4187.88,1.0010589889855055
4188.78,1.003123195349327
4189.68,1.0020184165449133
4190.58,1.007144124878219
4191.48,1.0170461539059001
4192.38,1.027088587241234
4193.28,1.0367622648532306
4194.18,1.0347368589481507
4195.08,1.0326498851906392
4195.98,1.0209454270975997
4196.88,1.007958913539163
4197.78,0.9904366224379693
4198.68,0.9762188669417674
4199.58,0.9594375728895198
4200.48,0.957393041527385
4201.38,0.9546461178748115
4202.28,0.9589927806822527
4203.18,0.9685249373832843
4204.08,0.9767243123855288
4204.98,0.9896050662107234
4205.88,1.0018589143365944
4206.79,1.0232926567834983
4207.69,1.0396144975932002
4208.59,1.0476805491083496
4209.49,1.05678165885035
4210.39,1.0665338115942562
4211.29,1.0657634198860026
4212.19,1.0622938505487243
4213.09,1.0627416603847069
4213.99,1.0479475861636076
4214.89,1.0393799012999216
4215.79,1.0304162918435138
4216.69,1.026080525288592
4217.59,1.0292772034536763
4218.49,1.0341519698690094
4219.39,1.0430931130342496
4220.29,1.0546209474174966
4221.19,1.0578298576758212
4222.09,1.0478632445787637
4222.99,1.0264472693418072
4223.89,0.9939538423591009
4224.79,0.9524373444826958
4225.69,0.9111379933243534
4226.59,0.8789256942750752
4227.49,0.8668231572412232
4228.39,0.8755696428581687
4229.29,0.9043514058871974
4230.19,0.9395100814953675
4231.09,0.9773554263272594
4231.99,1.0013385374515118
4232.89,1.0242331977483783
4233.79,1.0316811682622546
4234.69,1.0204125095338377
4235.59,1.0169958975555602
4236.49,1.0105136175063514
4237.39,1.0074041623079495
4238.29,1.0057176348991308
4239.19,1.0173084389253406
4240.09,1.02408041244484
4240.99,1.0374329859164626
4241.89,1.047658656927217
4242.79,1.0582759045843229
4243.69,1.0692846749113967
4244.59,1.074615247465315
4245.5,1.0746572771439782
4246.4,1.0685476453736509
4247.3,1.0569381086037437
4248.2,1.0378627985749704
4249.1,1.0247810449430734
4250.0,1.0137745238617506
4250.9,1.0016410411088892
4251.8,1.0036889295693818
4252.7,1.009851932568318
4253.6,1.0205911195154511
4254.5,1.020719041554885
4255.4,1.0273207327700635
4256.3,1.026185436456283
4257.2,1.0334925537939859
4258.1,1.0305680168816815
4259.0,1.0295334002154621
4259.9,1.0194395588200633
4260.8,1.0112984281147113
4261.7,1.0186222839814811
4262.6,1.032890651085376
4263.5,1.0539751933596575
4264.4,1.0700674794643088
4265.3,1.0816886359705504
4266.2,1.0951394013683735
4267.1,1.093417109376511
4268.0,1.08117889056945
4268.9,1.0592090607735023
4269.8,1.0309861841761976
4270.7,1.0016965709336696
4271.6,0.9692398668368212
4272.5,0.9476035804253828
4273.4,0.9366575522215435
4274.3,0.9402119715738111
4275.2,0.9539325921272785
4276.1,0.9711865708670183
4277.0,0.9967010302381942
4277.9,1.0158976169799812
4278.8,1.0365230119902633
4279.7,1.0447239579055536
4280.6,1.044047955270545
4281.5,1.0394192867469374
4282.4,1.0375345461853898
4283.31,1.0331404983585062
4284.21,1.024404302813834
4285.11,1.015722435834693
4286.01,1.0009943313810281
4286.91,0.989929828875369
4287.81,0.9662662151218817
4288.71,0.9549233461715374
4289.61,0.9401636550418854
4290.51,0.9341126676240319
4291.41,0.931719747510229
4292.31,0.9388120652739624
4293.21,0.9514529529484881
4294.11,0.957199758656805
4295.01,0.9614240660614491
4295.91,0.9545105261880906
4296.81,0.9374520327255595
4297.71,0.9096049286327524
4298.61,0.8747063188604393
4299.51,0.84504689307379
4300.41,0.8165078845154982
4301.31,0.7969221904278545
4302.21,0.7880409697373737
4303.11,0.7818301566673321
4304.01,0.7807632951326416
4304.91,0.7789036581528525
4305.81,0.7810726085253235
4306.71,0.7744399528271049
4307.61,0.7669568284462631
4308.51,0.7617461910385814
4309.41,0.758674721632495
4310.31,0.7674178310961641
4311.21,0.7823078166273656
4312.11,0.8115734631197018
4313.01,0.8502609318552133
4313.91,0.8947868407404299
4314.81,0.9453334211675163
4315.71,1.001175524255824
4316.61,1.058871873471526
4317.51,1.1010284015025724
4318.41,1.1339398305292596
4319.31,1.1569139020653396
4320.21,1.1597770935505094
4321.12,1.1379224007285291
4322.02,1.110810281297068
4322.92,1.0766427541292223
4323.82,1.03485712849765
4324.72,1.001411650937246
4325.62,0.9748751855285368
4326.52,0.9710173859115444
4327.42,0.9804241412583274
4328.32,1.006394061524256
4329.22,1.0348029450998597
4330.12,1.0700570723667737
4331.02,1.0973768184404777
4331.92,1.1160795835049564
4332.82,1.1239549065097434
4333.72,1.1256199076950812
4334.62,1.1187353464054242
4335.52,1.1056784117569738
4336.42,1.072740717958421
4337.32,1.0352155273715828
4338.22,0.989503325413387
4339.12,0.9476689414328197
4340.02,0.9074875049056043
4340.92,0.8893819879311939
4341.82,0.8805896985344865
4342.72,0.8985649440230203
4343.62,0.9256979441397595
4344.52,0.9681950133216304
4345.42,1.0007762858023623
4346.32,1.0278718876886028
4347.22,1.064315723597367
4348.12,1.0711923610941239
4349.02,1.0773528385732023
4349.92,1.071722684944567
4350.82,1.0625305823798143
4351.72,1.044418144020347
4352.62,1.0320110564485323
4353.52,1.0332648059258083
4354.42,1.0259169806051949
4355.32,1.0354193137187437
4356.22,1.043896044550496
4357.12,1.057550847639568
4358.02,1.0671374385976555
4358.92,1.0762572893067328
4359.83,1.0850222993299323
4360.73,1.0866730668754947
4361.63,1.0921929069125407
4362.53,1.103722975950647
4363.43,1.1083279775540806
4364.33,1.1146928590502398
4365.23,1.1156965529852256
4366.13,1.118587242919577
4367.03,1.1097152957049012
4367.93,1.1005507314582244
