wave,flux
3700.85,-6.204535123394268e-05
3701.75,-6.13114549733782e-05
3702.65,-5.922385040377045e-05
3703.55,-5.62131672774221e-05
3704.45,-5.2924536801243406e-05
3705.35,-4.951640992225491e-05
3706.25,-4.722977214398748e-05
3707.15,-4.6087224849086765e-05
3708.05,-4.5918536904476414e-05
3708.96,-4.720076403343405e-05
3709.86,-4.955021786082772e-05
3710.76,-5.250475961014164e-05
3711.66,-5.64201581316132e-05
3712.56,-6.0267354581873944e-05
3713.46,-6.3962363743163e-05
3714.36,-6.697017353147569e-05
3715.26,-6.774582684316786e-05
3716.16,-6.731495294357882e-05
3717.06,-6.521824287111925e-05
3717.96,-6.190193898372744e-05
3718.86,-5.701368935595182e-05
3719.76,-5.1994107165507395e-05
3720.66,-4.7689420552721286e-05
3721.56,-4.530546353665611e-05
3722.46,-4.50384347001109e-05
3723.36,-4.748799888542368e-05
3724.26,-5.105114779735287e-05
3725.16,-5.5153203128519876e-05
3726.06,-5.849759884921638e-05
3726.96,-6.0411321955363534e-05
3727.86,-6.12538064852873e-05
3728.76,-6.138543319117199e-05
3729.66,-6.116215070630367e-05
3730.56,-5.975819341316057e-05
3731.46,-5.758292471473465e-05
3732.36,-5.4567116788993645e-05
3733.26,-5.030829952704573e-05
3734.16,-4.588150444210418e-05
3735.06,-4.263972511537526e-05
3735.96,-4.102281118355098e-05
3736.86,-4.165795901155324e-05
3737.76,-4.439506847654592e-05
3738.66,-4.9124865695280495e-05
3739.56,-5.42524664017419e-05
3740.46,-5.883782823410375e-05
3741.36,-6.22470340529696e-05
3742.26,-6.33108676781908e-05
3743.16,-6.18056975363779e-05
3744.06,-5.919930867830996e-05
3744.96,-5.619304194696801e-05
3745.86,-5.251532510218655e-05
3746.76,-4.94447833582819e-05
3747.67,-4.71382918760524e-05
3748.57,-4.562731432091462e-05
3749.47,-4.5691485822802974e-05
3750.37,-4.7947312528647025e-05
3751.27,-5.222806749367543e-05
3752.17,-5.790401359498844e-05
3753.07,-6.407574122990977e-05
3753.97,-7.04920401774375e-05
3754.87,-7.463194189782652e-05
3755.77,-7.682520519145488e-05
3756.67,-7.594612036448678e-05
3757.57,-7.335969786502103e-05
3758.47,-7.002101035916829e-05
3759.37,-6.738501199825305e-05
3760.27,-6.65978421387512e-05
3761.17,-6.660824489050165e-05
3762.07,-6.828340929356392e-05
3762.97,-6.964942136366016e-05
3763.87,-7.09727345949978e-05
3764.77,-7.169911689493219e-05
3765.67,-7.196934632223855e-05
3766.57,-7.2614768460938e-05
3767.47,-7.281449468866683e-05
3768.37,-7.404013014781626e-05
3769.27,-7.501023157246738e-05
3770.17,-7.679267120292797e-05
3771.07,-7.924294229613673e-05
3771.97,-8.202536685898913e-05
3772.87,-8.521302780194641e-05
3773.77,-8.880448327051181e-05
3774.67,-9.115555650000736e-05
3775.57,-9.280720070540705e-05
3776.47,-9.462840052421262e-05
3777.37,-9.586115468161957e-05
3778.27,-9.740106039665579e-05
3779.17,-9.964498890285958e-05
3780.07,-0.00010202842731049177
3780.97,-0.00010494174435408564
3781.87,-0.00010656879053079583
3782.77,-0.00010833059619526724
3783.67,-0.00010817627316913692
3784.57,-0.00010687663460015472
3785.47,-0.00010461698001702904
3786.38,-0.00010004677447020716
3787.28,-9.594586116698343e-05
3788.18,-9.200586425546179e-05
3789.08,-8.909382156217918e-05
3789.98,-8.738505935387783e-05
3790.88,-8.713404744285006e-05
3791.78,-8.761274304840093e-05
3792.68,-8.76955337306501e-05
3793.58,-8.699214883042464e-05
3794.48,-8.536483271312761e-05
3795.38,-8.361549851516287e-05
3796.28,-8.07688201372343e-05
3797.18,-7.873863594772119e-05
3798.08,-7.812960619206087e-05
3798.98,-7.822297956937472e-05
3799.88,-8.1084438001995e-05
3800.78,-8.576304467463548e-05
3801.68,-9.24264590613855e-05
3802.58,-9.891341811004811e-05
3803.48,-0.00010485243303064874
3804.38,-0.00010931568555366693
3805.28,-0.00011214186193303351
3806.18,-0.00011281709914051581
3807.08,-0.00011239706475715985
3807.98,-0.00011285240502331641
3808.88,-0.00011448686505646746
3809.78,-0.00011576985164962744
3810.68,-0.00011706381839427811
3811.58,-0.00011639430341484515
3812.48,-0.00011461706051110508
3813.38,-0.000110025350100894
3814.28,-0.00010518820615493332
3815.18,-0.00010052879428851843
3816.08,-9.662185858576689e-05
3816.98,-9.514783521188533e-05
3817.88,-9.404480703218089e-05
3818.78,-9.339921676345254e-05
3819.68,-9.218119444596171e-05
3820.58,-9.091952512072284e-05
3821.48,-8.951184946777968e-05
3822.38,-8.876215471006602e-05
3823.28,-8.773927455555907e-05
3824.18,-8.641730537221629e-05
3825.09,-8.388021455941942e-05
3825.99,-8.144459732351711e-05
3826.89,-7.915717982007025e-05
3827.79,-7.751980400650668e-05
3828.69,-7.733886291619084e-05
3829.59,-7.810091893273058e-05
3830.49,-7.8310813662636e-05
3831.39,-7.779788747854263e-05
3832.29,-7.598233103004222e-05
3833.19,-7.457416711365926e-05
3834.09,-7.366943143401802e-05
3834.99,-7.306114980455343e-05
3835.89,-7.364263053706841e-05
3836.79,-7.477141355551274e-05
3837.69,-7.541719080375306e-05
3838.59,-7.65319991687442e-05
3839.49,-7.867876761472198e-05
3840.39,-8.220338908754288e-05
3841.29,-8.726152424120621e-05
3842.19,-9.474221392302444e-05
3843.09,-0.0001032916339276043
3843.99,-0.00011132913989107684
3844.89,-0.0001179068419719272
3845.79,-0.00012276731531760514
3846.69,-0.00012660972940808712
3847.59,-0.00012881428632712481
3848.49,-0.00012942460429360729
3849.39,-0.00012952469603064705
3850.29,-0.00012961045114482476
3851.19,-0.00012921059272969073
3852.09,-0.00013053961274663793
3852.99,-0.00013049992758644815
3853.89,-0.0001306650933564983
3854.79,-0.0001296182633484235
3855.69,-0.0001267304979150554
3856.59,-0.00012355207221688094
3857.49,-0.00012014364831263355
3858.39,-0.0001166973860783888
3859.29,-0.00011450843941226887
3860.19,-0.00011381162468303938
3861.09,-0.00011673368244678572
3861.99,-0.00012241748421572073
3862.9,-0.00012998240811775536
3863.8,-0.00013651647473938533
3864.7,-0.0001418333406250059
3865.6,-0.00014542299834163913
3866.5,-0.00014552844263568334
3867.4,-0.0001448427425207987
3868.3,-0.00014360776725350736
3869.2,-0.0001408007039157959
3870.1,-0.00013767240774715907
3871.0,-0.00013415477966450303
3871.9,-0.00013193077600185492
3872.8,-0.00013156882960095275
3873.7,-0.00013392537673524458
3874.6,-0.00013819826325292675
3875.5,-0.00014275241314138078
3876.4,-0.0001461272119741046
3877.3,-0.00014684852311260395
3878.2,-0.00014587182688641904
3879.1,-0.00014423247222210983
3880.0,-0.00014253696373104665
3880.9,-0.00014259320685273654
3881.8,-0.00014302658550903702
3882.7,-0.0001439554719953565
3883.6,-0.00014553642439651905
3884.5,-0.0001450992086565146
3885.4,-0.00014326921252229738
3886.3,-0.00014113237518642295
3887.2,-0.00013885472648783958
3888.1,-0.0001381403288174672
3889.0,-0.00013935512024910524
3889.9,-0.0001444005056344492
3890.8,-0.000152127645844492
3891.7,-0.00016137602059546004
3892.6,-0.00017128076695681566
3893.5,-0.00017856728091430812
3894.4,-0.00018407746557091008
3895.3,-0.0001881467204443071
3896.2,-0.00019079759396676603
3897.1,-0.00019250537877588293
3898.0,-0.00019442235459250147
3898.9,-0.00019671535796903576
3899.8,-0.00019810962764013287
3900.7,-0.00019964662059669507
3901.6,-0.00020171095843068604
3902.51,-0.00020074771526640628
3903.41,-0.00019903104499252586
3904.31,-0.00019835387259819297
3905.21,-0.00019779900182426345
3906.11,-0.0001983269371621899
3907.01,-0.0002019190538987565
3907.91,-0.00020890639972592607
3908.81,-0.00021799021115058664
3909.71,-0.00022659673793884767
3910.61,-0.00023552733934994685
3911.51,-0.0002421459342468331
3912.41,-0.0002469456953257005
3913.31,-0.00025093406357419183
3914.21,-0.0002514802252966098
3915.11,-0.00025033754643967194
3916.01,-0.0002480601752534944
3916.91,-0.0002440587722982109
3917.81,-0.0002407043779670563
3918.71,-0.00023444101293818213
3919.61,-0.00022729208328323212
3920.51,-0.00022170577639733988
3921.41,-0.00021510020794540032
3922.31,-0.00021196763803339727
3923.21,-0.0002098822888737653
3924.11,-0.00020751523305527803
3925.01,-0.0002054621781332453
3925.91,-0.00020061090111907665
3926.81,-0.00019047644165306958
3927.71,-0.0001771100855230428
3928.61,-0.00016112922448871292
3929.51,-0.0001441426930582528
3930.41,-0.0001262483211655016
3931.31,-0.00011032603278403409
3932.21,-9.673623163942027e-05
3933.11,-8.596211667042996e-05
3934.01,-8.035328867996269e-05
3934.91,-8.033326560370006e-05
3935.81,-8.585396102994647e-05
3936.71,-9.734675226204636e-05
3937.61,-0.00011333301734713692
3938.51,-0.00013195169495652687
3939.42,-0.00015118863378434295
3940.32,-0.00016983909569847025
3941.22,-0.0001847178043659121
3942.12,-0.00019795205957858823
3943.02,-0.00020700651711795884
3943.92,-0.00021566594009483068
3944.82,-0.00022611843589053412
3945.72,-0.00023759941394601588
3946.62,-0.0002506013449094871
3947.52,-0.00026341669772402297
3948.42,-0.0002732761233076266
3949.32,-0.0002858698271469465
3950.22,-0.000295856258495093
3951.12,-0.0003036248208867865
3952.02,-0.00031101476122575363
3952.92,-0.00031413983624225286
3953.82,-0.0003185862566750961
3954.72,-0.00032064096757321824
3955.62,-0.0003218063139726096
3956.52,-0.00032194596933209
3957.42,-0.0003194507369722192
3958.32,-0.00031613846697379095
3959.22,-0.0003092868223095122
3960.12,-0.0002984378124435067
3961.02,-0.0002853206112630219
3961.92,-0.00026596825055048325
3962.82,-0.0002470465015205054
3963.72,-0.00022678171338055215
3964.62,-0.0002061582264628092
3965.52,-0.00018568335194425943
3966.42,-0.00016587452887628252
3967.32,-0.00014624596940556782
3968.22,-0.00013167379918736717
3969.12,-0.00012329653742166062
3970.02,-0.00012287394107779397
3970.92,-0.00013200230802047535
3971.82,-0.00014871936425172965
3972.72,-0.00017101709936046048
3973.62,-0.0001976572591145705
3974.52,-0.00022659409644804608
3975.42,-0.00025692439183231395
3976.32,-0.0002858359522007926
3977.22,-0.00031373815063927724
3978.13,-0.00033836442490851453
3979.03,-0.0003625970441457162
3979.93,-0.0003811279665074906
3980.83,-0.0003993423948154974
3981.73,-0.0004099916369194139
3982.63,-0.00041783585938434057
3983.53,-0.00042461063169033347
3984.43,-0.00042884225091540203
3985.33,-0.00043621207098571346
3986.23,-0.0004440432299525525
3987.13,-0.000452255001807785
3988.03,-0.0004615094613761843
3988.93,-0.00047200567353791035
3989.83,-0.0004806278968032344
3990.73,-0.0004891311485820949
3991.63,-0.0004954950097588788
3992.53,-0.0005017386077522446
3993.43,-0.0005079519171971037
3994.33,-0.0005097719606980707
3995.23,-0.0005094339871811819
3996.13,-0.000506549220625614
3997.03,-0.0005076111528693866
3997.93,-0.0005110981054672055
3998.83,-0.0005174428909776594
3999.73,-0.0005272184634082287
4000.63,-0.0005388613224676567
4001.53,-0.0005543415894539508
4002.43,-0.0005648865123557359
4003.33,-0.0005647845110894518
4004.23,-0.0005608493409579707
4005.13,-0.0005574150606004061
4006.03,-0.0005467017423870402
4006.93,-0.0005457836779238494
4007.83,-0.0005531717238620073
4008.73,-0.0005614304496563898
4009.63,-0.0005759986162313411
4010.53,-0.0005945147226193245
4011.43,-0.0006080397243680077
4012.33,-0.0006176436223022654
4013.23,-0.0006244611552939756
4014.13,-0.0006317044000001698
4015.03,-0.0006397425092780843
4015.93,-0.0006446613289773876
4016.84,-0.000649338797260326
4017.74,-0.0006564025931651988
4018.64,-0.0006640176523136966
4019.54,-0.0006676750401713215
4020.44,-0.0006744763453114514
4021.34,-0.0006810776581796751
4022.24,-0.0006831319556751719
4023.14,-0.0006844595388693378
4024.04,-0.0006865125494743272
4024.94,-0.0006951719481754285
4025.84,-0.0007005569831365216
4026.74,-0.0007091367958442301
4027.64,-0.0007170908213038807
4028.54,-0.0007173846898613251
4029.44,-0.0007123546466201434
4030.34,-0.000699186063244204
4031.24,-0.0006806469983839863
4032.14,-0.0006597450298682272
4033.04,-0.0006514459383548505
4033.94,-0.0006488643574190748
4034.84,-0.0006623967679878759
4035.74,-0.0006849204944573374
4036.64,-0.000715979503653441
4037.54,-0.0007489637256605584
4038.44,-0.0007764827399193942
4039.34,-0.0007950954079161917
4040.24,-0.0008020958518086717
4041.14,-0.0008020212094364311
4042.04,-0.0007935814358710429
4042.94,-0.0007803803667981596
4043.84,-0.0007529830194848994
4044.74,-0.0007270744928825214
4045.64,-0.0007088936116786765
4046.54,-0.000702385400826041
4047.44,-0.0007099472713749025
4048.34,-0.0007310807856882576
4049.24,-0.0007701568291524967
4050.14,-0.0008071585934018498
4051.04,-0.0008321334472668351
4051.94,-0.0008548521038367748
4052.84,-0.0008571434547492326
4053.74,-0.0008554363414304189
4054.65,-0.0008460774100340363
4055.55,-0.0008414201780367775
4056.45,-0.000828901168899082
4057.35,-0.0008259733586077879
4058.25,-0.000825114237942825
4059.15,-0.0008300285397845878
4060.05,-0.0008355327158800309
4060.95,-0.0008398587189723821
4061.85,-0.0008425720849710598
4062.75,-0.0008297709119706818
4063.65,-0.0008203406266188651
4064.55,-0.0008135687966353369
4065.45,-0.0008179328063097809
4066.35,-0.0008355197783529005
4067.25,-0.000855664996247946
4068.15,-0.000881912322038928
4069.05,-0.000905513239142834
4069.95,-0.0009234129832611723
4070.85,-0.0009306620189607382
4071.75,-0.0009327810152376499
4072.65,-0.0009385068555397166
4073.55,-0.0009344709864084154
4074.45,-0.0009346831034870584
4075.35,-0.0009359952926718593
4076.25,-0.0009303655641389881
4077.15,-0.0009241569302405485
4078.05,-0.0009253628774794352
4078.95,-0.0009388720724918039
4079.85,-0.0009647087801347769
4080.75,-0.0009960824942947567
4081.65,-0.0010345388956524047
4082.55,-0.0010650849479686584
4083.45,-0.0010855519121450662
4084.35,-0.0010980985769260495
4085.25,-0.001111512809300392
4086.15,-0.0011284687786072697
4087.05,-0.0011563214026873569
4087.95,-0.0011886574076367062
4088.85,-0.0012149651239050671
4089.75,-0.0012381632277032764
4090.65,-0.0012515240871250415
4091.55,-0.0012543832859271097
4092.45,-0.0012524237672386317
4093.36,-0.0012410623735676133
4094.26,-0.0012289883589155584
4095.16,-0.0012133038216759315
4096.06,-0.0011879860644907602
4096.96,-0.0011706643403899338
4097.86,-0.0011389430477115894
4098.76,-0.0011125854129647882
4099.66,-0.0010809162663539876
4100.56,-0.0010517197452992843
4101.46,-0.0010337732052008188
4102.36,-0.0010243032748916015
4103.26,-0.0010349605294026815
4104.16,-0.0010686067442305044
4105.06,-0.0011126735481323713
4105.96,-0.0011681787674355422
4106.86,-0.0012220360504308586
4107.76,-0.001263416989582042
4108.66,-0.0012898252748589014
4109.56,-0.001311648030375538
4110.46,-0.001326457213314072
4111.36,-0.0013405922614164593
4112.26,-0.0013623296632370731
4113.16,-0.0013808752509101515
4114.06,-0.0014042622382933918
4114.96,-0.0014352388694267959
4115.86,-0.001459712158472779
4116.76,-0.0014784029105006174
4117.66,-0.0014759976744101642
4118.56,-0.001475010361877772
4119.46,-0.0014736176733336065
4120.36,-0.0014763617839196348
4121.26,-0.0014806334532168795
4122.16,-0.0014861366670952316
4123.06,-0.001507353976601012
4123.96,-0.0015236273624238846
4124.86,-0.0015359402763880736
4125.76,-0.0015541405119309769
4126.66,-0.0015667203403977716
4127.56,-0.00156432784960803
4128.46,-0.0015595676738107465
4129.36,-0.0015488001518802377
4130.26,-0.0015334785071332686
4131.17,-0.0015175358216287832
4132.06,-0.0015126600895359254
4132.97,-0.0015123991730538748
4133.87,-0.0015091190567930448
4134.77,-0.0015450668145095858
4135.67,-0.001583049913684693
4136.57,-0.0016314698195449117
4137.47,-0.0016840994540461955
4138.37,-0.0017340493908590347
4139.27,-0.0017650999600953522
4140.17,-0.0017723164800907145
4141.07,-0.0017642203156504285
4141.97,-0.0017378388601550123
4142.87,-0.0017051936226493824
4143.77,-0.001676111355107455
4144.67,-0.0016620118383365349
4145.57,-0.0016752624579064648
4146.47,-0.0017031675964293887
4147.37,-0.0017522650698047048
4148.27,-0.0017887055455163682
4149.17,-0.0018128114332228587
4150.07,-0.0018292891597970508
4150.97,-0.00183785537619402
4151.87,-0.0018430805693576504
4152.77,-0.0018444610860677937
4153.67,-0.0018513492246425244
4154.57,-0.001860520974100336
4155.47,-0.001855577671698368
4156.37,-0.0018814240208562573
4157.27,-0.0019093458656390897
4158.17,-0.0019436246014397124
4159.07,-0.0019921566170438354
4159.97,-0.002038398097902633
4160.87,-0.0020915312534758707
4161.77,-0.0021381412612544687
4162.67,-0.0021757505523212098
4163.57,-0.0021995874675219147
4164.47,-0.0022243900516795475
4165.37,-0.002226928773396426
4166.27,-0.002225327339977386
4167.17,-0.0022179225508479074
4168.07,-0.002201907560471926
4168.98,-0.002211906297332669
4169.88,-0.002192642559157029
4170.78,-0.0021801703535127047
4171.68,-0.0021624999454793402
4172.58,-0.002134207095216001
4173.48,-0.0021184634750503304
4174.38,-0.002110696747710088
4175.28,-0.0021166592772008126
4176.18,-0.0021441076203830532
4177.08,-0.002183437907291545
4177.98,-0.0022194384015099366
4178.88,-0.0022651024557997445
4179.78,-0.0022949632143168014
4180.68,-0.0023339910060016897
4181.58,-0.0023803510159287216
4182.48,-0.00240748789548335
4183.38,-0.0024352074498970797
4184.28,-0.0024635199744200446
4185.18,-0.002486509968167029
4186.08,-0.002505183222717442
4186.98,-0.0025151315948862035
4187.88,-0.0025223567094870736
4188.78,-0.0025416519596008235
4189.68,-0.002579770842436326
4190.58,-0.002609778125948098
4191.48,-0.0026683348531502176
4192.38,-0.002705728622431102
4193.28,-0.0027385748502612357
4194.18,-0.0027835766315677454
4195.08,-0.002781371884178062
4195.98,-0.002757685833864628
4196.88,-0.002711838274832868
4197.78,-0.0026761436309264094
4198.68,-0.0026392354334997237
4199.58,-0.0026351235271860024
4200.48,-0.002634678924883542
4201.38,-0.0026596951508837383
4202.28,-0.0027030678564913565
4203.18,-0.0027536356914935997
4204.08,-0.002826285513234071
4204.98,-0.0029065494011469004
4205.88,-0.0030075235836189876
4206.79,-0.0031080533974444536
4207.69,-0.003178855733677892
4208.59,-0.003255355012519207
4209.49,-0.003307109008967643
4210.39,-0.003355634709993505
4211.29,-0.003379050275993839
4212.19,-0.0033875288442283542
4213.09,-0.003396313575779058
4213.99,-0.0033720810650063786
4214.89,-0.0033513061081276497
4215.79,-0.0033649916888526792
4216.69,-0.003383777526387261
4217.59,-0.0034515287930071644
4218.49,-0.0035286169285624687
4219.39,-0.0036185395425987732
4220.29,-0.003687436360085875
4221.19,-0.00374376738735891
4222.09,-0.0037184923319852087
4222.99,-0.0036549318286456436
4223.89,-0.003524610795378204
4224.79,-0.0033396155210803557
4225.69,-0.003187209915990258
4226.59,-0.003070936793179471
4227.49,-0.003036818567509169
4228.39,-0.003101429988101875
4229.29,-0.003240685494238372
4230.19,-0.0034373106480530776
4231.09,-0.0036426845855888866
4231.99,-0.0038169031600667255
4232.89,-0.003915193814586418
4233.79,-0.003977236424706206
4234.69,-0.003996743043370852
4235.59,-0.003986509686294694
4236.49,-0.003991909360817628
4237.39,-0.004017000561293688
4238.29,-0.004042043715022103
4239.19,-0.0041259903279304766
4240.09,-0.004211837851785012
4240.99,-0.0043114289232371655
4241.89,-0.004436778879060582
4242.79,-0.004525109730340096
4243.69,-0.004671167278878274
4244.59,-0.004734402463222796
4245.5,-0.0048077848095430436
4246.4,-0.004814006917535781
4247.3,-0.004765313924907742
4248.2,-0.004691402717319314
4249.1,-0.004652150623824736
4250.0,-0.004606234082624542
4250.9,-0.004562323784829736
4251.8,-0.004565583667653685
4252.7,-0.004628119324277688
4253.6,-0.0046599702381848645
4254.5,-0.0047424248383090215
4255.4,-0.004814896872188314
4256.3,-0.004893273408828093
4257.2,-0.004955306011763602
4258.1,-0.004995244832798634
4259.0,-0.004984628778996904
4259.9,-0.005029988577356426
4260.8,-0.005038870400827141
4261.7,-0.005099307669080639
4262.6,-0.005230476293233904
4263.5,-0.00542897523100839
4264.4,-0.005596546529001354
4265.3,-0.0058039103431737574
4266.2,-0.005902795676599447
4267.1,-0.005962810451916529
4268.0,-0.005914870428258263
4268.9,-0.00580261264996904
4269.8,-0.005634640233638841
4270.7,-0.005428432784929013
4271.6,-0.0052601997333658855
4272.5,-0.005147123216828642
4273.4,-0.005089450612059831
4274.3,-0.005158237310548656
4275.2,-0.005305350825738835
4276.1,-0.005521244669703648
4277.0,-0.005796325837608816
4277.9,-0.0060366219602149655
4278.8,-0.006241803034883657
4279.7,-0.0064101568352992406
4280.6,-0.006465117498715704
4281.5,-0.006525926210420628
4282.4,-0.006561759552671421
