wave,flux
3700.85,-0.03214798165265666
3701.75,-0.032295916025643384
3702.65,-0.031648221578987286
3703.55,-0.030467128376572467
3704.45,-0.02906763919051368
3705.35,-0.027902290745592244
3706.25,-0.027017102168993095
3707.15,-0.026780948980317246
3708.05,-0.027283602639723167
3708.96,-0.028181772085707824
3709.86,-0.029762667548454275
3710.76,-0.031690532091278346
3711.66,-0.0341332137716021
3712.56,-0.036805615999699004
3713.46,-0.039259885768770215
3714.36,-0.041470467452508125
3715.26,-0.042964760871818074
3716.16,-0.0434758015240502
3717.06,-0.04306348579750564
3717.96,-0.04152489388448511
3718.86,-0.03909349403320789
3719.76,-0.03673935593899519
3720.66,-0.03432688678289371
3721.56,-0.03311319797719014
3722.46,-0.033404631778059815
3723.36,-0.03536416390596781
3724.26,-0.03826612842048641
3725.16,-0.04182719233620155
3726.06,-0.04472011828622447
3726.96,-0.046876162438849636
3727.86,-0.048057896961050006
3728.76,-0.04899793331075474
3729.66,-0.04944477742655807
3730.56,-0.04908767841209241
3731.46,-0.04833047880221109
3732.36,-0.0461087533913394
3733.26,-0.04339890656278498
3734.16,-0.04059420543463757
3735.06,-0.03843019461296651
3735.96,-0.038044040634087874
3736.86,-0.039325716892974795
3737.76,-0.042549061852835905
3738.66,-0.04744317854336402
3739.56,-0.05271579710836394
3740.46,-0.05789026934749783
3741.36,-0.061701919208911986
3742.26,-0.06385745482463895
3743.16,-0.06354125589988756
3744.06,-0.062404837961841146
3744.96,-0.05993045914852227
3745.86,-0.057679974211388346
3746.76,-0.055651103354194084
3747.67,-0.053784763937643684
3748.57,-0.05296194063228646
3749.47,-0.053441462444908674
3750.37,-0.05627052683249505
3751.27,-0.061405736358880886
3752.17,-0.06903081800025128
3753.07,-0.07755834011861788
3753.97,-0.08607266645004986
3754.87,-0.09267064109137306
3755.77,-0.09715841124355422
3756.67,-0.09870297491973766
3757.57,-0.09755367776033845
3758.47,-0.09512637762864756
3759.37,-0.09382380913335812
3760.27,-0.0940923194292395
3761.17,-0.09680395189360828
3762.07,-0.10040671985015696
3762.97,-0.10483262232725693
3763.87,-0.10876152742088092
3764.77,-0.11212161845061812
3765.67,-0.11472640303235183
3766.57,-0.11677051918894618
3767.47,-0.11967082524368176
3768.37,-0.12191619504835183
3769.27,-0.12470734852344201
3770.17,-0.12910695370202843
3771.07,-0.13514799655889975
3771.97,-0.14213859525705755
3772.87,-0.1511959869074555
3773.77,-0.1609516033193429
3774.67,-0.1697413977818358
3775.57,-0.17780350589744198
3776.47,-0.1850975924104632
3777.37,-0.194572813240766
3778.27,-0.2027674477478945
3779.17,-0.21123322854276458
3780.07,-0.22255067277875398
3780.97,-0.23385151543613678
3781.87,-0.24500469421380322
3782.77,-0.25483803808169475
3783.67,-0.2613544301514646
3784.57,-0.2643004995149888
3785.47,-0.26483936846053185
3786.38,-0.2626835238667229
3787.28,-0.2604115440576325
3788.18,-0.2571793402817425
3789.08,-0.2565045012556963
3789.98,-0.2594732130962551
3790.88,-0.26651556166518575
3791.78,-0.2733649517726904
3792.68,-0.2808974774997474
3793.58,-0.2867378180428146
3794.48,-0.2898312666008444
3795.38,-0.28922061142336997
3796.28,-0.28919401176245924
3797.18,-0.29055845088534515
3798.08,-0.2958894615542576
3798.98,-0.3078118415196875
3799.88,-0.33056944977267977
3800.78,-0.36441380246654115
3801.68,-0.4069142486471726
3802.58,-0.4540710454673769
3803.48,-0.5037627342387005
3804.38,-0.5443473827427889
3805.28,-0.581369386714461
3806.18,-0.6104191062791525
3807.08,-0.6416308114291382
3807.98,-0.6794723059566395
3808.88,-0.720256715824371
3809.78,-0.7660111007946303
3810.68,-0.8137203273732102
3811.58,-0.8577062502268031
3812.48,-0.8886735129103278
3813.38,-0.91855149528893
3814.28,-0.9365956022821401
3815.18,-0.9578037475278792
3816.08,-1.0013728387331875
3816.98,-1.0608320793639339
3817.88,-1.1436185070418998
3818.78,-1.2365465471996675
3819.68,-1.344047311900418
3820.58,-1.4635008334389488
3821.48,-1.612133958311142
3822.38,-1.7959135293129163
3823.28,-2.04920352633457
3824.18,-2.324767427369078
3825.09,-2.7234474269541775
3825.99,-3.2498267971516293
3826.89,-4.1283318790790124
3827.79,-5.8112665993235115
3828.69,-10.020849660771134
3829.59,-36.42126870609494
3830.49,22.67498734438345
3831.39,8.600184745481227
3832.29,5.229668109397102
3833.19,3.7035020974198534
3834.09,2.838303205927933
3834.99,2.3147121449085364
3835.89,1.970725072631427
3836.79,1.7466659573199597
3837.69,1.5723221262180453
3838.59,1.4571515166161721
3839.49,1.3745637131629782
3840.39,1.3251669197909917
3841.29,1.3099691378241407
3842.19,1.3229710139927882
3843.09,1.3402756011339851
3843.99,1.3504570355669374
3844.89,1.3476469675466873
3845.79,1.3361715282150604
3846.69,1.3039175269158643
3847.59,1.265454023454293
3848.49,1.2186902234520265
3849.39,1.1835169804627053
3850.29,1.1433174063896563
3851.19,1.1053701872001716
3852.09,1.0730062082881981
3852.99,1.0407785593151724
3853.89,1.008652767459371
3854.79,0.9719157842261401
3855.69,0.9273664935144809
3856.59,0.881868867403553
3857.49,0.8346628778137134
3858.39,0.7975549956637652
3859.29,0.7649654905060227
3860.19,0.7449058030934923
3861.09,0.7445187369929478
3861.99,0.7580717020017558
3862.9,0.7780724062628662
3863.8,0.7967632211746495
3864.7,0.8116598577594637
3865.6,0.8060878207043544
3866.5,0.7961505096192754
3867.4,0.7817251872204574
3868.3,0.7604291833229643
3869.2,0.7375340190332631
3870.1,0.7107261465567423
3871.0,0.685128651680972
3871.9,0.6597455473575206
3872.8,0.6476965493223507
3873.7,0.6454183412719737
3874.6,0.6506166723619763
3875.5,0.6572819160962385
3876.4,0.6609228795810256
3877.3,0.6572371155827912
3878.2,0.6435383662499391
3879.1,0.6294027493701618
3880.0,0.617148135608698
3880.9,0.6094761000356768
3881.8,0.6037500751312233
3882.7,0.5991252349088377
3883.6,0.5904856667179276
3884.5,0.5791967183767077
3885.4,0.5654888061412106
3886.3,0.5437930742749237
3887.2,0.523714249146441
3888.1,0.5103677389348412
3889.0,0.5065440269585635
3889.9,0.5139962094372095
3890.8,0.5368336202997348
3891.7,0.5630644506298644
3892.6,0.5904593825783266
3893.5,0.6112560304967479
3894.4,0.6281339297402743
3895.3,0.6401955097458168
3896.2,0.6447862480959463
3897.1,0.6518483553985122
3898.0,0.6536733476183314
3898.9,0.6573372019621747
3899.8,0.6602249943947773
3900.7,0.661080034727735
3901.6,0.6596908586657289
3902.51,0.6523977151090139
3903.41,0.6483255308700263
3904.31,0.6405550993731259
3905.21,0.6320030010325833
3906.11,0.630746098257618
3907.01,0.6396508199904868
3907.91,0.653882805964028
3908.81,0.6739764201385112
3909.71,0.6981274747745168
3910.61,0.7132112544636913
3911.51,0.7325807880340237
3912.41,0.7400975637830328
3913.31,0.7418742783832598
3914.21,0.7389017492148026
3915.11,0.7317293469070841
3916.01,0.7234187157983404
3916.91,0.7078797524796739
3917.81,0.6972462163297932
3918.71,0.6765692445315971
3919.61,0.6585268887354122
3920.51,0.6386666198463473
3921.41,0.6209565463622505
3922.31,0.6115951433072643
3923.21,0.6035797142126421
3924.11,0.5960693378458838
3925.01,0.5839479830746349
3925.91,0.5645006167211054
3926.81,0.5359552057423718
3927.71,0.49631251798408144
3928.61,0.4529416639731951
3929.51,0.40326101853059404
3930.41,0.35256694016918694
3931.31,0.3055741989768188
3932.21,0.26568055023720016
3933.11,0.23464305657600237
3934.01,0.21637026855773947
3934.91,0.2151574923936757
3935.81,0.23018950766829085
3936.71,0.2584092871915128
3937.61,0.3006426622097164
3938.51,0.34898923869319715
3939.42,0.40092208117032113
3940.32,0.4472346533532959
3941.22,0.4840500374255738
3942.12,0.5125995821756434
3943.02,0.5349390081912505
3943.92,0.5561918680399739
3944.82,0.5765408914297773
3945.72,0.6022279467340445
3946.62,0.6261228609394499
3947.52,0.6496811674133891
3948.42,0.6751918764160373
3949.32,0.6947295253587068
3950.22,0.7109036805499779
3951.12,0.7243788747629994
3952.02,0.731516900786941
3952.92,0.7383791985780856
3953.82,0.7465927201874745
3954.72,0.7453125893204277
3955.62,0.7467679062210701
3956.52,0.7407724158661361
3957.42,0.7338081434748583
3958.32,0.724304991348849
3959.22,0.7077024872439099
3960.12,0.6876042827577971
3961.02,0.6546390557514078
3961.92,0.6147380137769692
3962.82,0.5656768945764915
3963.72,0.5197387588625685
3964.62,0.47254078821421097
3965.52,0.4256225430874163
3966.42,0.37786780876997567
3967.32,0.3321599570834118
3968.22,0.29604079871693106
3969.12,0.27319142495550863
3970.02,0.27084027211619255
3970.92,0.2885912616862503
3971.82,0.3227386089618186
3972.72,0.36951034619646683
3973.62,0.4253273208394637
3974.52,0.48470280820873113
3975.42,0.5412190848144942
3976.32,0.5968271858827049
3977.22,0.6477411976935287
3978.13,0.6958417311690636
3979.03,0.7388438700022821
3979.93,0.7738090201504552
3980.83,0.802166502099215
3981.73,0.8200034967533357
3982.63,0.8321589579604766
3983.53,0.8346347437586642
3984.43,0.8426734186992202
3985.33,0.8541045703767571
3986.23,0.8642325459649491
3987.13,0.8731717878210075
3988.03,0.8878751363528655
3988.93,0.9025575821184757
3989.83,0.910442478258586
3990.73,0.9241075104126304
3991.63,0.9314373127302538
3992.53,0.9412991931913449
3993.43,0.9398079653644194
3994.33,0.9416400426526794
3995.23,0.9391382361029375
3996.13,0.9296226052340432
3997.03,0.9225342850557289
3997.93,0.9253706375192173
3998.83,0.9294496595999383
3999.73,0.9447525739998838
4000.63,0.9633124818127852
4001.53,0.9772540197356621
4002.43,0.987701705571037
4003.33,0.984996602153567
4004.23,0.9741160062673438
4005.13,0.9593210498257662
4006.03,0.9414602363635706
4006.93,0.9368659212360085
4007.83,0.9360052501617576
4008.73,0.9505052959991488
4009.63,0.9745463896246608
4010.53,0.9931518152406161
4011.43,1.0020859351066582
4012.33,1.013226037333491
4013.23,1.0224709706743613
4014.13,1.02702208017011
4015.03,1.0301182481753166
4015.93,1.034553181461737
4016.84,1.0397187083587056
4017.74,1.0401259577591349
4018.64,1.0450434301319622
4019.54,1.0471410128095044
4020.44,1.0524770936364365
4021.34,1.0514426416357419
4022.24,1.0526966743368253
4023.14,1.0496772856962475
4024.04,1.0473363721153537
4024.94,1.0481136132689086
4025.84,1.053996882911424
4026.74,1.058498975550212
4027.64,1.0610804141103793
4028.54,1.057435548738738
4029.44,1.0430464131824861
4030.34,1.017449865703324
4031.24,0.9844068372516981
4032.14,0.9551407803246904
4033.04,0.9338001385783985
4033.94,0.930420224214814
4034.84,0.9433964151692358
4035.74,0.9692947658597237
4036.64,1.0038093238590544
4037.54,1.0354540675654542
4038.44,1.0662187853177294
4039.34,1.0837398550828479
4040.24,1.0849028921319863
4041.14,1.0794525640596655
4042.04,1.0644014924376517
4042.94,1.0371764583695886
4043.84,1.003421299291172
4044.74,0.9646306211051298
4045.64,0.9361973779853362
4046.54,0.9187875257702324
4047.44,0.9262561998343052
4048.34,0.9522950626303085
4049.24,0.9883136160198733
4050.14,1.0216176884146326
4051.04,1.0463592037263756
4051.94,1.0579372295251788
4052.84,1.0562733938607878
4053.74,1.0454346475073089
4054.65,1.024595684169017
4055.55,1.00976208796676
4056.45,0.994300296574028
4057.35,0.9867045787249479
4058.25,0.9769467999259341
4059.15,0.9796476752505572
4060.05,0.9787354342542469
4060.95,0.9798834599486157
4061.85,0.9719170932812174
4062.75,0.9573666081016128
4063.65,0.9399607988751154
4064.55,0.9306605744262647
4065.45,0.9271043090108926
4066.35,0.9307748270912037
4067.25,0.9515008547637094
4068.15,0.9701014180020269
4069.05,0.9902942254063474
4069.95,0.9989087659668809
4070.85,0.9991332086148146
4071.75,0.9932869507026225
4072.65,0.9880148034350363
4073.55,0.9862868208482074
4074.45,0.9789898505186453
4075.35,0.9651416541907322
4076.25,0.9517096993443129
4077.15,0.9409588379544148
4078.05,0.9344505878218026
4078.95,0.9374055795503607
4079.85,0.9525702490587269
4080.75,0.9782860826495929
4081.65,1.0029109226097659
4082.55,1.024227140265428
4083.45,1.03410798558592
4084.35,1.0402834733098467
4085.25,1.0448515274342747
4086.15,1.0553612927193903
4087.05,1.065861273661614
4087.95,1.078646295411508
4088.85,1.0988767322329493
4089.75,1.109792887088338
4090.65,1.1098090797369657
4091.55,1.1087603159256896
4092.45,1.0989161718564184
4093.36,1.0797922591408808
4094.26,1.062526944884928
4095.16,1.0384521513259755
4096.06,1.0129259308258793
4096.96,0.9873386558584023
4097.86,0.9559766359250955
4098.76,0.9195811944049836
4099.66,0.8892503715124308
4100.56,0.8538486545852272
4101.46,0.8314743973944889
4102.36,0.8140882070600438
4103.26,0.8125559994677709
4104.16,0.8360171993249895
4105.06,0.8667454501836791
4105.96,0.9065225628442343
4106.86,0.9437106594493249
4107.76,0.9666901078964475
4108.66,0.9853489315019996
4109.56,0.9923414761442104
4110.46,1.0018898515021235
4111.36,1.0013704841745275
4112.26,1.0123356237700272
4113.16,1.02285069123075
4114.06,1.0343760069214427
4114.96,1.0485310572195279
4115.86,1.0571715322615844
4116.76,1.0605052955882155
4117.66,1.0551365385019238
4118.56,1.0500597766823596
4119.46,1.0367371065123807
4120.36,1.0290097613334435
4121.26,1.0216154503484958
4122.16,1.020213114630728
4123.06,1.0262922792149316
4123.96,1.0303941992749528
4124.86,1.032519739514784
4125.76,1.036708716849424
4126.66,1.0356536177811342
4127.56,1.0236693493023454
4128.46,1.0197253385610332
4129.36,1.0086102826237053
4130.26,0.9915790187812504
4131.17,0.9802438685101602
4132.06,0.9688847850074034
4132.97,0.9531804415628786
4133.87,0.9548131099059342
4134.77,0.966358141930964
4135.67,0.9832590119278616
4136.57,1.0065992808908868
4137.47,1.0285687553472704
4138.37,1.0414001835965403
4139.27,1.0580556134422345
4140.17,1.0552833633082341
4141.07,1.0439925369760428
4141.97,1.025756323932888
4142.87,0.9966378512605109
4143.77,0.978588984377748
4144.67,0.962924231941629
4145.57,0.9609328052900535
4146.47,0.968992805714399
4147.37,0.9883862305512856
4148.27,0.9982609859173265
4149.17,1.0035610678850129
4150.07,1.0059751004747135
4150.97,1.000805972613742
4151.87,0.992512660643857
4152.77,0.9851913924376932
4153.67,0.979964870141217
4154.57,0.9750268190154467
4155.47,0.9746713971932032
4156.37,0.9760480508508101
4157.27,0.985256061768932
4158.17,0.9926236082779065
4159.07,1.005815123280609
4159.97,1.0215394908355069
4160.87,1.0368278786858396
4161.77,1.0551307586037515
4162.67,1.0590356084321721
4163.57,1.0689248377690213
4164.47,1.0662224203683355
4165.37,1.0622028888678055
4166.27,1.0511285190472899
4167.17,1.0417053776939893
4168.07,1.0330909817224456
4168.98,1.0197877881607664
4169.88,1.0123483983260617
4170.78,0.9974107821083106
4171.68,0.9779843705870555
4172.58,0.9614106085025609
4173.48,0.9453225309741449
4174.38,0.9333712755521912
4175.28,0.9298512690127737
4176.18,0.9380948638858653
4177.08,0.9412474767420624
4177.98,0.9548012593432861
4178.88,0.9618181885797038
4179.78,0.9749433711566811
4180.68,0.9810494311689888
4181.58,0.9882854741025601
4182.48,0.9952056088758948
4183.38,0.9929350922883207
4184.28,0.9992639008345142
4185.18,0.9964796440477129
4186.08,1.004585809084492
4186.98,1.0003637113973858
4187.88,0.9963052836998934
4188.78,0.9954243041006621
4189.68,0.9988474683081158
4190.58,1.0086663621639211
4191.48,1.0196181403611737
4192.38,1.0304549476762754
4193.28,1.0398906915766475
4194.18,1.0372261075413955
4195.08,1.0255122480705516
4195.98,1.016412962531951
4196.88,0.9929486103178544
4197.78,0.9683522868763056
4198.68,0.9546187943623314
4199.58,0.9405212167706898
4200.48,0.9374129358490048
4201.38,0.9358361713570545
4202.28,0.9429608865437992
4203.18,0.9496868429958455
4204.08,0.9692297425799767
4204.98,0.9899892790601506
4205.88,1.0107172283764663
4206.79,1.0281097166420952
4207.69,1.0428868404771579
4208.59,1.058960113563136
4209.49,1.0678204662813058
4210.39,1.069100103676654
4211.29,1.0776436137094727
4212.19,1.066375343162898
4213.09,1.0599877752445948
4213.99,1.0467342711911372
4214.89,1.0401388621127081
4215.79,1.0319652163074586
4216.69,1.0330383751416052
4217.59,1.0381509066090449
4218.49,1.0505782702294164
4219.39,1.0665658336037906
4220.29,1.0850639350288076
4221.19,1.0910342170527558
4222.09,1.0705605011920085
4222.99,1.046276710524845
4223.89,1.0086751155410474
4224.79,0.9566970301985622
4225.69,0.9105263760117497
4226.59,0.8757101364100798
4227.49,0.8574760184765198
4228.39,0.8629560503970654
4229.29,0.8965345052895609
4230.19,0.9424719469106515
4231.09,0.9842082671225043
4231.99,1.0155837129979752
4232.89,1.0342854973423488
4233.79,1.0365788103732805
4234.69,1.0332769044067855
4235.59,1.0219856899740047
4236.49,1.0113768518830004
4237.39,1.0055044178082109
4238.29,1.0067213015173517
4239.19,1.0190851089211503
4240.09,1.0256073963874417
4240.99,1.0433207108355986
4241.89,1.0625334609139077
4242.79,1.076835841720186
4243.69,1.0935294408664218
4244.59,1.104458535802694
4245.5,1.0997620903691252
4246.4,1.095544974819986
4247.3,1.0814596669192749
4248.2,1.061967564041695
4249.1,1.0430750206295623
4250.0,1.0190605589776558
4250.9,1.0073359001071542
4251.8,1.0044127979220163
4252.7,1.006435408688611
4253.6,1.0157993341479439
4254.5,1.0175243813914228
4255.4,1.0232614869309005
4256.3,1.0288693029118943
4257.2,1.0295982564919686
4258.1,1.030562922342552
4259.0,1.024374608170767
4259.9,1.0125357548157745
4260.8,1.0100669470990105
4261.7,1.0084837513492173
4262.6,1.0280394449879842
4263.5,1.0552562701072485
4264.4,1.0838807889035063
4265.3,1.1055533526816392
4266.2,1.1149573783792164
4267.1,1.1114469811658831
4268.0,1.0960806586363467
4268.9,1.0685783766931056
4269.8,1.0335272932447646
4270.7,0.9930004706669427
4271.6,0.9563683257573792
4272.5,0.9282921241807719
4273.4,0.9132291884324529
4274.3,0.9140510189391717
4275.2,0.9337476886723541
4276.1,0.9591013269029937
4277.0,0.9905525533830188
4277.9,1.0213738814363202
4278.8,1.0392133607907457
4279.7,1.0562248311038613
4280.6,1.0560973048346682
4281.5,1.0587508028482806
4282.4,1.047232705956981
4283.31,1.0448867246467715
4284.21,1.0328710525676368
4285.11,1.0252972369084996
4286.01,1.011776294223019
4286.91,0.9961121490310865
4287.81,0.9778213091434327
4288.71,0.9609450276784768
4289.61,0.9380966060249758
4290.51,0.9300994526260536
4291.41,0.9290333504303149
4292.31,0.9362615996200581
4293.21,0.9493159827073314
4294.11,0.9554615560589783
4295.01,0.966301875094381
4295.91,0.9525321483659969
4296.81,0.9397687371801657
4297.71,0.910881284624162
4298.61,0.876543170970338
4299.51,0.8422262274373998
4300.41,0.8121481803680729
4301.31,0.7899559502359074
4302.21,0.7771629601870546
4303.11,0.7691050162625005
4304.01,0.7705428901303902
4304.91,0.7680051554046006
4305.81,0.7626189105766457
4306.71,0.7589498013463806
4307.61,0.7519171553022731
4308.51,0.7439243901567719
4309.41,0.7454370169047894
4310.31,0.7580739206250546
4311.21,0.7818143253172255
4312.11,0.8116938280125374
4313.01,0.8582964456831931
4313.91,0.906619245403367
4314.81,0.9633811790407354
4315.71,1.019457937042864
4316.61,1.0796173579094694
4317.51,1.1209014187966941
4318.41,1.153583957080863
4319.31,1.1680889880148257
4320.21,1.1708721518319487
4321.12,1.1505890944631936
4322.02,1.1144325714471544
4322.92,1.0760251394650897
4323.82,1.0305162371299577
4324.72,0.9918546366697483
4325.62,0.9603004636648583
4326.52,0.9502182849221206
4327.42,0.9603748286639446
4328.32,0.9880055499692796
4329.22,1.0295681587255945
4330.12,1.0646472432693854
4331.02,1.0997318218850496
4331.92,1.1186716535737653
4332.82,1.1300076360149223
4333.72,1.1327417368646737
4334.62,1.121346731622174
4335.52,1.1039459700705843
4336.42,1.068695269442409
4337.32,1.0266774694146432
4338.22,0.9813014301553502
4339.12,0.9286488419176836
4340.02,0.8868931021346725
4340.92,0.8620607398049358
4341.82,0.8598052928966758
4342.72,0.8734707992375742
4343.62,0.9035135008717177
4344.52,0.9486824451488958
4345.42,0.9839751370839114
4346.32,1.0182966719793953
4347.22,1.0500290093974405
4348.12,1.0705935603513708
4349.02,1.0787162283713942
4349.92,1.0738996331034183
4350.82,1.0624419464831916
4351.72,1.042908852585986
4352.62,1.0301110154089188
4353.52,1.021578145572013
4354.42,1.0236780225889244
4355.32,1.0340846564319062
4356.22,1.0467837509927187
4357.12,1.062757754560576
4358.02,1.0756036423233601
4358.92,1.0802411743785978
4359.83,1.090157333123155
4360.73,1.1038827586004725
4361.63,1.1078361292383967
4362.53,1.1218297248659603
