wave,flux
3700.85,-0.018654276033878835
3701.75,-0.018763862712406286
3702.65,-0.01844910233528142
3703.55,-0.017797646429110844
3704.45,-0.016998373352575626
3705.35,-0.01629662567574179
3706.25,-0.015860887265997076
3707.15,-0.01570892472333099
3708.05,-0.015960685047048045
3708.96,-0.016565059662317548
3709.86,-0.017307276134643182
3710.76,-0.01835269851173605
3711.66,-0.019630814103280936
3712.56,-0.02104773737921531
3713.46,-0.022338114484207
3714.36,-0.023549591496815337
3715.26,-0.024344845002684388
3716.16,-0.024735391452645365
3717.06,-0.02455077257248712
3717.96,-0.02379910986464668
3718.86,-0.022476485116396987
3719.76,-0.021143043655541403
3720.66,-0.019993166314938037
3721.56,-0.019089637287384307
3722.46,-0.019207851117924044
3723.36,-0.020230797284489222
3724.26,-0.021906706901797107
3725.16,-0.023687162295509386
3726.06,-0.025247512812943507
3726.96,-0.026469205432298155
3727.86,-0.027246927088415463
3728.76,-0.02754140701604594
3729.66,-0.027873927341291613
3730.56,-0.027829994585462696
3731.46,-0.02711779680645097
3732.36,-0.026124228800931498
3733.26,-0.024468620062891577
3734.16,-0.02288704823952525
3735.06,-0.02174415172123705
3735.96,-0.02141155676189433
3736.86,-0.022081517835004096
3737.76,-0.0237629189001564
3738.66,-0.026253977653524253
3739.56,-0.0290909472383332
3740.46,-0.03191347487385145
3741.36,-0.0338994251222932
3742.26,-0.03496742527750749
3743.16,-0.03498711306003102
3744.06,-0.03404870867075992
3744.96,-0.032880796647159885
3745.86,-0.031654322609141174
3746.76,-0.030434934745784435
3747.67,-0.02950897435955771
3748.57,-0.028672793392408163
3749.47,-0.028830658490333658
3750.37,-0.029984549275895302
3751.27,-0.03249856427838263
3752.17,-0.03587858910308426
3753.07,-0.04041159574170819
3753.97,-0.044430152874216505
3754.87,-0.04792810537569623
3755.77,-0.050170916442041955
3756.67,-0.050720146617111356
3757.57,-0.05007331972469331
3758.47,-0.04921429429532128
3759.37,-0.048160831251087076
3760.27,-0.048349884084126285
3761.17,-0.04959762971101522
3762.07,-0.051399197157474645
3762.97,-0.05315858397246827
3763.87,-0.05483947550549717
3764.77,-0.056516507692623716
3765.67,-0.057443324565390176
3766.57,-0.05814597900329476
3767.47,-0.0588088877708968
3768.37,-0.059755107675640816
3769.27,-0.06069742867872332
3770.17,-0.06210269260018786
3771.07,-0.06421863807364774
3771.97,-0.06697202246307232
3772.87,-0.07119791651318991
3773.77,-0.07479298806606294
3774.67,-0.07858554495338928
3775.57,-0.08183486087445291
3776.47,-0.08533573717414514
3777.37,-0.08825045060935753
3778.27,-0.09185187283874946
3779.17,-0.09573801907208518
3780.07,-0.09971556461292622
3780.97,-0.10388818273148598
3781.87,-0.10778003743097332
3782.77,-0.11097838783473471
3783.67,-0.1134043880820371
3784.57,-0.11395433189105972
3785.47,-0.11396959651685501
3786.38,-0.11237544327500937
3787.28,-0.11023651695911946
3788.18,-0.10848566508862895
3789.08,-0.1076035119768665
3789.98,-0.10814835166748872
3790.88,-0.10940229324809242
3791.78,-0.11173812754213515
3792.68,-0.11401373229812878
3793.58,-0.11413646293101297
3794.48,-0.11302261017794905
3795.38,-0.1124702230869174
3796.28,-0.11066648374667597
3797.18,-0.10926802744737639
3798.08,-0.10982755973980061
3798.98,-0.1126413430126876
3799.88,-0.11846735288010372
3800.78,-0.12827023920164582
3801.68,-0.14171970171413856
3802.58,-0.15504511644338462
3803.48,-0.16806410252519532
3804.38,-0.17906455849798403
3805.28,-0.18852904962255523
3806.18,-0.19424082269985518
3807.08,-0.19932536725248157
3807.98,-0.20514100066860622
3808.88,-0.21207343585256808
3809.78,-0.21980063895137278
3810.68,-0.22782774478823245
3811.58,-0.232079146253911
3812.48,-0.23463580629113687
3813.38,-0.23365933982141837
3814.28,-0.23079150320387026
3815.18,-0.2288201370203543
3816.08,-0.22817993442618453
3816.98,-0.23162524471224957
3817.88,-0.23843007369711872
3818.78,-0.24244059551430563
3819.68,-0.2481174562223873
3820.58,-0.25275787439655223
3821.48,-0.2563364487012031
3822.38,-0.2625166377245897
3823.28,-0.2681198275796637
3824.18,-0.27193934768857725
3825.09,-0.2739031870088471
3825.99,-0.2739938400696733
3826.89,-0.27546416789312517
3827.79,-0.2798287870448994
3828.69,-0.28658764643168083
3829.59,-0.2973810910368348
3830.49,-0.30392231324103625
3831.39,-0.30829372054179194
3832.29,-0.31418660385355357
3833.19,-0.3145471828278359
3834.09,-0.317051535364854
3834.99,-0.3226017841047539
3835.89,-0.333535805561459
3836.79,-0.3520058842437841
3837.69,-0.37262820780478323
3838.59,-0.40054499473168337
3839.49,-0.43455799683229984
3840.39,-0.4778680807745107
3841.29,-0.537384835736085
3842.19,-0.6095056049779409
3843.09,-0.6936695052496682
3843.99,-0.7827716072890692
3844.89,-0.8725481180834173
3845.79,-0.9614541774267651
3846.69,-1.0523932160170144
3847.59,-1.1405313841438656
3848.49,-1.2333465475238812
3849.39,-1.3338427012839895
3850.29,-1.4492492503755354
3851.19,-1.5729008308000543
3852.09,-1.7319424951363132
3852.99,-1.9223315389599536
3853.89,-2.1377765036173924
3854.79,-2.386155090090346
3855.69,-2.6755868288698568
3856.59,-3.023701992554713
3857.49,-3.477107112549891
3858.39,-4.1471450411455955
3859.29,-5.187710734212646
3860.19,-7.112978329216871
3861.09,-11.382255561593112
3861.99,-27.313772143421485
3862.9,94.92872424321712
3863.8,19.011591296984133
3864.7,10.841326159634152
3865.6,7.68723363003042
3866.5,5.955488861114248
3867.4,4.841576543827404
3868.3,4.050854565710658
3869.2,3.4844199260394118
3870.1,3.0162617498122137
3871.0,2.653534786615219
3871.9,2.362527951289086
3872.8,2.1550187967678838
3873.7,1.9974042473119293
3874.6,1.8881016708362037
3875.5,1.8099303953074972
3876.4,1.7248983635038544
3877.3,1.6446704899278277
3878.2,1.544267776635382
3879.1,1.4612892022796709
3880.0,1.3854796160636804
3880.9,1.3221780904273235
3881.8,1.273011607722287
3882.7,1.2245669872307803
3883.6,1.1779086887655301
3884.5,1.1237321285751063
3885.4,1.0658951857485472
3886.3,0.9996472245734385
3887.2,0.9418751982104578
3888.1,0.8966759654775972
3889.0,0.8649121432451355
3889.9,0.8609890541771341
3890.8,0.8770602936225319
3891.7,0.8995539054150669
3892.6,0.929006849249729
3893.5,0.9477677013320942
3894.4,0.9629875950708898
3895.3,0.963922291412278
3896.2,0.9650090696004363
3897.1,0.9611226134527608
3898.0,0.9532738589913587
3898.9,0.9502810481119554
3899.8,0.9428072553983841
3900.7,0.9352842146891835
3901.6,0.9246960924185086
3902.51,0.910414958674198
3903.41,0.8961102555227932
3904.31,0.878346242629177
3905.21,0.8601774543093603
3906.11,0.8496883929268119
3907.01,0.8522253708124427
3907.91,0.859567156283613
3908.81,0.8815308534653511
3909.71,0.9007282392893617
3910.61,0.9174690159121792
3911.51,0.929895024320567
3912.41,0.9351973656237517
3913.31,0.9286977568575691
3914.21,0.9218875919978713
3915.11,0.9029973859981258
3916.01,0.8872103358802534
3916.91,0.8669235185606619
3917.81,0.8430733751696532
3918.71,0.8211433537346541
3919.61,0.7955815267874053
3920.51,0.7741856238477912
3921.41,0.750698018817817
3922.31,0.7356846774183381
3923.21,0.7247234743528955
3924.11,0.7096174432404885
3925.01,0.6965263513580323
3925.91,0.6699826702390342
3926.81,0.6361534240019283
3927.71,0.5865343450149174
3928.61,0.5329985497198854
3929.51,0.4726515064996579
3930.41,0.41405243152695886
3931.31,0.3570895255664566
3932.21,0.307846115263918
3933.11,0.26937962557111356
3934.01,0.24910116406410795
3934.91,0.24573545432015048
3935.81,0.2614300510649916
3936.71,0.29285470669420904
3937.61,0.3395455582200069
3938.51,0.3942759580453516
3939.42,0.44978183782289355
3940.32,0.5005162344532919
3941.22,0.5420643570913481
3942.12,0.574031319599392
3943.02,0.5977108588062089
3943.92,0.6182493117994892
3944.82,0.6411684123138593
3945.72,0.6604403201115817
3946.62,0.6882375534386822
3947.52,0.7139965186208221
3948.42,0.730513821702833
3949.32,0.750505111077656
3950.22,0.7675223069839249
3951.12,0.7777322149252076
3952.02,0.7839841579780943
3952.92,0.7905992397473774
3953.82,0.793541040302992
3954.72,0.7933707517359572
3955.62,0.7920061125476897
3956.52,0.7866909412254458
3957.42,0.7816166481705094
3958.32,0.7658420402087653
3959.22,0.7503033515539682
3960.12,0.7249767412719217
3961.02,0.6953258050314909
3961.92,0.6534389209187196
3962.82,0.6035381192489127
3963.72,0.5540021821904076
3964.62,0.5042250189691538
3965.52,0.4518826651218011
3966.42,0.4007250663999849
3967.32,0.35227911768406184
3968.22,0.3108193169924561
3969.12,0.28768608430434567
3970.02,0.2827700237763562
3970.92,0.29959271372893165
3971.82,0.336067233723631
3972.72,0.3835268026923301
3973.62,0.43898916990155584
3974.52,0.5025771710837457
3975.42,0.5603375062888833
3976.32,0.618329472851101
3977.22,0.669681488904369
3978.13,0.7193359707010811
3979.03,0.7605609496320774
3979.93,0.7912937127663777
3980.83,0.8178003902133688
3981.73,0.8356387149102273
3982.63,0.8489469360423139
3983.53,0.8535184248941468
3984.43,0.8611299921826308
3985.33,0.8668960135815621
3986.23,0.8775258738558478
3987.13,0.8909239266810344
3988.03,0.9035721222563065
3988.93,0.9165616791448346
3989.83,0.9272570984873305
3990.73,0.9330160745608327
3991.63,0.9448715443734176
3992.53,0.948533744606007
3993.43,0.9509789035840601
3994.33,0.9488672346906534
3995.23,0.9478482922437091
3996.13,0.9366813723098835
3997.03,0.9313236061978695
3997.93,0.9280740094182116
3998.83,0.9364862412267175
3999.73,0.9478830170658706
4000.63,0.9625140486555349
4001.53,0.9778501088504216
4002.43,0.9829280433829161
4003.33,0.9846469891584102
4004.23,0.9714097624220434
4005.13,0.9615901392094602
4006.03,0.9485514645936122
4006.93,0.9395903727292255
4007.83,0.9439079918489982
4008.73,0.9535581184073408
4009.63,0.9716293927637786
4010.53,0.9880223151599253
4011.43,1.0065982688604787
4012.33,1.0138233226171873
4013.23,1.0226060073794672
4014.13,1.028211975035922
4015.03,1.0270523465295718
4015.93,1.0309476570724918
4016.84,1.033063501228583
4017.74,1.0331401265771156
4018.64,1.0348944682551469
4019.54,1.0393186650570791
4020.44,1.0436898983421334
4021.34,1.0421000877014053
4022.24,1.045576833097303
4023.14,1.0423437755648415
4024.04,1.0395071514048984
4024.94,1.0440569222809433
4025.84,1.0451596733632738
4026.74,1.0497647614973284
4027.64,1.0554331996975332
4028.54,1.055043096838514
4029.44,1.0429595676398804
4030.34,1.020086869947433
4031.24,0.9910188007523604
4032.14,0.9633347385193114
4033.04,0.9483071105110231
4033.94,0.9463169517079482
4034.84,0.956704818484123
4035.74,0.9764494850199669
4036.64,1.0082468763333141
4037.54,1.0417760486507261
4038.44,1.0636023555163912
4039.34,1.0792374808698149
4040.24,1.0806782666918753
4041.14,1.0720687085014304
4042.04,1.0570177563969365
4042.94,1.0321662200710413
4043.84,1.002492340733614
4044.74,0.9672096214571975
4045.64,0.9446036582254836
4046.54,0.9356686973843634
4047.44,0.9373762140386154
4048.34,0.9598789428446295
4049.24,0.9905295195860173
4050.14,1.0193795031768176
4051.04,1.0481677086478516
4051.94,1.0512913513630806
4052.84,1.0518331091998736
4053.74,1.040891225683092
4054.65,1.025922031248713
4055.55,1.016951578171751
4056.45,1.0005233189075233
4057.35,0.9914982313370505
4058.25,0.9919416830638044
4059.15,0.9891480525801519
4060.05,0.9896537362192966
4060.95,0.988578858237781
4061.85,0.984146786919092
4062.75,0.9688813496544065
4063.65,0.9538636744446378
4064.55,0.9416951365140304
4065.45,0.9376179900519893
4066.35,0.9493023226635752
4067.25,0.9630757734286625
4068.15,0.9758019174415559
4069.05,0.9939964716272902
4069.95,0.9991461242465566
4070.85,1.0069639102248629
4071.75,0.9987447670597205
4072.65,0.9927076594227017
4073.55,0.9843224839084339
4074.45,0.978447347889177
4075.35,0.9692805523908571
4076.25,0.9525907647711694
4077.15,0.9409227141342332
4078.05,0.9348468665745469
4078.95,0.9358348483291014
4079.85,0.9515966513058274
4080.75,0.9725947594651285
4081.65,1.000299266124037
4082.55,1.0157178161777802
4083.45,1.027513189966629
4084.35,1.0271686095814296
4085.25,1.0350528072793739
4086.15,1.0412901185630337
4087.05,1.0531665848305702
4087.95,1.0689974499633565
4088.85,1.0857938371513616
4089.75,1.097874867506855
4090.65,1.1049608421592618
4091.55,1.098442543906937
4092.45,1.088378300118297
4093.36,1.071626392950746
4094.26,1.0579928103572074
4095.16,1.0375234003702942
4096.06,1.0135670513591097
4096.96,0.9844196126840296
4097.86,0.9509417471612416
4098.76,0.9209116787595542
4099.66,0.8884674949250754
4100.56,0.8507265984859307
4101.46,0.8254942913079519
4102.36,0.8069866891942707
4103.26,0.8086762054293849
4104.16,0.8297650410286072
4105.06,0.8584244130643137
4105.96,0.8944421399692194
4106.86,0.9318510892601893
4107.76,0.9595884118246776
4108.66,0.9777069589247714
4109.56,0.9858142234923735
4110.46,0.9959010126798302
4111.36,0.9991872452077376
4112.26,1.009227541752353
4113.16,1.0130798492224455
4114.06,1.0314788295442863
4114.96,1.0432437723218546
4115.86,1.0504019065563897
4116.76,1.0543308357518972
4117.66,1.050837709446789
4118.56,1.0429162226880393
4119.46,1.031699539614407
4120.36,1.0232769484848916
4121.26,1.018692602399882
4122.16,1.0188697475727035
4123.06,1.024849616641926
4123.96,1.02777300216141
4124.86,1.0334764919200963
4125.76,1.0300921420904992
4126.66,1.032627263465103
4127.56,1.0268056470941147
4128.46,1.0159308916504737
4129.36,1.0058724693120824
4130.26,0.9926131774209523
4131.17,0.9813726324092585
4132.06,0.9666182229539031
4132.97,0.9603003157258805
4133.87,0.959771962538625
4134.77,0.9668311911308913
4135.67,0.9841588370352482
4136.57,1.0070984538864969
4137.47,1.025104235298952
4138.37,1.0401043771967553
4139.27,1.0480545830795012
4140.17,1.0575306900349741
4141.07,1.0402997647584944
4141.97,1.0234436353117207
4142.87,0.9999967028575387
4143.77,0.9774864567881052
4144.67,0.9651955319007787
4145.57,0.9634398056872613
4146.47,0.9735332592445526
4147.37,0.9868315887762789
4148.27,1.002012629532613
4149.17,1.011160136994354
4150.07,1.0106769874235473
4150.97,1.008762397371663
4151.87,1.0037780987592009
4152.77,0.9931271147487807
4153.67,0.9893600952355968
4154.57,0.9869205067338838
4155.47,0.9836898312973327
4156.37,0.9840241109744232
4157.27,0.992196977450368
4158.17,1.0021349991965534
4159.07,1.0105219894141289
4159.97,1.027745336168841
4160.87,1.043737009694603
4161.77,1.0535843382733623
4162.67,1.060962716242152
4163.57,1.0665912562378168
4164.47,1.0680330664146787
4165.37,1.0598955161253107
4166.27,1.0547221329550067
4167.17,1.0428447274011536
4168.07,1.0376866303458379
4168.98,1.0248651190879692
4169.88,1.0101314706961677
4170.78,0.9982811214851993
4171.68,0.9855172283832311
4172.58,0.9619685515409354
4173.48,0.9488948260818075
4174.38,0.9411420761525362
4175.28,0.9417884656700486
4176.18,0.9438011326416184
4177.08,0.9471400955277361
4177.98,0.961282460582462
4178.88,0.9711959166047579
4179.78,0.9785579927982166
4180.68,0.9879289630063021
4181.58,0.9910272513524764
4182.48,0.9997749027009714
4183.38,1.0054894333754574
4184.28,1.0076503366139444
4185.18,1.003772305008477
4186.08,1.004103622254834
4186.98,0.9969523901046097
4187.88,0.9972538551825462
4188.78,0.9972003290352958
4189.68,1.0022415967522147
4190.58,1.0086121916006832
4191.48,1.0182378024452472
4192.38,1.0286740260221392
4193.28,1.0365939911482718
4194.18,1.0377430192434915
4195.08,1.0277851519408694
4195.98,1.0167835501494271
4196.88,0.9989579262748469
4197.78,0.9784786637011578
4198.68,0.9647405069840798
4199.58,0.9520835778338921
4200.48,0.9456115547559485
4201.38,0.9459312632336699
4202.28,0.9476214558176502
4203.18,0.9604131092724163
4204.08,0.96891142360617
4204.98,0.9897677151987112
4205.88,1.0042802533300772
4206.79,1.018323697633426
4207.69,1.0406284048905878
4208.59,1.0525567858231768
4209.49,1.0626012732794572
4210.39,1.0678589447471676
4211.29,1.0750561568378105
4212.19,1.0675831778390763
4213.09,1.059946237148245
4213.99,1.0513789244828595
4214.89,1.039216338922885
4215.79,1.0314479685220421
4216.69,1.029449902451566
4217.59,1.0356510929895775
4218.49,1.0417353693868558
4219.39,1.0593014409823915
4220.29,1.0712590611604313
4221.19,1.0746511062168937
4222.09,1.063158792774867
4222.99,1.038954940451899
4223.89,1.005265003057803
4224.79,0.9605419564559864
4225.69,0.9169666831946248
4226.59,0.8797246128868405
4227.49,0.8664087412555933
4228.39,0.8790657349705386
4229.29,0.9058391645307282
4230.19,0.9443478951322197
4231.09,0.9892466877888363
4231.99,1.0144874768056003
4232.89,1.0236656184853536
4233.79,1.0342270500700117
4234.69,1.0274896950221808
4235.59,1.016926881683469
4236.49,1.0137921380336483
4237.39,1.0038637982978926
4238.29,1.007670118588649
4239.19,1.0125326321058172
4240.09,1.0206078902348963
4240.99,1.0395469589271873
4241.89,1.047869409334797
4242.79,1.0644968114807494
4243.69,1.0781954058816896
4244.59,1.0808169613977143
4245.5,1.0859632144967448
4246.4,1.0795308904109235
4247.3,1.0639596720652127
4248.2,1.0466634862545392
4249.1,1.0295583408512694
4250.0,1.0138264393276586
4250.9,1.0040791526188328
4251.8,1.0055836765823902
4252.7,1.014795378023406
4253.6,1.0184125130295907
4254.5,1.0218604774326034
4255.4,1.0255485550871324
4256.3,1.0309867915448243
4257.2,1.0302515262758782
4258.1,1.0315113490220769
4259.0,1.0242642976751175
4259.9,1.0176624447463838
4260.8,1.011663558603853
4261.7,1.0155467060122556
4262.6,1.0316450798895724
4263.5,1.055139255721667
4264.4,1.0706146234899865
4265.3,1.094221662641454
4266.2,1.106904398429898
4267.1,1.099131315711959
4268.0,1.0865213038579278
4268.9,1.0618749683525934
4269.8,1.0322672664857038
4270.7,0.9988027095785942
4271.6,0.9641813392447147
4272.5,0.9398577749624792
4273.4,0.9253823297687581
4274.3,0.9279152398496949
4275.2,0.9434057342507899
4276.1,0.9656351283887675
4277.0,0.9931708746310283
4277.9,1.021266812778503
4278.8,1.0417825909179972
4279.7,1.0484620650706242
4280.6,1.0530029252531419
4281.5,1.0519289250577337
4282.4,1.0416861190281088
4283.31,1.034825075264265
4284.21,1.025380240159076
4285.11,1.0199720805665056
4286.01,1.0105489751980479
4286.91,0.9927007667459966
4287.81,0.979380822554466
4288.71,0.9532282241654968
4289.61,0.9413268240544236
4290.51,0.9335016548218965
4291.41,0.9353014383917976
4292.31,0.9423130160439853
4293.21,0.9560419898943147
4294.11,0.9621658891050249
4295.01,0.9647259998633968
4295.91,0.9582228129197811
4296.81,0.9394433405537973
4297.71,0.9125139835949431
4298.61,0.8807430643804414
4299.51,0.8473924685927325
4300.41,0.8190192437095437
4301.31,0.7968404418492656
4302.21,0.7855680960772887
4303.11,0.7793766358130487
4304.01,0.7776503527557479
4304.91,0.7800999613624013
4305.81,0.7788419378662659
4306.71,0.7722976012971856
4307.61,0.7627864542600041
4308.51,0.7574106621947744
4309.41,0.7596917663741132
4310.31,0.7664175513246028
4311.21,0.7884351517221643
4312.11,0.8191637264666389
4313.01,0.8566467697615489
4313.91,0.9038641736073503
4314.81,0.9573638225710777
4315.71,1.01664757477359
4316.61,1.0690695504554246
4317.51,1.1141145097141454
4318.41,1.150380978106488
4319.31,1.160678775805088
4320.21,1.158987922767467
4321.12,1.1445174399235367
4322.02,1.11336845870231
4322.92,1.0742460540694379
4323.82,1.0323110857475009
4324.72,0.9957573840653884
4325.62,0.9682260419906211
4326.52,0.9579955953666904
4327.42,0.9719169666713984
4328.32,0.9944501156407137
4329.22,1.0330933960332034
4330.12,1.0624334117581768
4331.02,1.0887993909088223
4331.92,1.1086463042817496
4332.82,1.1193971871610204
4333.72,1.1241020749605317
4334.62,1.1145358004452273
4335.52,1.096103236721192
4336.42,1.0593703381284036
4337.32,1.0175665301477115
4338.22,0.9689993343184862
4339.12,0.9170584776409578
4340.02,0.8818668547113243
4340.92,0.8593480973336018
4341.82,0.8566984416546862
4342.72,0.87374621530735
4343.62,0.9052676121820837
4344.52,0.9390433742068469
4345.42,0.9786885437295789
4346.32,1.0131705334304584
4347.22,1.0406567052264846
4348.12,1.0612466622263999
4349.02,1.0680183905026175
4349.92,1.066850330490706
4350.82,1.0549888973836359
4351.72,1.041967374314121
4352.62,1.0290786469508018
4353.52,1.0200286529608185
4354.42,1.0200665280986219
4355.32,1.0285411353179652
4356.22,1.044296216994973
4357.12,1.0589568703885053
4358.02,1.074389150155834
4358.92,1.081714803501404
4359.83,1.0872571668811104
4360.73,1.0916294982800738
