wave,flux
3700.85,0.028381704923398584
3701.75,0.028114188130330935
3702.65,0.027322069829916935
3703.55,0.026045520734502225
3704.45,0.024787679818102357
3705.35,0.02334896420791771
3706.25,0.02246469899298323
3707.15,0.021965136184512853
3708.05,0.02216478490523366
3708.96,0.02286027750653942
3709.86,0.023862855648302192
3710.76,0.025396079479840895
3711.66,0.02722158808087466
3712.56,0.02923864975655102
3713.46,0.030915662457305884
3714.36,0.0324112825658864
3715.26,0.033188242076656896
3716.16,0.03306134236821009
3717.06,0.0323201143669857
3717.96,0.030687360792024374
3718.86,0.02851801857359684
3719.76,0.026200639035250967
3720.66,0.024290161410024647
3721.56,0.02305695586368946
3722.46,0.023146078052217755
3723.36,0.024489463081010403
3724.26,0.02650648460069546
3725.16,0.028694951621617934
3726.06,0.03055448001790536
3726.96,0.03184790331141421
3727.86,0.032248656430530716
3728.76,0.03267754071017616
3729.66,0.03262601845338608
3730.56,0.0323481239471668
3731.46,0.03136745558346978
3732.36,0.029682553048261544
3733.26,0.027578897147431173
3734.16,0.0253590581214656
3735.06,0.023684760674709822
3735.96,0.022789311924401014
3736.86,0.023160369967338702
3737.76,0.024737941510283797
3738.66,0.02742480271465593
3739.56,0.030388235468367074
3740.46,0.03323131904096818
3741.36,0.03493890846860531
3742.26,0.035773978857797435
3743.16,0.03542082706801311
3744.06,0.03414699467854837
3744.96,0.032397665785535976
3745.86,0.030554070046528957
3746.76,0.029005061779846648
3747.67,0.027685604600694455
3748.57,0.02703306243211083
3749.47,0.027325366588433743
3750.37,0.028680696947991444
3751.27,0.03134041761672904
3752.17,0.034826546439752665
3753.07,0.038715532025021614
3753.97,0.04250323638459755
3754.87,0.045230469440744825
3755.77,0.04665391650269614
3756.67,0.04630913824676845
3757.57,0.04520994257615692
3758.47,0.043320100017651485
3759.37,0.042140206653934996
3760.27,0.041687603032476116
3761.17,0.04231137160284296
3762.07,0.04351938629031871
3762.97,0.04457693122045713
3763.87,0.045901302924386024
3764.77,0.04672504443393913
3765.67,0.047432915492792986
3766.57,0.047886910832757666
3767.47,0.048542177524007274
3768.37,0.04915183358701859
3769.27,0.050417102967848446
3770.17,0.05152791140689723
3771.07,0.053235473582504265
3771.97,0.05558926628508502
3772.87,0.05797612196129414
3773.77,0.06006204452203874
3774.67,0.06199156289036638
3775.57,0.06377114911961798
3776.47,0.06518059105154397
3777.37,0.06647454525140829
3778.27,0.06814944220169991
3779.17,0.06969601455627626
3780.07,0.07166127868156824
3780.97,0.07384383702284528
3781.87,0.07611763255553351
3782.77,0.07710058951187368
3783.67,0.07775160065554879
3784.57,0.07713608265103107
3785.47,0.0759198821350315
3786.38,0.07389219701291977
3787.28,0.07103259480936995
3788.18,0.068860496958004
3789.08,0.06762699667780026
3789.98,0.06699252544177106
3790.88,0.0676458794802233
3791.78,0.06844535606572166
3792.68,0.06872873344669733
3793.58,0.06865393884789497
3794.48,0.06773374881727807
3795.38,0.06642698081617221
3796.28,0.06513625115116477
3797.18,0.06375992556732593
3798.08,0.0633957918655107
3798.98,0.06462130643655017
3799.88,0.0668502920086739
3800.78,0.0711865833083643
3801.68,0.07683202453323261
3802.58,0.08269841432169504
3803.48,0.08826910753195186
3804.38,0.09282080935756043
3805.28,0.09499524873696405
3806.18,0.09623538482670962
3807.08,0.09677132336319391
3807.98,0.09788809857244399
3808.88,0.09863775015025403
3809.78,0.1010003853535267
3810.68,0.10204053379094061
3811.58,0.10232611921961507
3812.48,0.10089893830090257
3813.38,0.09750976714675685
3814.28,0.0942759897638515
3815.18,0.09095059875088565
3816.08,0.08844112866569294
3816.98,0.08767216783743745
3817.88,0.08737866958261785
3818.78,0.08768097819305842
3819.68,0.08704641295453704
3820.58,0.08617619156468169
3821.48,0.08544811669472593
3822.38,0.0854323558226719
3823.28,0.08492671707256709
3824.18,0.08393219034242029
3825.09,0.0823552310266403
3825.99,0.0802083832514865
3826.89,0.07838741582065077
3827.79,0.0775953695879557
3828.69,0.07834943912191335
3829.59,0.07931269845237662
3830.49,0.07965776230258473
3831.39,0.0796936240984378
3832.29,0.07888831896740604
3833.19,0.07761629340723367
3834.09,0.0768884225526239
3834.99,0.07675492779684753
3835.89,0.07757432757037606
3836.79,0.07916321148628803
3837.69,0.08066554895833275
3838.59,0.08233109785731332
3839.49,0.08540297913228427
3840.39,0.08979773774418108
3841.29,0.09723301536124107
3842.19,0.10607178797363467
3843.09,0.11624703455814148
3843.99,0.12630132806767894
3844.89,0.13532483436846676
3845.79,0.1424107640867342
3846.69,0.146893125917643
3847.59,0.15026641794972145
3848.49,0.15202227423115433
3849.39,0.153092205072348
3850.29,0.15404441404455635
3851.19,0.15535371198117198
3852.09,0.15654769897313167
3852.99,0.15919204198130663
3853.89,0.15949425657303576
3854.79,0.1595612591171931
3855.69,0.15743502851425062
3856.59,0.1539618313285754
3857.49,0.14963266499668912
3858.39,0.14684430952823446
3859.29,0.14443271645296096
3860.19,0.1448408252313823
3861.09,0.1487868255754823
3861.99,0.15793887222820976
3862.9,0.1672415357258303
3863.8,0.17765608656970233
3864.7,0.1861064329745463
3865.6,0.19274107021291662
3866.5,0.1944293424392969
3867.4,0.19555054218876333
3868.3,0.19519956139701586
3869.2,0.19403232609272777
3870.1,0.1912142382924136
3871.0,0.18756664959485866
3871.9,0.18436671832804485
3872.8,0.184194951617178
3873.7,0.18919322926945045
3874.6,0.193831885950133
3875.5,0.20167409118224858
3876.4,0.20622290195632137
3877.3,0.20788150901434566
3878.2,0.2077803879854224
3879.1,0.20739110326760524
3880.0,0.20713894283280812
3880.9,0.2096829233434011
3881.8,0.21372823975837682
3882.7,0.21547251739002776
3883.6,0.21812450434134678
3884.5,0.21981230192972495
3885.4,0.2177222149665152
3886.3,0.21537834044624943
3887.2,0.21186486513204356
3888.1,0.2108811043390335
3889.0,0.21407913940526327
3889.9,0.22193807932343176
3890.8,0.23458266681594478
3891.7,0.24968855293538167
3892.6,0.26481185498456794
3893.5,0.2758295241290944
3894.4,0.28685424072314203
3895.3,0.2939268499440798
3896.2,0.2995404211312465
3897.1,0.3052157469335913
3898.0,0.30953157781921425
3898.9,0.3142497960344794
3899.8,0.31956032318187666
3900.7,0.32175125634387564
3901.6,0.3270295522267779
3902.51,0.32664592807571735
3903.41,0.3302225962217954
3904.31,0.32876620431276543
3905.21,0.32858629224971286
3906.11,0.3317672565860878
3907.01,0.3396111053421577
3907.91,0.3527218867193534
3908.81,0.3667339456189916
3909.71,0.38609987760136527
3910.61,0.40088125781823886
3911.51,0.41566896746337806
3912.41,0.425069604458321
3913.31,0.43241800452008716
3914.21,0.4341658526594438
3915.11,0.43463394404825995
3916.01,0.432819243367806
3916.91,0.4283107325769112
3917.81,0.4234062058692065
3918.71,0.4164004640256707
3919.61,0.40697306705666514
3920.51,0.39801350080522246
3921.41,0.3905127909233544
3922.31,0.3840541441189517
3923.21,0.38301009502645433
3924.11,0.3812656138859645
3925.01,0.3763194762991854
3925.91,0.36759899806979673
3926.81,0.3520470100120941
3927.71,0.3265943372207235
3928.61,0.29849467962087395
3929.51,0.2669687054167456
3930.41,0.23529722558240973
3931.31,0.20497328735402395
3932.21,0.17863937145822284
3933.11,0.15903575186750155
3934.01,0.14927628408554186
3934.91,0.14963907347411565
3935.81,0.16153606102728973
3936.71,0.18393688790088028
3937.61,0.21507376648333587
3938.51,0.25167355784878154
3939.42,0.2903835847335568
3940.32,0.3275008663306037
3941.22,0.36011122651716615
3942.12,0.38532198149779284
3943.02,0.4083685359146298
3943.92,0.4268627860854137
3944.82,0.44864150494324767
3945.72,0.47060997906090096
3946.62,0.49681822340640625
3947.52,0.5197391811719456
3948.42,0.5444683851819198
3949.32,0.5673050041485072
3950.22,0.5849336299036414
3951.12,0.599717432482428
3952.02,0.6098619655013345
3952.92,0.6248557836037981
3953.82,0.6320159605045105
3954.72,0.6401641070415036
3955.62,0.6372244133334332
3956.52,0.644198875191442
3957.42,0.6360809172443319
3958.32,0.6300288307163803
3959.22,0.6141771658126622
3960.12,0.5975021641468494
3961.02,0.5686311534274522
3961.92,0.5347523466976343
3962.82,0.49274582802983125
3963.72,0.452610994474577
3964.62,0.41104367959083454
3965.52,0.36896128876137063
3966.42,0.3269350271919321
3967.32,0.2880281333768798
3968.22,0.2593013212362397
3969.12,0.24076335268964566
3970.02,0.24030568044029615
3970.92,0.2589665560528065
3971.82,0.29223277451546587
3972.72,0.33918098753960546
3973.62,0.39583773650950616
3974.52,0.4513683774781859
3975.42,0.5103733091546392
3976.32,0.5639587131585763
3977.22,0.6168381833325907
3978.13,0.6689579149477769
3979.03,0.7091306771415254
3979.93,0.7463157829143486
3980.83,0.7708415909721195
3981.73,0.7908383040843275
3982.63,0.801966686597919
3983.53,0.8143227103843309
3984.43,0.8266013462161365
3985.33,0.8328588984887513
3986.23,0.8498833571416188
3987.13,0.8626452878346096
3988.03,0.875987806280882
3988.93,0.8873889980618721
3989.83,0.9050226646244239
3990.73,0.9144483627666954
3991.63,0.9239095250592446
3992.53,0.9301006082093317
3993.43,0.9384919242861596
3994.33,0.9390614457777582
3995.23,0.9353084822032901
3996.13,0.9231101842626865
3997.03,0.915560929172887
3997.93,0.9165022180546247
3998.83,0.9270576882349562
3999.73,0.9352812455368908
4000.63,0.9511931284772873
4001.53,0.9658559589368507
4002.43,0.9799526882844009
4003.33,0.9815453867014203
4004.23,0.9735041394313984
4005.13,0.9557104209474331
4006.03,0.940577074664341
4006.93,0.938341364254638
4007.83,0.9423892529776985
4008.73,0.9563930696714716
4009.63,0.9779003473997993
4010.53,0.9948756529074875
4011.43,1.0112739297264273
4012.33,1.0234284270818281
4013.23,1.028362525184973
4014.13,1.030664018314657
4015.03,1.0342343002946508
4015.93,1.0386859238957824
4016.84,1.0368314987944773
4017.74,1.040543856934049
4018.64,1.0417746064454485
4019.54,1.0410698508379226
4020.44,1.0443849964733527
4021.34,1.04725678077153
4022.24,1.043725264188481
4023.14,1.0485346692933795
4024.04,1.0450575559284312
4024.94,1.0496921725091894
4025.84,1.0531035298604947
4026.74,1.0616495523992573
4027.64,1.0612031747490975
4028.54,1.0591431285338602
4029.44,1.049741614816721
4030.34,1.0238201315108504
4031.24,0.9939430508436923
4032.14,0.9697655908660038
4033.04,0.9498768338100927
4033.94,0.9431388331993436
4034.84,0.9584024377289467
4035.74,0.9799747604340947
4036.64,1.0101207332369688
4037.54,1.0473422595339337
4038.44,1.0644636187089662
4039.34,1.082715055873296
4040.24,1.093099851928018
4041.14,1.081868841815888
4042.04,1.0655428329162484
4042.94,1.0333533666017571
4043.84,1.000784763081989
4044.74,0.9614432686667371
4045.64,0.9339002290109433
4046.54,0.9119816965039378
4047.44,0.9206763346842524
4048.34,0.9405494396370082
4049.24,0.9788119074713787
4050.14,1.0104784802355855
4051.04,1.0361059154035055
4051.94,1.0484885845197578
4052.84,1.0523082461617599
4053.74,1.050063777026101
4054.65,1.0359529878839846
4055.55,1.018223194639949
4056.45,1.0036796133114
4057.35,0.9956379550512051
4058.25,0.9921542017580741
4059.15,0.9952240892445671
4060.05,0.9911902937440824
4060.95,0.9895430115575164
4061.85,0.9775806602954437
4062.75,0.9621721435587094
4063.65,0.9410987558826107
4064.55,0.9283458930044846
4065.45,0.9199821113337562
4066.35,0.9271091377257379
4067.25,0.9445585361449684
4068.15,0.9614413026630608
4069.05,0.97936421987325
4069.95,0.9870980549198689
4070.85,0.9939787425453481
4071.75,0.9823195061772686
4072.65,0.9785274743158835
4073.55,0.9740575258457447
4074.45,0.9668583830763832
4075.35,0.957621354654832
4076.25,0.9465794989250543
4077.15,0.9339653906268278
4078.05,0.924104246357539
4078.95,0.9278213545540749
4079.85,0.9428892334644148
4080.75,0.9650459143829128
4081.65,0.9886833074410126
4082.55,1.0098724112604305
4083.45,1.0185103610128836
4084.35,1.0264622606271765
4085.25,1.0287591367740785
4086.15,1.0403934357872666
4087.05,1.0569814067969927
4087.95,1.0738532979089768
4088.85,1.0917600937992722
4089.75,1.1067973845555485
4090.65,1.1089989385714376
4091.55,1.1079092615143176
4092.45,1.1002415521653135
4093.36,1.0867493955734853
4094.26,1.0664891592748897
4095.16,1.051124809220356
4096.06,1.0187636297009404
4096.96,0.9984716526037314
4097.86,0.969713319628932
4098.76,0.9428655093561892
4099.66,0.9153165970165296
4100.56,0.8793988539094257
4101.46,0.8559597604265666
4102.36,0.8373916140369899
4103.26,0.8418195904126948
4104.16,0.8611824938857174
4105.06,0.8900369195011217
4105.96,0.9212454321023691
4106.86,0.9528773456539965
4107.76,0.979003692964558
4108.66,0.9902251146925536
4109.56,0.9979678305128004
4110.46,1.004235604695935
4111.36,1.0061456659909256
4112.26,1.011542727935989
4113.16,1.0190920360177966
4114.06,1.0305644184693719
4114.96,1.0382743700422281
4115.86,1.0476900594019938
4116.76,1.0506920377197095
4117.66,1.0487630848083414
4118.56,1.038811196474168
4119.46,1.0288064694774008
4120.36,1.0236862490821894
4121.26,1.0135733207960058
4122.16,1.0172538453892654
4123.06,1.0211669255497513
4123.96,1.0247972890464352
4124.86,1.0302799440429289
4125.76,1.030402607643213
4126.66,1.0300243099212303
4127.56,1.025835630994716
4128.46,1.0137213227981754
4129.36,1.0072864100402115
4130.26,0.990135414413941
4131.17,0.9719726828461612
4132.06,0.955375031526748
4132.97,0.9509888802856672
4133.87,0.9455159211234854
4134.77,0.9532792388580572
4135.67,0.9672974098682764
4136.57,0.9920491982554226
4137.47,1.0154152234560212
4138.37,1.0377638703117655
4139.27,1.0420587011326614
4140.17,1.0398310605387109
4141.07,1.0301999237718245
4141.97,1.0056018284679629
4142.87,0.9817501530058937
4143.77,0.9558537046880059
4144.67,0.9439943533900993
4145.57,0.9475688718124147
4146.47,0.9585735164012473
4147.37,0.9746595594547739
4148.27,0.9857647008886478
4149.17,0.999014168322631
4150.07,1.0088248556413173
4150.97,0.9985880943101245
4151.87,0.9985025682271343
4152.77,0.9945324522300202
4153.67,0.9899105929683406
4154.57,0.9846364664509706
4155.47,0.9873872353481132
4156.37,0.985147852068235
4157.27,0.9937332188322315
4158.17,1.000787162577855
4159.07,1.0150675903915263
4159.97,1.0312787661983145
4160.87,1.0455197137496834
4161.77,1.0595570691079739
4162.67,1.064181037077345
4163.57,1.0697021158840199
4164.47,1.069191464842051
4165.37,1.0662566360504053
4166.27,1.0603792166132597
4167.17,1.045210721830373
4168.07,1.0349130125772799
4168.98,1.0248425270880595
4169.88,1.0172812171860666
4170.78,1.0024086636636278
4171.68,0.9832471257125999
4172.58,0.9628966962187248
4173.48,0.9475679061749931
4174.38,0.9426665843003641
4175.28,0.9371023791292156
4176.18,0.9470891034922607
4177.08,0.9571639575676494
4177.98,0.9679197077428474
4178.88,0.9812107447928411
4179.78,0.9920708947062289
4180.68,1.0007199191736489
4181.58,1.0034438743958867
4182.48,1.0095167542295753
4183.38,1.0118858321874515
4184.28,1.0118833404186187
4185.18,1.0065322240585943
4186.08,1.0076524121215467
4186.98,1.0052057261996754
4187.88,0.996134178363509
4188.78,0.9930173084105353
4189.68,0.9994398469014031
4190.58,1.0088543912358938
4191.48,1.0163412638788438
4192.38,1.029062031264573
4193.28,1.0334353514879988
4194.18,1.0397572691380446
4195.08,1.0264320220665373
4195.98,1.0208721326220669
4196.88,1.004610924760431
4197.78,0.9827219932338137
4198.68,0.9663542833713591
4199.58,0.9517693192725132
4200.48,0.9449661843264359
4201.38,0.9444564455442088
4202.28,0.9496485399668363
4203.18,0.9637037933137819
4204.08,0.9716144233239536
4204.98,0.9923813485913646
4205.88,1.0094093407865157
4206.79,1.0308964483364733
4207.69,1.0439698843659857
4208.59,1.0612709566778868
4209.49,1.0681172226548485
4210.39,1.0843130928875016
4211.29,1.0813713429239806
4212.19,1.0781977536304537
4213.09,1.0667923154609158
4213.99,1.0607342829257909
4214.89,1.0525518617049892
4215.79,1.0448117764716514
4216.69,1.034717058781885
4217.59,1.036183540868863
4218.49,1.0520277146393242
4219.39,1.064702026004627
4220.29,1.074807760884877
4221.19,1.0773390146333626
4222.09,1.0593951105369577
4222.99,1.0423405285684353
4223.89,0.992633161276975
4224.79,0.9463698022306374
4225.69,0.8999093667652893
4226.59,0.8633586711568457
4227.49,0.848437248714351
4228.39,0.8555525106561642
4229.29,0.8880027626653738
4230.19,0.9268664410690666
4231.09,0.9740532146004504
4231.99,1.0072547607231135
4232.89,1.027215594359029
4233.79,1.0344542486633663
4234.69,1.0333786135265113
4235.59,1.0208522348011027
4236.49,1.011437323052985
4237.39,1.0069694593170269
4238.29,1.0061548655902819
4239.19,1.020072926837527
4240.09,1.0269614565990643
4240.99,1.0437043104858632
4241.89,1.0576186667165257
4242.79,1.0787196494653775
4243.69,1.0872773406850964
4244.59,1.0909319286932901
4245.5,1.0924377239185417
4246.4,1.0877296568749522
4247.3,1.0718287115880911
4248.2,1.0517736627067042
4249.1,1.0320814756635706
4250.0,1.0153583872692171
4250.9,1.0043648363064128
4251.8,1.0014810710145015
4252.7,1.0054076505693574
4253.6,1.0074839302666134
4254.5,1.0183678861482972
4255.4,1.0238743497480305
4256.3,1.0300604128135664
4257.2,1.0281040901233303
4258.1,1.0304313026058531
4259.0,1.0226947472817787
4259.9,1.016172095221882
4260.8,1.012245019218695
4261.7,1.016209022058117
4262.6,1.0299065161616445
4263.5,1.0468917108640308
4264.4,1.0763736015852752
4265.3,1.0921040376478095
4266.2,1.1029078069124942
4267.1,1.1038732034441565
4268.0,1.09116389513264
4268.9,1.0618660060569882
4269.8,1.0289509889557729
4270.7,0.9934949029206395
4271.6,0.9593357397795614
4272.5,0.929235574444603
4273.4,0.9159262703574016
4274.3,0.913497185979349
4275.2,0.9327549708792329
4276.1,0.957665798899007
4277.0,0.9876898339350362
4277.9,1.0150822688525611
4278.8,1.0311858291195424
4279.7,1.0507909502504775
4280.6,1.0479330868601238
4281.5,1.0428407401929947
4282.4,1.0424812034513224
4283.31,1.0346805444955187
4284.21,1.024883249772014
4285.11,1.0150001996596418
4286.01,1.0039615859607705
4286.91,0.9870308574923513
4287.81,0.9669651103813048
4288.71,0.9511757498012435
4289.61,0.9376741189307546
4290.51,0.9292046377524847
4291.41,0.9286600669418449
4292.31,0.933667063834573
4293.21,0.9448274458298784
4294.11,0.9545161258021986
4295.01,0.9589278664377323
4295.91,0.9482540847679644
4296.81,0.9315685790493831
4297.71,0.9025721159229105
4298.61,0.8662233994126907
4299.51,0.8319515369693333
4300.41,0.7976295271814899
4301.31,0.7753939590651915
4302.21,0.7605250371117468
4303.11,0.7539191164195066
4304.01,0.7503754748518645
4304.91,0.7525896394729429
4305.81,0.7506161771308949
4306.71,0.7441236133821988
4307.61,0.7315812165448399
4308.51,0.726529380827133
4309.41,0.7256425360235967
4310.31,0.7351797822468403
4311.21,0.7533710383537707
4312.11,0.7910052048855513
4313.01,0.8367618022226313
4313.91,0.8858133118285588
4314.81,0.9456537512772442
4315.71,1.0125053094412926
4316.61,1.0721138605683842
4317.51,1.1261418282804765
4318.41,1.162934462410721
4319.31,1.1776779929005339
4320.21,1.1790149760316406
4321.12,1.1580940389250853
4322.02,1.1268485837083602
4322.92,1.0839564909705637
4323.82,1.0360720300365933
4324.72,0.9948032223350591
4325.62,0.9675560311231247
4326.52,0.9601494277963384
4327.42,0.9733399420173995
4328.32,1.0015149655937001
4329.22,1.038047431850293
4330.12,1.0795127116518772
4331.02,1.111875822442027
4331.92,1.134058291851233
4332.82,1.146975774413655
4333.72,1.1520546056559353
4334.62,1.1463817743664144
4335.52,1.1294791855607385
4336.42,1.0982335537171148
4337.32,1.057160086108614
4338.22,1.0111938358205088
4339.12,0.9661974843396994
4340.02,0.9288813824738675
4340.92,0.9065081213704449
4341.82,0.9073239453017051
4342.72,0.9210681261720047
4343.62,0.9502353895199512
4344.52,0.9883864111717402
4345.42,1.0287507063092969
4346.32,1.0571390044872657
4347.22,1.0835659286814543
4348.12,1.093677438410198
4349.02,1.099138607146318
4349.92,1.0890975816258024
4350.82,1.073175991096013
4351.72,1.0574994254647994
4352.62,1.0461546121518945
4353.52,1.0306040620749768
4354.42,1.0299589567239174
4355.32,1.0373758062791456
4356.22,1.04932777121883
4357.12,1.0617363326597322
4358.02,1.0764486944800684
4358.92,1.0772590445903407
4359.83,1.0863410534612004
4360.73,1.091721019081801
4361.63,1.102311318215508
4362.53,1.10954256487205
4363.43,1.1237286595794687
