wave,flux
3700.85,-6.80048422647111e-05
3701.75,-6.757671240402488e-05
3702.65,-6.62358809606983e-05
3703.55,-6.436291700990176e-05
3704.45,-6.230634774566498e-05
3705.35,-6.113467051210756e-05
3706.25,-6.0584061189470606e-05
3707.15,-6.111268506264827e-05
3708.05,-6.211659784247244e-05
3708.96,-6.323826458449367e-05
3709.86,-6.389314643344502e-05
3710.76,-6.465262335770381e-05
3711.66,-6.549173913788927e-05
3712.56,-6.663468568541363e-05
3713.46,-6.92200413002878e-05
3714.36,-7.14535173449668e-05
3715.26,-7.427571179871925e-05
3716.16,-7.696001209632184e-05
3717.06,-7.794334368742528e-05
3717.96,-7.693717649856732e-05
3718.86,-7.456025597428027e-05
3719.76,-7.138234162556374e-05
3720.66,-6.74967074047286e-05
3721.56,-6.455491633685974e-05
3722.46,-6.341640981675741e-05
3723.36,-6.473814322562906e-05
3724.26,-6.769060237813045e-05
3725.16,-7.153354376371508e-05
3726.06,-7.586332759800234e-05
3726.96,-7.91636699117135e-05
3727.86,-8.115550571314915e-05
3728.76,-8.261821407957484e-05
3729.66,-8.267741203389968e-05
3730.56,-8.12663848016508e-05
3731.46,-7.898254144397838e-05
3732.36,-7.514596906220063e-05
3733.26,-7.053293182067601e-05
3734.16,-6.59171081665806e-05
3735.06,-6.332806399719418e-05
3735.96,-6.301827437911296e-05
3736.86,-6.522305991550994e-05
3737.76,-6.978510720659859e-05
3738.66,-7.518788818326645e-05
3739.56,-8.194936435398875e-05
3740.46,-8.699606696837626e-05
3741.36,-9.074835009522934e-05
3742.26,-9.289755082417385e-05
3743.16,-9.306776177189271e-05
3744.06,-9.124476947110194e-05
3744.96,-8.922122374627225e-05
3745.86,-8.62628444518651e-05
3746.76,-8.218434017915284e-05
3747.67,-7.754708827549029e-05
3748.57,-7.401720750569476e-05
3749.47,-7.033218050126621e-05
3750.37,-6.969777484607345e-05
3751.27,-7.105538788562078e-05
3752.17,-7.588272450390407e-05
3753.07,-8.208279164746304e-05
3753.97,-8.894606520761563e-05
3754.87,-9.530588637154598e-05
3755.77,-0.00010011817058532379
3756.67,-0.00010357014620761368
3757.57,-0.00010432497744738181
3758.47,-0.00010400475742617898
3759.37,-0.00010400263300877849
3760.27,-0.00010504154209062597
3761.17,-0.00010573272814474395
3762.07,-0.00010719681197639277
3762.97,-0.00010832752527678001
3763.87,-0.00011009611777658376
3764.77,-0.0001096726088907363
3765.67,-0.00010881156598723901
3766.57,-0.00010628930182738788
3767.47,-0.00010315314291848783
3768.37,-9.929504341510398e-05
3769.27,-9.536860975524005e-05
3770.17,-9.213059668946325e-05
3771.07,-9.109022773233368e-05
3771.97,-9.186609938270959e-05
3772.87,-9.56610271315013e-05
3773.77,-0.00010069243982137488
3774.67,-0.00010627301025501533
3775.57,-0.00011210638129918217
3776.47,-0.00011821721178516607
3777.37,-0.0001231070258410444
3778.27,-0.0001282580821390276
3779.17,-0.00013313166660211366
3780.07,-0.0001386304516558269
3780.97,-0.00014231150819131488
3781.87,-0.00014550498085497859
3782.77,-0.0001473449526256295
3783.67,-0.000148104934384609
3784.57,-0.00014875440305185314
3785.47,-0.0001472572517484098
3786.38,-0.00014536949840019656
3787.28,-0.00014273332069499793
3788.18,-0.00014089732694125818
3789.08,-0.00013878454333264597
3789.98,-0.00013710507083317485
3790.88,-0.0001353130050936003
3791.78,-0.00013354045962302624
3792.68,-0.00012996811736818272
3793.58,-0.000125798203432894
3794.48,-0.00012038673497547842
3795.38,-0.00011467288182690912
3796.28,-0.00010767695964725395
3797.18,-0.00010239186052880132
3798.08,-9.904846113651556e-05
3798.98,-9.95584404229572e-05
3799.88,-0.00010236568557200169
3800.78,-0.00010975942938041195
3801.68,-0.00011903431941933346
3802.58,-0.0001289965563389393
3803.48,-0.00013826879223258827
3804.38,-0.000146223798304321
3805.28,-0.0001527651229391494
3806.18,-0.00015695913263798382
3807.08,-0.0001611284118061822
3807.98,-0.00016526213630977
3808.88,-0.00016829665419905695
3809.78,-0.00017223317880476726
3810.68,-0.00017533174161604142
3811.58,-0.00017714103888460175
3812.48,-0.00017836138169782822
3813.38,-0.00017719300246470967
3814.28,-0.0001763840719697573
3815.18,-0.00017591664660871452
3816.08,-0.00017633615341214508
3816.98,-0.00017668098180573808
3817.88,-0.00017914872085052322
3818.78,-0.00018032249361258528
3819.68,-0.000180001993198383
3820.58,-0.00017990305853392424
3821.48,-0.00017905989612758565
3822.38,-0.00017788571265600492
3823.28,-0.00017629752108109416
3824.18,-0.0001741575710344932
3825.09,-0.00017145048493471464
3825.99,-0.00016841724641104884
3826.89,-0.00016472583533040799
3827.79,-0.00016207111943893033
3828.69,-0.00015905387093507524
3829.59,-0.00015567995046012452
3830.49,-0.0001508888623002365
3831.39,-0.00014422657798466508
3832.29,-0.00013620209445182698
3833.19,-0.00012844918050929497
3834.09,-0.00012101730670334468
3834.99,-0.00011484135500692938
3835.89,-0.00011245129827282161
3836.79,-0.00011302746728015133
3837.69,-0.00011706951212840805
3838.59,-0.0001230334219524942
3839.49,-0.00013222933486068238
3840.39,-0.00014224553653465036
3841.29,-0.000153203051548341
3842.19,-0.00016415552730912128
3843.09,-0.0001747017701463483
3843.99,-0.00018489087296309057
3844.89,-0.00019311639797980432
3845.79,-0.00020041019242193617
3846.69,-0.00020723255022905097
3847.59,-0.00021146678308689678
3848.49,-0.00021630132452222971
3849.39,-0.00022060197553995368
3850.29,-0.00022428113925843668
3851.19,-0.00022723951551887055
3852.09,-0.00023049229604887102
3852.99,-0.00023401425517395486
3853.89,-0.000237228445214474
3854.79,-0.00024085496215274437
3855.69,-0.00024105380536752394
3856.59,-0.00024134362123820209
3857.49,-0.00024133665235108817
3858.39,-0.00024114470464815598
3859.29,-0.00024129644695845725
3860.19,-0.00024337739298619363
3861.09,-0.00024647012934582966
3861.99,-0.0002507634426811939
3862.9,-0.0002558234589215462
3863.8,-0.0002600442582516302
3864.7,-0.00026390909960039585
3865.6,-0.0002653869758304983
3866.5,-0.0002680800793899574
3867.4,-0.0002690755015417952
3868.3,-0.0002693885901427229
3869.2,-0.00026844982791988145
3870.1,-0.0002679362888635522
3871.0,-0.00026638515895958487
3871.9,-0.00026451072342398
3872.8,-0.0002625028999266732
3873.7,-0.0002598952557961945
3874.6,-0.0002602504113510758
3875.5,-0.000260304718953349
3876.4,-0.0002597036919921417
3877.3,-0.0002578223274343154
3878.2,-0.00025498070236936924
3879.1,-0.00025316204410047325
3880.0,-0.0002500670212267238
3880.9,-0.0002482135212178665
3881.8,-0.00024523595673801895
3882.7,-0.00024303659689835924
3883.6,-0.0002384757009686279
3884.5,-0.00023158996920409833
3885.4,-0.00022122288933774448
3886.3,-0.00020997548746627304
3887.2,-0.00019900881320364806
3888.1,-0.00018875015052639748
3889.0,-0.00018089579438218905
3889.9,-0.00017938346442580735
3890.8,-0.00018403254007915096
3891.7,-0.00019339308282487403
3892.6,-0.00020599366572607753
3893.5,-0.0002203582768241361
3894.4,-0.00023318731681364201
3895.3,-0.0002446607824768622
3896.2,-0.0002555503852476257
3897.1,-0.00026352173186710117
3898.0,-0.0002726293565481197
3898.9,-0.00028036942478342126
3899.8,-0.00028692231243198285
3900.7,-0.0002943308312172613
3901.6,-0.00030060992289207707
3902.51,-0.0003056185806734902
3903.41,-0.0003105022422096245
3904.31,-0.0003145906282264823
3905.21,-0.00031692940352290777
3906.11,-0.0003209642149268241
3907.01,-0.00032593653213971015
3907.91,-0.00033265485112934587
3908.81,-0.0003411114983207505
3909.71,-0.00034966642748502996
3910.61,-0.000359241560865564
3911.51,-0.0003641236566331567
3912.41,-0.0003683233528383524
3913.31,-0.00037105143722410594
3914.21,-0.0003708215174758882
3915.11,-0.0003723907614459841
3916.01,-0.0003719367129167385
3916.91,-0.0003707954738236699
3917.81,-0.00037131969033744655
3918.71,-0.0003714821335641441
3919.61,-0.00036977922380322626
3920.51,-0.0003710166494890938
3921.41,-0.0003707530839149752
3922.31,-0.00037444448675723823
3923.21,-0.00037428471504384305
3924.11,-0.00037698199389677215
3925.01,-0.00037508394205317805
3925.91,-0.00037105456786202124
3926.81,-0.0003651743778407646
3927.71,-0.00035450440009468216
3928.61,-0.0003398345258763817
3929.51,-0.000320619727360675
3930.41,-0.00029622132804248667
3931.31,-0.000270393093787186
3932.21,-0.00024531453960950715
3933.11,-0.00022185793308799397
3934.01,-0.00020817592201922684
3934.91,-0.00020611741609065316
3935.81,-0.00021755677269557434
3936.71,-0.00023994615827377383
3937.61,-0.00026937075425197246
3938.51,-0.0003006346613010523
3939.42,-0.00033248831800684273
3940.32,-0.00035951277313139884
3941.22,-0.0003800642750615445
3942.12,-0.0003949330004496633
3943.02,-0.00040699462567503586
3943.92,-0.00041565104943829564
3944.82,-0.0004223387211312051
3945.72,-0.0004306681969364297
3946.62,-0.00043608101125034967
3947.52,-0.00044228761909371117
3948.42,-0.0004467020390232415
3949.32,-0.00044914969996905665
3950.22,-0.00045314856248832833
3951.12,-0.0004540236305568579
3952.02,-0.0004562988952036005
3952.92,-0.00045979175279491134
3953.82,-0.00046234217066277083
3954.72,-0.00046453258305303644
3955.62,-0.00046352478246362204
3956.52,-0.0004615921440511219
3957.42,-0.00045968627135334697
3958.32,-0.0004552382243928473
3959.22,-0.00045106993652768685
3960.12,-0.00044299737487927035
3961.02,-0.0004323811069076618
3961.92,-0.00041770797755959454
3962.82,-0.0004030771846155653
3963.72,-0.00037950441110936906
3964.62,-0.00035235389120953485
3965.52,-0.00032500868691515296
3966.42,-0.0002933092347035257
3967.32,-0.0002605558287191633
3968.22,-0.00023327091987424865
3969.12,-0.00021317725333356793
3970.02,-0.0002050762832343901
3970.92,-0.00021014675159672174
3971.82,-0.00022953684778049125
3972.72,-0.0002574177445161682
3973.62,-0.0002928132668321969
3974.52,-0.0003294861114263457
3975.42,-0.0003665161971432931
3976.32,-0.00039802213746468443
3977.22,-0.00043033905911344164
3978.13,-0.00045797936181290447
3979.03,-0.0004826658577509864
3979.93,-0.0005023851841611659
3980.83,-0.0005205271273976432
3981.73,-0.000531865142870223
3982.63,-0.0005452502361030469
3983.53,-0.0005544649386112391
3984.43,-0.0005661302106644736
3985.33,-0.0005772543803777035
3986.23,-0.0005852135791062005
3987.13,-0.0005963762558238841
3988.03,-0.0006088379871818526
3988.93,-0.0006201456305991907
3989.83,-0.0006291072342223011
3990.73,-0.0006401050369474488
3991.63,-0.0006528561455013008
3992.53,-0.0006597737624534992
3993.43,-0.0006662571039010171
3994.33,-0.0006701108122795717
3995.23,-0.0006740832971832115
3996.13,-0.0006743163544666881
3997.03,-0.0006750927519969849
3997.93,-0.000678364686751685
3998.83,-0.0006853470322428616
3999.73,-0.0006926732652400506
4000.63,-0.000706645535613631
4001.53,-0.0007175993472567303
4002.43,-0.0007252804826962072
4003.33,-0.0007306248889164879
4004.23,-0.000736326758721542
4005.13,-0.0007343197806272769
4006.03,-0.0007356276113791232
4006.93,-0.000743738719483406
4007.83,-0.0007467032437262636
4008.73,-0.0007604747528587442
4009.63,-0.0007715315609050437
4010.53,-0.0007828541159323623
4011.43,-0.0007916102399481584
4012.33,-0.0007987768696856588
4013.23,-0.000807444384929691
4014.13,-0.0008090630860802189
4015.03,-0.0008177748645739815
4015.93,-0.0008260530661658348
4016.84,-0.0008324840301445782
4017.74,-0.0008396110844560436
4018.64,-0.0008477166599795234
4019.54,-0.0008514485400647818
4020.44,-0.0008591215034078971
4021.34,-0.000872619031208399
4022.24,-0.0008767904320258585
4023.14,-0.0008787120247377938
4024.04,-0.0008852225082781034
4024.94,-0.0008913694019539839
4025.84,-0.0008991793295490839
4026.74,-0.0009055179777169937
4027.64,-0.0009160289162522606
4028.54,-0.0009197364802637858
4029.44,-0.0009188522111464557
4030.34,-0.0009137078972812156
4031.24,-0.0009110685733040221
4032.14,-0.0009057152035268084
4033.04,-0.0009003570627177348
4033.94,-0.0009102218993540309
4034.84,-0.000920922541838944
4035.74,-0.0009449394687654123
4036.64,-0.0009623535745191215
4037.54,-0.0009795176617539215
4038.44,-0.0009971836793204937
4039.34,-0.0010113097121931516
4040.24,-0.0010194004870306612
4041.14,-0.001017464602225329
4042.04,-0.0010163616600869473
4042.94,-0.0010144807639076727
4043.84,-0.0010122014055347825
4044.74,-0.001006180411466289
4045.64,-0.0009995071522647275
4046.54,-0.0010035673454936338
4047.44,-0.0010113047347499499
4048.34,-0.0010282964274161515
4049.24,-0.0010436720531265345
4050.14,-0.0010599291385576806
4051.04,-0.0010775381235216472
4051.94,-0.001087365727973162
4052.84,-0.0010916443702012476
4053.74,-0.0010952305560403943
4054.65,-0.001096390265284121
4055.55,-0.001098797451424192
4056.45,-0.0010988690639479213
4057.35,-0.0011038590823522572
4058.25,-0.001113255087314757
4059.15,-0.001121220339516845
4060.05,-0.0011253626101302018
4060.95,-0.001142903273073533
4061.85,-0.0011426048618105515
4062.75,-0.0011400945617711974
4063.65,-0.0011415409213796862
4064.55,-0.0011409231303963756
4065.45,-0.0011433306502921206
4066.35,-0.0011515578536939752
4067.25,-0.001166322761565296
4068.15,-0.0011788045021276833
4069.05,-0.0011930723844161056
4069.95,-0.0012084490807655463
4070.85,-0.001215405675646897
4071.75,-0.0012215097137095348
4072.65,-0.0012232383810054195
4073.55,-0.0012214277443442778
4074.45,-0.001225022829437984
4075.35,-0.0012199316469261885
4076.25,-0.0012142165620809484
4077.15,-0.0012034696702340475
4078.05,-0.0012016863926797277
4078.95,-0.0012069353997060793
4079.85,-0.001219096861814664
4080.75,-0.0012363077654882165
4081.65,-0.0012551877350195821
4082.55,-0.001278589603104666
4083.45,-0.001290520734184647
4084.35,-0.0012984227271698042
4085.25,-0.0013035677603319942
4086.15,-0.0013133270607266557
4087.05,-0.0013254580646639685
4087.95,-0.0013395920434002959
4088.85,-0.0013474762413042468
4089.75,-0.0013566686887459072
4090.65,-0.0013657632161518112
4091.55,-0.0013626448595995798
4092.45,-0.0013554284043657933
4093.36,-0.0013351069000664178
4094.26,-0.0013238270256260786
4095.16,-0.0012994307676867287
4096.06,-0.0012665177274987242
4096.96,-0.0012320077325890986
4097.86,-0.0011939580273763455
4098.76,-0.0011440815214652216
4099.66,-0.001090534215048872
4100.56,-0.0010405825048959113
4101.46,-0.0010009764827561072
4102.36,-0.0009798545883610561
4103.26,-0.0009852458155492794
4104.16,-0.0010169246264623533
4105.06,-0.00106913088046532
4105.96,-0.0011372025637652035
4106.86,-0.0012071529109042756
4107.76,-0.001273782770120933
4108.66,-0.0013304064162282133
4109.56,-0.001377215313185678
4110.46,-0.0014173007719035975
4111.36,-0.0014544283382790513
4112.26,-0.0014889740823902746
4113.16,-0.0015306176655134225
4114.06,-0.0015632535083151286
4114.96,-0.0016054104138860813
4115.86,-0.0016306800238347346
4116.76,-0.0016570834771357011
4117.66,-0.0016767413621830195
4118.56,-0.0016972704101541317
4119.46,-0.001698946385650115
4120.36,-0.0017098542667039317
4121.26,-0.0017299569635252606
4122.16,-0.001751042619594144
4123.06,-0.0017620088039514035
4123.96,-0.0017936837456202263
4124.86,-0.0018224510566930772
4125.76,-0.0018464609918362694
4126.66,-0.0018572440020886694
4127.56,-0.001868352706607004
4128.46,-0.0018861567523367178
4129.36,-0.0018935460763504417
4130.26,-0.0018985475076160946
4131.17,-0.001905388130823079
4132.06,-0.0019102422375172716
4132.97,-0.0019237196080208485
4133.87,-0.0019378961652815573
4134.77,-0.001963142547862811
4135.67,-0.0019939806182000413
4136.57,-0.0020254561992081115
4137.47,-0.0020742110818874867
4138.37,-0.0021073669172404484
4139.27,-0.002135679069253206
4140.17,-0.0021572580972752725
4141.07,-0.0021688297231519608
4141.97,-0.002170965435899764
4142.87,-0.0021650094617065266
4143.77,-0.002154415003658605
4144.67,-0.00217646616380888
4145.57,-0.002181544164675972
4146.47,-0.002213633756429487
4147.37,-0.0022365089071939266
4148.27,-0.002279659255460626
4149.17,-0.002301742724414113
4150.07,-0.0023184271209850415
4150.97,-0.0023333084812776042
4151.87,-0.0023455045491533894
4152.77,-0.002361719014304171
4153.67,-0.002360850364378388
4154.57,-0.0023796888900007103
4155.47,-0.0023920360807249894
4156.37,-0.0024098888837856144
4157.27,-0.002439990044273393
4158.17,-0.0024581868636214714
4159.07,-0.002498394372446264
4159.97,-0.0025369684949181105
4160.87,-0.002579179676017024
4161.77,-0.0025948070415049837
4162.67,-0.0026397598834559557
4163.57,-0.002666554615064069
4164.47,-0.0026836061581807765
4165.37,-0.0026888977750578005
4166.27,-0.0027208470133808847
4167.17,-0.0027292628113066175
4168.07,-0.002736836390409393
4168.98,-0.002745238960596502
4169.88,-0.0027481125020493036
4170.78,-0.002747506328130839
4171.68,-0.002728571227134831
4172.58,-0.002729122820986704
4173.48,-0.002720664326151395
4174.38,-0.002722643571388662
4175.28,-0.0027476383306038908
4176.18,-0.002769888289212644
4177.08,-0.0027983465000456682
4177.98,-0.0028439261143563127
4178.88,-0.0028847189140231125
4179.78,-0.0029350616708734324
4180.68,-0.002959734343021629
4181.58,-0.0029970172578550848
4182.48,-0.0030272416567071877
4183.38,-0.0030644928002221835
4184.28,-0.0030998458340856243
4185.18,-0.003114931456781379
4186.08,-0.00314491575957788
4186.98,-0.0031658669713895567
4187.88,-0.003169635297999248
4188.78,-0.00321437716995756
4189.68,-0.0032320810906966264
4190.58,-0.0032780080166495995
4191.48,-0.003323982768420488
4192.38,-0.0033588123175074197
4193.28,-0.003394579535610916
4194.18,-0.003410743761338795
4195.08,-0.003461684642839338
4195.98,-0.003446000483328804
4196.88,-0.0034348296777493284
4197.78,-0.003450844651145635
4198.68,-0.003438900917603675
4199.58,-0.0034577900256623187
4200.48,-0.0034692476690302548
4201.38,-0.003477862612961885
4202.28,-0.0035251215477615466
4203.18,-0.0035493207604615734
4204.08,-0.003599876694053088
4204.98,-0.0036713916251149207
4205.88,-0.0037056451899477936
4206.79,-0.003752052293868325
4207.69,-0.0038251035398495295
4208.59,-0.0038850559694909126
4209.49,-0.003918997782305832
4210.39,-0.003942319157776984
4211.29,-0.0039898217070843895
4212.19,-0.004014183646970205
4213.09,-0.004033032494902279
4213.99,-0.004065018481492031
4214.89,-0.004060820685607488
4215.79,-0.004079142914894417
4216.69,-0.004105830324333413
4217.59,-0.004116691275293903
4218.49,-0.004175188484041661
4219.39,-0.004230874723207533
4220.29,-0.004292603417817765
4221.19,-0.0043379230278097905
4222.09,-0.004369579353660639
4222.99,-0.004346825056700265
4223.89,-0.004320530953942383
4224.79,-0.004299818837964485
4225.69,-0.0042286584488400395
4226.59,-0.004211939370619515
4227.49,-0.004203308371496202
4228.39,-0.004268446989648696
4229.29,-0.0043531299873104685
4230.19,-0.004478991356436608
4231.09,-0.004608015869420082
4231.99,-0.004690189616997838
4232.89,-0.004752360473881386
4233.79,-0.004804191224451417
4234.69,-0.004819379476286498
4235.59,-0.004844657388777831
4236.49,-0.004856894177705833
4237.39,-0.004889517431686578
4238.29,-0.004953614919366355
4239.19,-0.004981363323602808
4240.09,-0.0050609927459499375
4240.99,-0.0051317074631621485
4241.89,-0.005201386369960796
4242.79,-0.005270684556108669
4243.69,-0.005346127008843905
4244.59,-0.005394977925707062
4245.5,-0.005433671824023398
4246.4,-0.005440801617006081
4247.3,-0.005446002451225261
4248.2,-0.005449025792641985
4249.1,-0.005448276615361926
4250.0,-0.005492266945183328
4250.9,-0.0055276192845025475
4251.8,-0.005599714096424945
4252.7,-0.00568345464809358
4253.6,-0.005744953879150369
4254.5,-0.0058290229180047925
4255.4,-0.005910425717606067
4256.3,-0.005982691907836914
4257.2,-0.00604332306108936
4258.1,-0.006071334919117723
4259.0,-0.006128471104774511
4259.9,-0.006146385981264532
4260.8,-0.006152445258421716
4261.7,-0.006225146641112238
4262.6,-0.0062991134080250125
4263.5,-0.006411551141818423
4264.4,-0.006532483719335467
4265.3,-0.006648875180843878
4266.2,-0.006691246844579642
4267.1,-0.006757382377947626
4268.0,-0.0068005916939445485
4268.9,-0.006782571352697351
4269.8,-0.006753610601075326
4270.7,-0.0067230101922833106
4271.6,-0.0066603741244749565
4272.5,-0.006701099624267964
4273.4,-0.006710007110281035
4274.3,-0.006751007104484555
4275.2,-0.006857567524386844
4276.1,-0.006977460653756952
4277.0,-0.0071559287766008945
4277.9,-0.007241837548716898
4278.8,-0.007375698656834847
4279.7,-0.007429086305034495
4280.6,-0.007535972984748901
4281.5,-0.007545908605909725
4282.4,-0.007602352922006433
