wave,flux
3700.85,-7.252769206637755e-07
3701.75,-7.131479973512681e-07
3702.65,-6.853160995643947e-07
3703.55,-6.471117654012234e-07
3704.45,-6.054962447857729e-07
3705.35,-5.680169116000924e-07
3706.25,-5.340069163153281e-07
3707.15,-5.209751838406044e-07
3708.05,-5.19820783899585e-07
3708.96,-5.302113708418149e-07
3709.86,-5.561221890428863e-07
3710.76,-5.930627441543563e-07
3711.66,-6.395929342928006e-07
3712.56,-6.821389735635618e-07
3713.46,-7.246570294565256e-07
3714.36,-7.519246275342927e-07
3715.26,-7.64774365980904e-07
3716.16,-7.515727002461143e-07
3717.06,-7.231572614495807e-07
3717.96,-6.801227377074227e-07
3718.86,-6.224055411943265e-07
3719.76,-5.6557264127514e-07
3720.66,-5.136968420941194e-07
3721.56,-4.868626344273744e-07
3722.46,-4.878405669964845e-07
3723.36,-5.121317453964447e-07
3724.26,-5.526316284526479e-07
3725.16,-5.954086438878035e-07
3726.06,-6.309936152794182e-07
3726.96,-6.500520594181521e-07
3727.86,-6.57256114654323e-07
3728.76,-6.570456873639682e-07
3729.66,-6.516566442283718e-07
3730.56,-6.383311835245902e-07
3731.46,-6.136704720711209e-07
3732.36,-5.758909955279725e-07
3733.26,-5.28213468920545e-07
3734.16,-4.775078896166997e-07
3735.06,-4.4045182087914327e-07
3735.96,-4.229266494924797e-07
3736.86,-4.2867166356241546e-07
3737.76,-4.565383049305908e-07
3738.66,-5.040328393613293e-07
3739.56,-5.58954681908105e-07
3740.46,-6.072723294615279e-07
3741.36,-6.394325711229311e-07
3742.26,-6.467421475822707e-07
3743.16,-6.333101731115531e-07
3744.06,-6.040880289520373e-07
3744.96,-5.643132187568984e-07
3745.86,-5.277277646081285e-07
3746.76,-4.93071052767144e-07
3747.67,-4.700196515748661e-07
3748.57,-4.5553925785268485e-07
3749.47,-4.5711454999509476e-07
3750.37,-4.790455074029575e-07
3751.27,-5.257655693906458e-07
3752.17,-5.834344107841375e-07
3753.07,-6.499013017495209e-07
3753.97,-7.067348889017394e-07
3754.87,-7.505151175238857e-07
3755.77,-7.660450775500965e-07
3756.67,-7.564191838382307e-07
3757.57,-7.287398379465832e-07
3758.47,-6.90206101434636e-07
3759.37,-6.612128990502373e-07
3760.27,-6.479704947939609e-07
3761.17,-6.530642189951821e-07
3762.07,-6.636421005549472e-07
3762.97,-6.742506814268007e-07
3763.87,-6.867934364419895e-07
3764.77,-6.914000089387321e-07
3765.67,-6.945718004980268e-07
3766.57,-7.001028589312629e-07
3767.47,-7.016295185459489e-07
3768.37,-7.123498377361044e-07
3769.27,-7.265920351991665e-07
3770.17,-7.469740132719867e-07
3771.07,-7.717837327396646e-07
3771.97,-7.986889057296925e-07
3772.87,-8.244104402217176e-07
3773.77,-8.590476701585932e-07
3774.67,-8.718227585099636e-07
3775.57,-8.889672723183273e-07
3776.47,-9.026490277510476e-07
3777.37,-9.151293137659755e-07
3778.27,-9.292907962027919e-07
3779.17,-9.415635228557031e-07
3780.07,-9.60574200397254e-07
3780.97,-9.881820020140947e-07
3781.87,-1.0032027865674658e-06
3782.77,-1.00837698471975e-06
3783.67,-1.0136601906112723e-06
3784.57,-9.943168305976336e-07
3785.47,-9.627580198706315e-07
3786.38,-9.232736024093194e-07
3787.28,-8.81601866184665e-07
3788.18,-8.391513994790423e-07
3789.08,-8.133477690930073e-07
3789.98,-7.947017540165748e-07
3790.88,-7.907742270256948e-07
3791.78,-7.889942121569087e-07
3792.68,-7.95248120770268e-07
3793.58,-7.853247432469112e-07
3794.48,-7.696527431534771e-07
3795.38,-7.475994168869296e-07
3796.28,-7.272882405458618e-07
3797.18,-7.089423369518944e-07
3798.08,-6.971622296321169e-07
3798.98,-7.016605333007657e-07
3799.88,-7.191062687424898e-07
3800.78,-7.607102412870301e-07
3801.68,-8.203027327753383e-07
3802.58,-8.79082382488064e-07
3803.48,-9.270526491638875e-07
3804.38,-9.635280531156215e-07
3805.28,-9.78613415955306e-07
3806.18,-9.85321187210521e-07
3807.08,-9.82367361470608e-07
3807.98,-9.818199170090971e-07
3808.88,-9.86418082047033e-07
3809.78,-9.926338770216646e-07
3810.68,-1.000952546157177e-06
3811.58,-9.960751361708742e-07
3812.48,-9.727673778990964e-07
3813.38,-9.350640353651688e-07
3814.28,-8.874666926536639e-07
3815.18,-8.438544051565005e-07
3816.08,-8.075525621419484e-07
3816.98,-7.879463774285996e-07
3817.88,-7.781675651106938e-07
3818.78,-7.65463035050415e-07
3819.68,-7.556002268537065e-07
3820.58,-7.416368193446798e-07
3821.48,-7.289829440326455e-07
3822.38,-7.178655671534672e-07
3823.28,-7.095840834071082e-07
3824.18,-6.908153785820449e-07
3825.09,-6.737316756109792e-07
3825.99,-6.472051418498608e-07
3826.89,-6.280667758183521e-07
3827.79,-6.170783996213919e-07
3828.69,-6.164984301708915e-07
3829.59,-6.184647840823504e-07
3830.49,-6.216736645959485e-07
3831.39,-6.167567040793381e-07
3832.29,-6.058254826078102e-07
3833.19,-5.945629261070859e-07
3834.09,-5.849378662960698e-07
3834.99,-5.796554441331809e-07
3835.89,-5.835986552627022e-07
3836.79,-5.914355116172027e-07
3837.69,-5.956023342650917e-07
3838.59,-6.029648498506502e-07
3839.49,-6.124340740216509e-07
3840.39,-6.398335314890233e-07
3841.29,-6.806080110426375e-07
3842.19,-7.346026441093112e-07
3843.09,-7.985843909718038e-07
3843.99,-8.590623546426603e-07
3844.89,-9.115111646920321e-07
3845.79,-9.504451468914226e-07
3846.69,-9.737125302599532e-07
3847.59,-9.889350485919524e-07
3848.49,-9.922302241820604e-07
3849.39,-9.87571950716485e-07
3850.29,-9.78831223714184e-07
3851.19,-9.818677914394166e-07
3852.09,-9.781180711859547e-07
3852.99,-9.821822974650937e-07
3853.89,-9.713760937517243e-07
3854.79,-9.606623160677606e-07
3855.69,-9.427618482823452e-07
3856.59,-9.12966237651147e-07
3857.49,-8.788558835013423e-07
3858.39,-8.522897476923415e-07
3859.29,-8.323426585622563e-07
3860.19,-8.25742426886242e-07
3861.09,-8.490455358285637e-07
3861.99,-8.861628897133004e-07
3862.9,-9.400917682107451e-07
3863.8,-9.910908516734474e-07
3864.7,-1.0277591653617865e-06
3865.6,-1.0416165185979785e-06
3866.5,-1.0531996704958772e-06
3867.4,-1.0387210991530384e-06
3868.3,-1.0249214945421872e-06
3869.2,-1.003173594526707e-06
3870.1,-9.795532206202825e-07
3871.0,-9.502289734834639e-07
3871.9,-9.305605753614966e-07
3872.8,-9.29900625744542e-07
3873.7,-9.466959304536409e-07
3874.6,-9.737511981227678e-07
3875.5,-1.005354900735125e-06
3876.4,-1.0210445667902791e-06
3877.3,-1.0298132639431259e-06
3878.2,-1.0185771211782204e-06
3879.1,-1.0020188169163088e-06
3880.0,-9.867589370301815e-07
3880.9,-9.830122802357248e-07
3881.8,-9.871185424337433e-07
3882.7,-9.96671227145303e-07
3883.6,-9.983198354658545e-07
3884.5,-9.987370277611305e-07
3885.4,-9.935630178986561e-07
3886.3,-9.710965671133024e-07
3887.2,-9.546520680081037e-07
3888.1,-9.455929049709546e-07
3889.0,-9.602393023147636e-07
3889.9,-9.942188571454473e-07
3890.8,-1.0505414805569418e-06
3891.7,-1.1122462397195926e-06
3892.6,-1.1742375580291743e-06
3893.5,-1.21934019611579e-06
3894.4,-1.2556934665842223e-06
3895.3,-1.2726045894691617e-06
3896.2,-1.285000620200709e-06
3897.1,-1.295338189876234e-06
3898.0,-1.3003420616306616e-06
3898.9,-1.3101397090831417e-06
3899.8,-1.317340058461555e-06
3900.7,-1.319265606337224e-06
3901.6,-1.3148547079755687e-06
3902.51,-1.3178250467709526e-06
3903.41,-1.303926006405999e-06
3904.31,-1.2930031157895797e-06
3905.21,-1.2819532493675891e-06
3906.11,-1.2823177477093855e-06
3907.01,-1.3024985330891929e-06
3907.91,-1.3506873779579103e-06
3908.81,-1.4086344110292772e-06
3909.71,-1.45780363741133e-06
3910.61,-1.5118298493870928e-06
3911.51,-1.558702308435096e-06
3912.41,-1.5820601076011449e-06
3913.31,-1.5943430066961906e-06
3914.21,-1.5988876018565638e-06
3915.11,-1.5899216082250027e-06
3916.01,-1.565726532086451e-06
3916.91,-1.5389715988758557e-06
3917.81,-1.5030775517128992e-06
3918.71,-1.4652096977199135e-06
3919.61,-1.4121582884649346e-06
3920.51,-1.3636353582642723e-06
3921.41,-1.3281344734121172e-06
3922.31,-1.2934539023393219e-06
3923.21,-1.2839647373112024e-06
3924.11,-1.2627635990926474e-06
3925.01,-1.2427261000891384e-06
3925.91,-1.207074556115564e-06
3926.81,-1.1496403016531566e-06
3927.71,-1.0676250683276548e-06
3928.61,-9.657598523543444e-07
3929.51,-8.567535606386212e-07
3930.41,-7.497711479097553e-07
3931.31,-6.531792330914347e-07
3932.21,-5.712747385224568e-07
3933.11,-5.106041300064031e-07
3934.01,-4.760689516904222e-07
3934.91,-4.74996513445109e-07
3935.81,-5.054899968817021e-07
3936.71,-5.687936743701734e-07
3937.61,-6.61902905941155e-07
3938.51,-7.670828073813418e-07
3939.42,-8.760236328137472e-07
3940.32,-9.80473065144787e-07
3941.22,-1.0643117440112627e-06
3942.12,-1.1320975679000323e-06
3943.02,-1.1849341356137748e-06
3943.92,-1.233671809590971e-06
3944.82,-1.2871251644811365e-06
3945.72,-1.3455422228113097e-06
3946.62,-1.4179341505070164e-06
3947.52,-1.4887916390302932e-06
3948.42,-1.557905943790127e-06
3949.32,-1.613292478503314e-06
3950.22,-1.6721417823661831e-06
3951.12,-1.7099243152386508e-06
3952.02,-1.7365090333793006e-06
3952.92,-1.7567641860936877e-06
3953.82,-1.7741070325007222e-06
3954.72,-1.7863877296373896e-06
3955.62,-1.7865637445430408e-06
3956.52,-1.767963670438909e-06
3957.42,-1.7568850946105864e-06
3958.32,-1.7269988492550519e-06
3959.22,-1.6912175981586833e-06
3960.12,-1.62168979644949e-06
3961.02,-1.5372041202747292e-06
3961.92,-1.4359921837669797e-06
3962.82,-1.3200676294359667e-06
3963.72,-1.2022109512103243e-06
3964.62,-1.0980589258212712e-06
3965.52,-9.77741278998196e-07
3966.42,-8.76632170640697e-07
3967.32,-7.735751638653599e-07
3968.22,-6.944680060209189e-07
3969.12,-6.513381517863473e-07
3970.02,-6.493471745780882e-07
3970.92,-6.920681807459056e-07
3971.82,-7.7491776150914e-07
3972.72,-8.957851719797265e-07
3973.62,-1.0307584084110025e-06
3974.52,-1.1822052134944445e-06
3975.42,-1.3321760583923957e-06
3976.32,-1.4757062208434405e-06
3977.22,-1.6072615520581572e-06
3978.13,-1.7501001867997766e-06
3979.03,-1.8646539207707606e-06
3979.93,-1.959241535897989e-06
3980.83,-2.035000220119291e-06
3981.73,-2.080938413540794e-06
3982.63,-2.121806311874382e-06
3983.53,-2.1433267475679576e-06
3984.43,-2.1730239344849645e-06
3985.33,-2.2067629439456934e-06
3986.23,-2.2281909972503448e-06
3987.13,-2.2656673183755354e-06
3988.03,-2.3164515480653915e-06
3988.93,-2.346385293388555e-06
3989.83,-2.3807643891372062e-06
3990.73,-2.420659673524978e-06
3991.63,-2.444256955541127e-06
3992.53,-2.4747174163698204e-06
3993.43,-2.484905051911971e-06
3994.33,-2.4826227346612895e-06
3995.23,-2.472285593147723e-06
3996.13,-2.4620374514611026e-06
3997.03,-2.452581197209628e-06
3997.93,-2.4520199844923003e-06
3998.83,-2.4989237483299673e-06
3999.73,-2.5243191672165904e-06
4000.63,-2.5711716471432208e-06
4001.53,-2.6373665570891757e-06
4002.43,-2.6658779047406537e-06
4003.33,-2.6694393264649562e-06
4004.23,-2.6416973855801034e-06
4005.13,-2.6099677662888532e-06
4006.03,-2.561540638831308e-06
4006.93,-2.5438410509218918e-06
4007.83,-2.557343723915212e-06
4008.73,-2.615138364662926e-06
4009.63,-2.6683264820838457e-06
4010.53,-2.7302890624101434e-06
4011.43,-2.7942815359742824e-06
4012.33,-2.830522770133926e-06
4013.23,-2.8591713932652394e-06
4014.13,-2.8814581570374423e-06
4015.03,-2.905356478293164e-06
4015.93,-2.922633619226066e-06
4016.84,-2.9273118048540383e-06
4017.74,-2.9424549629514184e-06
4018.64,-2.9582367847514194e-06
4019.54,-2.9653606762998595e-06
4020.44,-2.9940248458667712e-06
4021.34,-2.989793484542844e-06
4022.24,-3.013108479101235e-06
4023.14,-3.018280205625614e-06
4024.04,-3.0186366162167147e-06
4024.94,-3.029224506323287e-06
4025.84,-3.050530025739425e-06
4026.74,-3.0807081724340735e-06
4027.64,-3.0967913295705736e-06
4028.54,-3.0892367056462887e-06
4029.44,-3.0637156082232388e-06
4030.34,-2.977650608255427e-06
4031.24,-2.885270372631804e-06
4032.14,-2.801006983284977e-06
4033.04,-2.747841191100978e-06
4033.94,-2.7198810666891648e-06
4034.84,-2.764867643622441e-06
4035.74,-2.8577682254492665e-06
4036.64,-2.992789905661906e-06
4037.54,-3.1112509773955425e-06
4038.44,-3.2168453808727206e-06
4039.34,-3.284804985334741e-06
4040.24,-3.3076139093996283e-06
4041.14,-3.288934263894831e-06
4042.04,-3.239879805918471e-06
4042.94,-3.163252146026497e-06
4043.84,-3.0416104085223736e-06
4044.74,-2.937219146200164e-06
4045.64,-2.8354608022871684e-06
4046.54,-2.7860929477947e-06
4047.44,-2.8097486074782295e-06
4048.34,-2.9060842783278678e-06
4049.24,-3.034873859656305e-06
4050.14,-3.179285020991787e-06
4051.04,-3.2863808292803774e-06
4051.94,-3.361973475829882e-06
4052.84,-3.370064282396734e-06
4053.74,-3.34966135884764e-06
4054.65,-3.303187738592889e-06
4055.55,-3.2590676069499024e-06
4056.45,-3.2094359428646236e-06
4057.35,-3.169444722803086e-06
4058.25,-3.1825528981836506e-06
4059.15,-3.1745118907220532e-06
4060.05,-3.1881031544025116e-06
4060.95,-3.178430139920723e-06
4061.85,-3.1635882193855366e-06
4062.75,-3.127360113038231e-06
4063.65,-3.0597613989414367e-06
4064.55,-3.022902224740936e-06
4065.45,-3.0282664279642887e-06
4066.35,-3.095338489351277e-06
4067.25,-3.155391825462008e-06
4068.15,-3.239520490673148e-06
4069.05,-3.3175986078955014e-06
4069.95,-3.359105935692835e-06
4070.85,-3.3949247220151297e-06
4071.75,-3.37283388371183e-06
4072.65,-3.370078468365017e-06
4073.55,-3.375334301228166e-06
4074.45,-3.3692726519430857e-06
4075.35,-3.343205907466301e-06
4076.25,-3.328332885628609e-06
4077.15,-3.2823006651281723e-06
4078.05,-3.283220683086259e-06
4078.95,-3.3094801577848105e-06
4079.85,-3.3966710933720013e-06
4080.75,-3.506624311150062e-06
4081.65,-3.622011228599278e-06
4082.55,-3.714566884179773e-06
4083.45,-3.76496499712581e-06
4084.35,-3.7936249525748743e-06
4085.25,-3.837337078544772e-06
4086.15,-3.877926391984394e-06
4087.05,-3.957932343995223e-06
4087.95,-4.030906099650481e-06
4088.85,-4.124776091765403e-06
4089.75,-4.184295110951145e-06
4090.65,-4.212306957794888e-06
4091.55,-4.233333673398833e-06
4092.45,-4.205365237036957e-06
4093.36,-4.137473208086941e-06
4094.26,-4.0868193752660565e-06
4095.16,-4.02009436214587e-06
4096.06,-3.913890902952524e-06
4096.96,-3.835791388206591e-06
4097.86,-3.725178593124275e-06
4098.76,-3.6274313344359634e-06
4099.66,-3.5310279632329536e-06
4100.56,-3.423022539708153e-06
4101.46,-3.3428278335171065e-06
4102.36,-3.3094007227561653e-06
4103.26,-3.333733866861763e-06
4104.16,-3.4194943329115106e-06
4105.06,-3.5510142000421317e-06
4105.96,-3.7056728530800794e-06
4106.86,-3.841296769213689e-06
4107.76,-3.969697291874414e-06
4108.66,-4.0512574398616866e-06
4109.56,-4.088132986275362e-06
4110.46,-4.119679974643225e-06
4111.36,-4.151662882958587e-06
4112.26,-4.166570858529477e-06
4113.16,-4.23612107298874e-06
4114.06,-4.280450063409383e-06
4114.96,-4.3328077627121025e-06
4115.86,-4.406451149950581e-06
4116.76,-4.437372501188943e-06
4117.66,-4.402128754973011e-06
4118.56,-4.396215302171819e-06
4119.46,-4.377410199444691e-06
4120.36,-4.345857634820452e-06
4121.26,-4.3543851239984355e-06
4122.16,-4.380271760408019e-06
4123.06,-4.413471880389948e-06
4123.96,-4.422463504078799e-06
4124.86,-4.4715163350077105e-06
4125.76,-4.492954644912063e-06
4126.66,-4.5083348825651165e-06
4127.56,-4.470967249154743e-06
4128.46,-4.445705360176525e-06
4129.36,-4.402414525934121e-06
4130.26,-4.34942560723437e-06
4131.17,-4.2893645311606535e-06
4132.06,-4.219393588318696e-06
4132.97,-4.2022517771274e-06
4133.87,-4.183068734461102e-06
4134.77,-4.260673276447536e-06
4135.67,-4.346868259351469e-06
4136.57,-4.482411182889499e-06
4137.47,-4.5960909070919345e-06
4138.37,-4.716345403171757e-06
4139.27,-4.781901643128404e-06
4140.17,-4.792200676148587e-06
4141.07,-4.731019456829597e-06
4141.97,-4.6358755489254925e-06
4142.87,-4.524868797614738e-06
4143.77,-4.4426130809284435e-06
4144.67,-4.386709041862984e-06
4145.57,-4.393489104528655e-06
4146.47,-4.448818704258266e-06
4147.37,-4.541090423801985e-06
4148.27,-4.612390932139581e-06
4149.17,-4.682913065491144e-06
4150.07,-4.720552971731802e-06
4150.97,-4.703197271322941e-06
4151.87,-4.697062840185656e-06
4152.77,-4.681884865557313e-06
4153.67,-4.68359799903631e-06
4154.57,-4.657605970739028e-06
4155.47,-4.676936229397476e-06
4156.37,-4.697917134160423e-06
4157.27,-4.740667351890907e-06
4158.17,-4.834720508575603e-06
4159.07,-4.932215767155763e-06
4159.97,-5.023983152121819e-06
4160.87,-5.13925540986723e-06
4161.77,-5.221718513675289e-06
4162.67,-5.295718230350114e-06
4163.57,-5.334142169065194e-06
4164.47,-5.3805236810004636e-06
4165.37,-5.3193065640957475e-06
4166.27,-5.3005181088851684e-06
4167.17,-5.2453450160739445e-06
4168.07,-5.213629245635772e-06
4168.98,-5.188736344720012e-06
4169.88,-5.1522150729861395e-06
4170.78,-5.086621860809861e-06
4171.68,-5.026497005001678e-06
4172.58,-4.932944346666786e-06
4173.48,-4.85005476654942e-06
4174.38,-4.824205675847702e-06
4175.28,-4.821677006829312e-06
4176.18,-4.858239201460829e-06
4177.08,-4.92278065674481e-06
4177.98,-5.004373678184519e-06
4178.88,-5.064992650748723e-06
4179.78,-5.142065779469993e-06
4180.68,-5.181841881205279e-06
4181.58,-5.245964762502033e-06
4182.48,-5.296299856018135e-06
4183.38,-5.327149581479653e-06
4184.28,-5.353979993735118e-06
4185.18,-5.402956025747093e-06
4186.08,-5.404879404675311e-06
4186.98,-5.421890527541249e-06
4187.88,-5.388119331849427e-06
4188.78,-5.4171253196013725e-06
4189.68,-5.4604991459288074e-06
4190.58,-5.53194785882367e-06
4191.48,-5.596676837736048e-06
4192.38,-5.691978274039103e-06
4193.28,-5.739935763942466e-06
4194.18,-5.798660117364686e-06
4195.08,-5.7444642469205765e-06
4195.98,-5.653398328741066e-06
4196.88,-5.550303295122146e-06
4197.78,-5.4335886273075e-06
4198.68,-5.332934557251409e-06
4199.58,-5.297278357321893e-06
4200.48,-5.273921331703089e-06
4201.38,-5.2845711798583425e-06
4202.28,-5.354225539800159e-06
4203.18,-5.448663625052803e-06
4204.08,-5.544459413695093e-06
4204.98,-5.708400294602648e-06
4205.88,-5.876462077380586e-06
4206.79,-6.0314418198857895e-06
4207.69,-6.163198017328375e-06
4208.59,-6.2763035540492375e-06
4209.49,-6.3479043850574135e-06
4210.39,-6.398750741794304e-06
4211.29,-6.372168872556837e-06
4212.19,-6.4054752625223925e-06
4213.09,-6.404682295245103e-06
4213.99,-6.339339725772388e-06
4214.89,-6.270330819750852e-06
4215.79,-6.238939109110277e-06
4216.69,-6.276368717251201e-06
4217.59,-6.339756156875316e-06
4218.49,-6.471930563612226e-06
4219.39,-6.605370929025195e-06
4220.29,-6.718458092216673e-06
4221.19,-6.735004043030486e-06
4222.09,-6.6672908171073374e-06
4222.99,-6.497420876467579e-06
4223.89,-6.173530956078051e-06
4224.79,-5.8986404189578185e-06
4225.69,-5.554227340870035e-06
4226.59,-5.301326292295386e-06
4227.49,-5.2155016167235315e-06
4228.39,-5.30763997642907e-06
4229.29,-5.56055425233265e-06
4230.19,-5.8685152317180515e-06
4231.09,-6.194907275590884e-06
4231.99,-6.436741647270719e-06
4232.89,-6.6394038933347245e-06
4233.79,-6.691373904732644e-06
4234.69,-6.690652876985724e-06
4235.59,-6.6562448915560485e-06
4236.49,-6.606574997623095e-06
4237.39,-6.5809003741599815e-06
4238.29,-6.654730685587129e-06
4239.19,-6.741100048076049e-06
4240.09,-6.8210850666234015e-06
4240.99,-6.961113676178056e-06
4241.89,-7.133912269759559e-06
4242.79,-7.3043705632204225e-06
4243.69,-7.445659124864754e-06
4244.59,-7.531886470672919e-06
4245.5,-7.557003943257435e-06
4246.4,-7.553495074036199e-06
4247.3,-7.4647518971412076e-06
4248.2,-7.309536260184618e-06
4249.1,-7.15716164471389e-06
4250.0,-7.039199707155533e-06
4250.9,-6.956479486976556e-06
4251.8,-6.919822348748877e-06
4252.7,-6.9538650826036285e-06
4253.6,-7.007271711855058e-06
4254.5,-7.056399255381714e-06
4255.4,-7.140789007346374e-06
4256.3,-7.201685258907641e-06
4257.2,-7.281488484963887e-06
4258.1,-7.263134447140621e-06
4259.0,-7.286598735554207e-06
4259.9,-7.269841454500703e-06
4260.8,-7.2477064348539756e-06
4261.7,-7.2999243522046826e-06
4262.6,-7.456682041236249e-06
4263.5,-7.667280191150295e-06
4264.4,-7.938504219005247e-06
4265.3,-8.157482768772497e-06
4266.2,-8.277966819985154e-06
4267.1,-8.272338498411936e-06
4268.0,-8.210402900039182e-06
4268.9,-7.993372480516664e-06
4269.8,-7.697600690203907e-06
4270.7,-7.3760858801451315e-06
4271.6,-7.0850606572891136e-06
4272.5,-6.854457181359439e-06
4273.4,-6.79383001618708e-06
4274.3,-6.79179318253878e-06
4275.2,-6.9556788860449385e-06
4276.1,-7.255782395474769e-06
4277.0,-7.570554346654657e-06
4277.9,-7.854278908387679e-06
4278.8,-8.071193697450577e-06
