wave,flux
3700.85,-0.0017241203990574626
3701.75,-0.001735854945207711
3702.65,-0.0017122911853072419
3703.55,-0.0016702787274079146
3704.45,-0.001641516576783967
3705.35,-0.0016072164421773991
3706.25,-0.0016150743701549336
3707.15,-0.0016318431967475221
3708.05,-0.0016737085601625774
3708.96,-0.001722282050756048
3709.86,-0.0017568447750789422
3710.76,-0.0017868389258159654
3711.66,-0.0018376456887832923
3712.56,-0.0018923221143792674
3713.46,-0.001970202900159146
3714.36,-0.002078224178053389
3715.26,-0.00216348990814737
3716.16,-0.0022497630770008017
3717.06,-0.002289847132391342
3717.96,-0.0022915645116160827
3718.86,-0.0022324202496269026
3719.76,-0.002146869924961259
3720.66,-0.0020496751685764774
3721.56,-0.001974104644158767
3722.46,-0.0019598156503280815
3723.36,-0.002028822265034193
3724.26,-0.0021448988814638283
3725.16,-0.0023072813050643323
3726.06,-0.0024499430034151098
3726.96,-0.0025791464212728244
3727.86,-0.0026642244343214752
3728.76,-0.002733787700316062
3729.66,-0.00274542862633631
3730.56,-0.00273875228077555
3731.46,-0.0026682684687971856
3732.36,-0.0025524441611963567
3733.26,-0.002421367689452193
3734.16,-0.00230189438735644
3735.06,-0.002226345876426732
3735.96,-0.002227217311730447
3736.86,-0.0023445926151233636
3737.76,-0.002520480601449447
3738.66,-0.002775489443646027
3739.56,-0.0030246908249013144
3740.46,-0.003257621043781178
3741.36,-0.0034196515298215682
3742.26,-0.0035340996449965923
3743.16,-0.003555823717892854
3744.06,-0.0035478150765072673
3744.96,-0.0034797827834082457
3745.86,-0.0033729868542107626
3746.76,-0.003238846915457777
3747.67,-0.0030942540762512916
3748.57,-0.0029545675538824707
3749.47,-0.002855816200276417
3750.37,-0.0028573593008797142
3751.27,-0.002973925845420294
3752.17,-0.0032059416804646034
3753.07,-0.0035099143096978085
3753.97,-0.00385857497212197
3754.87,-0.0041782723663498535
3755.77,-0.004430635895819185
3756.67,-0.004607303477006105
3757.57,-0.004697687394177295
3758.47,-0.0047349483229070085
3759.37,-0.004777662607551033
3760.27,-0.00485454672934339
3761.17,-0.004950520869662223
3762.07,-0.005081528473865927
3762.97,-0.005210330543820614
3763.87,-0.005323403620572737
3764.77,-0.005343732240666306
3765.67,-0.00534425494999075
3766.57,-0.005283128998586917
3767.47,-0.005126094960167987
3768.37,-0.004999780838111401
3769.27,-0.004830740267545674
3770.17,-0.004752539669261975
3771.07,-0.004719062914594363
3771.97,-0.004864769676231469
3772.87,-0.005097839394684771
3773.77,-0.005438144518704618
3774.67,-0.005826340429795694
3775.57,-0.0062297760915929045
3776.47,-0.006618799326121441
3777.37,-0.007023465649719446
3778.27,-0.007415459604785677
3779.17,-0.00778514318938296
3780.07,-0.0081549949387423
3780.97,-0.008488359878114264
3781.87,-0.008765978075437919
3782.77,-0.009021250396798346
3783.67,-0.009174059061007059
3784.57,-0.00929799463617149
3785.47,-0.009325021802899815
3786.38,-0.009299379282546746
3787.28,-0.009254294427839795
3788.18,-0.009166990648208017
3789.08,-0.009126378895046996
3789.98,-0.009074666184700665
3790.88,-0.009057566510485065
3791.78,-0.009018492604757736
3792.68,-0.00887068131687992
3793.58,-0.00867803392768126
3794.48,-0.008348773335515664
3795.38,-0.008000890882468666
3796.28,-0.007662973606204852
3797.18,-0.007368070995219824
3798.08,-0.007236049813660974
3798.98,-0.007315187036133225
3799.88,-0.007675495208456283
3800.78,-0.008282031004911001
3801.68,-0.009093727556386717
3802.58,-0.010015922577281325
3803.48,-0.01087461615786458
3804.38,-0.011711932419717604
3805.28,-0.012357652232770586
3806.18,-0.012861298407078758
3807.08,-0.0134360900894534
3807.98,-0.013949544897825447
3808.88,-0.0144803603759099
3809.78,-0.01507545888854503
3810.68,-0.015518082718988965
3811.58,-0.015945356847827993
3812.48,-0.01623972311973627
3813.38,-0.016277567532085924
3814.28,-0.01640583316698794
3815.18,-0.01650511736670876
3816.08,-0.01684074667464167
3816.98,-0.017106842239785716
3817.88,-0.017493928909874057
3818.78,-0.017715913296687504
3819.68,-0.018028547256832096
3820.58,-0.018184739394742185
3821.48,-0.0183273425622885
3822.38,-0.01843361891386822
3823.28,-0.018459662262122672
3824.18,-0.018435636697151706
3825.09,-0.018292602045587726
3825.99,-0.018195054921696128
3826.89,-0.017923331855671305
3827.79,-0.017835827582186492
3828.69,-0.017710833955578407
3829.59,-0.017590811890469384
3830.49,-0.017122653235185813
3831.39,-0.01663122161931155
3832.29,-0.016009885578047393
3833.19,-0.015253084445889154
3834.09,-0.014647534696283578
3834.99,-0.01411928311068805
3835.89,-0.014024374344729144
3836.79,-0.014318429384324746
3837.69,-0.014992032479455032
3838.59,-0.016144484555247328
3839.49,-0.017535651103710432
3840.39,-0.01919210005602701
3841.29,-0.020998446972905517
3842.19,-0.022956761593651467
3843.09,-0.024994844069344494
3843.99,-0.02695505876897773
3844.89,-0.028712837432910147
3845.79,-0.030284360933221535
3846.69,-0.031804835602939244
3847.59,-0.033202922658264675
3848.49,-0.034444508504899704
3849.39,-0.035681680642633454
3850.29,-0.03694087207310822
3851.19,-0.03800411721492308
3852.09,-0.03935036032291831
3852.99,-0.040697468145354285
3853.89,-0.04169154548130109
3854.79,-0.0428983042322462
3855.69,-0.04368673067738716
3856.59,-0.04465707910703949
3857.49,-0.045334437470922515
3858.39,-0.04583875279953542
3859.29,-0.04660882700109372
3860.19,-0.047677575769778276
3861.09,-0.049300137244684725
3861.99,-0.05120171235322313
3862.9,-0.05334287868175055
3863.8,-0.05516455349974578
3864.7,-0.056696245818979314
3865.6,-0.05833951995385348
3866.5,-0.05976676890970176
3867.4,-0.0609261738472669
3868.3,-0.06197425626119435
3869.2,-0.06339371581736122
3870.1,-0.06394730973909712
3871.0,-0.06488507249995418
3871.9,-0.06504402467386554
3872.8,-0.0656520464257753
3873.7,-0.06659418636217154
3874.6,-0.06790232562806028
3875.5,-0.06931165934576279
3876.4,-0.0703287642170989
3877.3,-0.07135828419167856
3878.2,-0.07183317795260703
3879.1,-0.07228294880263582
3880.0,-0.07275097318461131
3880.9,-0.07286244817103248
3881.8,-0.07364757407819392
3882.7,-0.07423517348102665
3883.6,-0.07354601469701809
3884.5,-0.07289312513911082
3885.4,-0.07115032029101469
3886.3,-0.06896997070830521
3887.2,-0.06664377369675117
3888.1,-0.06473554128425049
3889.0,-0.06407934780670894
3889.9,-0.0650893075804883
3890.8,-0.06797833632822972
3891.7,-0.07388105669417602
3892.6,-0.08040118750728154
3893.5,-0.08775420495100425
3894.4,-0.09523444735633207
3895.3,-0.1021949173876848
3896.2,-0.10989532938436747
3897.1,-0.11695077424118229
3898.0,-0.12385310041890378
3898.9,-0.13073599586792908
3899.8,-0.1373222536534943
3900.7,-0.14466119550211048
3901.6,-0.15154530907957275
3902.51,-0.15804975828436663
3903.41,-0.16539993651487125
3904.31,-0.17203850464784046
3905.21,-0.1787234241416038
3906.11,-0.18540143166861012
3907.01,-0.19526625574850173
3907.91,-0.20460160211773254
3908.81,-0.21595678811111557
3909.71,-0.22740896340496214
3910.61,-0.2398290514396293
3911.51,-0.252941750553057
3912.41,-0.26244898257575294
3913.31,-0.27379086830027705
3914.21,-0.283618346762934
3915.11,-0.2934543946062577
3916.01,-0.3027797474962389
3916.91,-0.31227419841639337
3917.81,-0.3237778029375135
3918.71,-0.3344100355257454
3919.61,-0.34634000757618133
3920.51,-0.36160947242826424
3921.41,-0.3723435565280916
3922.31,-0.38924635841031074
3923.21,-0.4060314519919877
3924.11,-0.4239895780473517
3925.01,-0.43903415406824636
3925.91,-0.4527488842302964
3926.81,-0.46563015534649094
3927.71,-0.4702528654672273
3928.61,-0.47042734605781844
3929.51,-0.4656948416172717
3930.41,-0.4540426032179998
3931.31,-0.43775136234884054
3932.21,-0.4205936446394834
3933.11,-0.4076182694104229
3934.01,-0.4068581202980119
3934.91,-0.4278388416695831
3935.81,-0.47865201658363
3936.71,-0.5549957247223837
3937.61,-0.6580520344645281
3938.51,-0.7884715731385861
3939.42,-0.9282673296020749
3940.32,-1.0787988774171475
3941.22,-1.23622204197288
3942.12,-1.4045279036668143
3943.02,-1.594544879753505
3943.92,-1.7923087610034147
3944.82,-2.048989653859797
3945.72,-2.3735516765832223
3946.62,-2.7779059683367233
3947.52,-3.3400097370552135
3948.42,-4.089201372555777
3949.32,-5.231559643771916
3950.22,-7.184282877056313
3951.12,-11.138292362098
3952.02,-24.154585495446995
3952.92,180.9507090490088
3953.82,19.447182774919547
3954.72,10.41107035142365
3955.62,7.112632241548848
3956.52,5.395804649286162
3957.42,4.336718377956634
3958.32,3.628322078476503
3959.22,3.1035351598072753
3960.12,2.675121358775617
3961.02,2.3570840861800604
3961.92,2.0565768024323816
3962.82,1.793710733493069
3963.72,1.5666039456217191
3964.62,1.3576002048167368
3965.52,1.161166279292167
3966.42,0.9930324488782419
3967.32,0.832029980760956
3968.22,0.7096182068277856
3969.12,0.6198886918357177
3970.02,0.5724283189172039
3970.92,0.5684977189498069
3971.82,0.5883182006683546
3972.72,0.636118748103005
3973.62,0.6996401795196304
3974.52,0.7607971695570211
3975.42,0.8153935614209126
3976.32,0.8671076435799687
3977.22,0.9058035422119325
3978.13,0.9431898165763013
3979.03,0.9708170517693121
3979.93,0.9923777204568921
3980.83,1.0050684382013293
3981.73,1.0085602660926118
3982.63,1.015758196304486
3983.53,1.012833118411163
3984.43,1.0120143842266767
3985.33,1.014756364048212
3986.23,1.0101873183031778
3987.13,1.0159668966880933
3988.03,1.0174247593863952
3988.93,1.0207404394261868
3989.83,1.0217878642313327
3990.73,1.0204322108385602
3991.63,1.0226011625254945
3992.53,1.0218960192517172
3993.43,1.0201401529334786
3994.33,1.0146629645520637
3995.23,1.006906066028868
3996.13,0.9908628739810565
3997.03,0.9843746341699966
3997.93,0.9745194300027961
3998.83,0.9773178081062596
3999.73,0.9818342989586322
4000.63,0.9854626953878569
4001.53,0.9907749986460892
4002.43,0.9904254401707226
4003.33,0.9929086582396656
4004.23,0.9811917542528488
4005.13,0.9750497295291292
4006.03,0.9691029028142785
4006.93,0.9631644971582661
4007.83,0.964409509382346
4008.73,0.9681152477771122
4009.63,0.9752051998823276
4010.53,0.9849691158081747
4011.43,0.9926647755363118
4012.33,0.9914270601562893
4013.23,0.9900323203465877
4014.13,0.993873136868063
4015.03,0.995562449388147
4015.93,0.9971576777108252
4016.84,0.9973610849868291
4017.74,0.9973795144518285
4018.64,1.0024968506473029
4019.54,1.0048455195595933
4020.44,1.0081806091208976
4021.34,1.0093322869435066
4022.24,1.0104346573262
4023.14,1.0106281410804372
4024.04,1.00604765120143
4024.94,1.0071352169706678
4025.84,1.0077216937737923
4026.74,1.0145809944613726
4027.64,1.0165590489369767
4028.54,1.017249040795046
4029.44,1.007777988572362
4030.34,0.9977592101089748
4031.24,0.9844179146805088
4032.14,0.9757706876198118
4033.04,0.968888769585648
4033.94,0.9733915309387053
4034.84,0.9849840617587612
4035.74,0.9964847158635768
4036.64,1.0156368754714273
4037.54,1.0305335993905234
4038.44,1.0428114632567376
4039.34,1.0525410669399577
4040.24,1.0552418960369205
4041.14,1.0523616408454566
4042.04,1.0447494063808827
4042.94,1.0330785012956796
4043.84,1.01873809221761
4044.74,1.0129338007547524
4045.64,1.0014502886890586
4046.54,0.9931296270505281
4047.44,0.9997185879714636
4048.34,1.0166676316352519
4049.24,1.0315419265798649
4050.14,1.044236414898783
4051.04,1.0550937435085177
4051.94,1.0579982924361908
4052.84,1.0551500053705152
4053.74,1.055705934086328
4054.65,1.0458896288326491
4055.55,1.0417888855816828
4056.45,1.0435453647873054
4057.35,1.0390258034498145
4058.25,1.0441074891120914
4059.15,1.0421721980192513
4060.05,1.0492407305532894
4060.95,1.050639773022648
4061.85,1.0462468095252757
4062.75,1.0418122705257267
4063.65,1.0356752041753197
4064.55,1.0281049159820579
4065.45,1.0230595568199816
4066.35,1.0288639194254325
4067.25,1.0358530623838242
4068.15,1.0436621217229591
4069.05,1.0497867571525268
4069.95,1.0561717349447581
4070.85,1.0550898234614285
4071.75,1.0554546955899018
4072.65,1.0511177174098754
4073.55,1.045042616081033
4074.45,1.0379745332039056
4075.35,1.0272849182362715
4076.25,1.0173707227655426
4077.15,1.0044804535966898
4078.05,0.999413382716254
4078.95,0.9935393943473195
4079.85,1.0015496996283422
4080.75,1.011891628116686
4081.65,1.0220187787939747
4082.55,1.0281542704512312
4083.45,1.0327423352956335
4084.35,1.0296251714480333
4085.25,1.028826982738824
4086.15,1.025040353167042
4087.05,1.0290764244431043
4087.95,1.0278526214655082
4088.85,1.0294295831530966
4089.75,1.0293481742376915
4090.65,1.0267476305815122
4091.55,1.009547693686112
4092.45,0.9962847303509393
4093.36,0.9824921911121944
4094.26,0.9607412392252057
4095.16,0.9328949030588243
4096.06,0.9031362361551861
4096.96,0.867565836883678
4097.86,0.8299068950758905
4098.76,0.7920778077700836
4099.66,0.7549587124269673
4100.56,0.7104923928877823
4101.46,0.6788749208722028
4102.36,0.6621519672654536
4103.26,0.658542179251077
4104.16,0.6785016730594292
4105.06,0.7103727385410045
4105.96,0.7484006982806314
4106.86,0.7893968292046617
4107.76,0.8222579988997144
4108.66,0.8540031585329321
4109.56,0.8839414523364579
4110.46,0.9031897306242962
4111.36,0.9203068791822984
4112.26,0.9403104212718767
4113.16,0.9613001182326106
4114.06,0.9764109742945392
4114.96,0.9913784165600803
4115.86,1.005541354098561
4116.76,1.0143503300145533
4117.66,1.0209359965635156
4118.56,1.021424981990677
4119.46,1.0201838563859649
4120.36,1.0227008272253457
4121.26,1.0204614413181845
4122.16,1.0292510952082463
4123.06,1.026393628100014
4123.96,1.0387935168854716
4124.86,1.040411652020144
4125.76,1.0420981940952518
4126.66,1.0485577730065925
4127.56,1.0493460436638047
4128.46,1.0451353363388343
4129.36,1.0418515584581907
4130.26,1.0348059287164775
4131.17,1.0285904583616163
4132.06,1.0219210941850008
4132.97,1.0255128278278194
4133.87,1.0209694138161856
4134.77,1.0270549813289898
4135.67,1.034237224031962
4136.57,1.0482807375176433
4137.47,1.0628424532367775
4138.37,1.0712313015970067
4139.27,1.0811714919204123
4140.17,1.0851464938954631
4141.07,1.0724352055517392
4141.97,1.064643854699583
4142.87,1.0584369750799216
4143.77,1.0438338503527815
4144.67,1.0351614677038952
4145.57,1.0402307739537298
4146.47,1.0447355544946935
4147.37,1.0488568781348793
4148.27,1.0502169927519016
4149.17,1.0559725094419503
4150.07,1.0545696434065166
4150.97,1.0514333399068496
4151.87,1.0490333688550246
4152.77,1.0434444221848034
4153.67,1.0376858199521597
4154.57,1.0328551559825128
4155.47,1.038241395598674
4156.37,1.0284240511854348
4157.27,1.0305404069216326
4158.17,1.0356558348660292
4159.07,1.0388603207194522
4159.97,1.0497679400588071
4160.87,1.0561330441932661
4161.77,1.0604181116650246
4162.67,1.062444253209537
4163.57,1.0646584519116429
4164.47,1.0623693797642744
4165.37,1.060729194184065
4166.27,1.0582909098905446
4167.17,1.052813752907083
4168.07,1.050502805012357
4168.98,1.042995574354284
4169.88,1.0324772755988945
4170.78,1.0256623010948207
4171.68,1.0107303335021574
4172.58,0.9985199984265404
4173.48,0.9868827599091514
4174.38,0.976797332308215
4175.28,0.9757539600759552
4176.18,0.9787372372843048
4177.08,0.9825333436681817
4177.98,0.9893667479717495
4178.88,0.9910525081646517
4179.78,0.9965704513718046
4180.68,1.001656968337395
4181.58,1.0038256563765757
4182.48,1.006010585191838
4183.38,1.0089162912713159
4184.28,1.0110440994291259
4185.18,1.0116860249217463
4186.08,1.0089829532355707
4186.98,1.005685570940523
4187.88,1.0092157674780724
4188.78,1.003486681623908
4189.68,1.0095281946776564
4190.58,1.0130272643476201
4191.48,1.0173370180547945
4192.38,1.0205194314773063
4193.28,1.0203701604552962
4194.18,1.0210369470816365
4195.08,1.0206684726962503
4195.98,1.0099348747145376
4196.88,1.0032763939895348
4197.78,0.9937423103902492
4198.68,0.9793102737406645
4199.58,0.9779211117272509
4200.48,0.9717224568211027
4201.38,0.972139366470313
4202.28,0.9742475441880184
4203.18,0.9743603387048025
4204.08,0.9809946593067432
4204.98,0.990724158182471
4205.88,0.9898456970705675
4206.79,1.0068220081599826
4207.69,1.008709656267691
4208.59,1.015718222626938
4209.49,1.0187962167673636
4210.39,1.023739083145625
4211.29,1.0233508710205161
4212.19,1.0207004578858159
4213.09,1.0178102811856267
4213.99,1.0205644111379408
4214.89,1.0091068449291538
4215.79,1.0017102695325828
4216.69,1.0009269117314459
4217.59,1.0023646925830136
4218.49,1.0072581425774922
4219.39,1.0129662424265942
4220.29,1.021336152564618
4221.19,1.0170619559007907
4222.09,1.0157985341242701
4222.99,1.0072465215540478
4223.89,0.9870779259020229
4224.79,0.9698247861170457
4225.69,0.9507263026975215
4226.59,0.9378979145856168
4227.49,0.9302824057945732
4228.39,0.9351317776253296
4229.29,0.9513996557403982
4230.19,0.9665528124354279
4231.09,0.9826272808996677
4231.99,0.9996219969338179
4232.89,1.00452531608456
4233.79,1.000238696497329
4234.69,1.0017306227616842
4235.59,0.9914477902485495
4236.49,0.9971410294295487
4237.39,0.9904299802400499
4238.29,0.9915452617625601
4239.19,0.9977498117341029
4240.09,1.0021979780799166
4240.99,1.0074757412450719
4241.89,1.0167849804733404
4242.79,1.0251446479593447
4243.69,1.0268365106429802
4244.59,1.0289964348708642
4245.5,1.0245668770442693
4246.4,1.0248799574834957
4247.3,1.0133857001698103
4248.2,1.0062771326611606
4249.1,1.004108835658867
4250.0,0.9940414450965991
4250.9,0.9976346192911676
4251.8,1.0021449339768287
4252.7,1.0066771169282775
4253.6,1.0141153866840262
4254.5,1.0148999288605263
4255.4,1.0205758575069794
4256.3,1.022656396705129
4257.2,1.0272859865101933
4258.1,1.0233309975867482
4259.0,1.0181083373960442
4259.9,1.0191465550601524
4260.8,1.0171059902771624
4261.7,1.0240721789617733
4262.6,1.0254166188211233
4263.5,1.0346093883904706
4264.4,1.0500335944183161
4265.3,1.0597416901405385
4266.2,1.0638123045387509
4267.1,1.0585585614294757
4268.0,1.0537599335571468
4268.9,1.046933230230119
4269.8,1.0318347407364756
4270.7,1.0179038667217075
4271.6,1.0021930515213922
4272.5,0.9908738371552815
4273.4,0.9883864387517516
4274.3,0.9890369846310797
4275.2,0.9953263411841522
4276.1,1.0020944752322323
4277.0,1.0213856828425434
4277.9,1.0364551147202374
4278.8,1.0393929774377895
4279.7,1.0436396060456514
4280.6,1.0458456281206767
4281.5,1.0452585526658515
4282.4,1.0372059365857527
4283.31,1.0283034059926999
4284.21,1.0265674411969257
4285.11,1.0258501662363613
4286.01,1.0226900369194123
4286.91,1.009673368598497
4287.81,1.0046002059066275
4288.71,0.9968799521288227
4289.61,0.9845265919160396
4290.51,0.9784485900626266
4291.41,0.9826342341775028
4292.31,0.9821922102904354
4293.21,0.9952645207604129
4294.11,0.9952006072200796
4295.01,1.0038427772952259
4295.91,1.001492571763476
4296.81,0.9918220295120848
4297.71,0.9774606308409891
4298.61,0.9619145050627489
4299.51,0.9442950851111269
4300.41,0.9289421121540551
4301.31,0.914319784018109
4302.21,0.9098378162980564
4303.11,0.9097576228535996
4304.01,0.9103729438647332
4304.91,0.9099591220589245
4305.81,0.9152680532969497
4306.71,0.9120306612972632
4307.61,0.9145596017276
4308.51,0.9143853553909642
4309.41,0.9107871862991194
4310.31,0.9157823778926256
4311.21,0.9247139119211267
4312.11,0.9367163648480517
4313.01,0.9495871238302577
4313.91,0.9671145729748984
4314.81,0.985871642574395
4315.71,1.0134494968161207
4316.61,1.0334950749946852
4317.51,1.0485089898447457
4318.41,1.0669217821304713
4319.31,1.077768433658337
4320.21,1.0775290062219982
4321.12,1.0653252972642235
4322.02,1.0530760861291846
4322.92,1.0278399852966311
4323.82,1.0078124550793366
4324.72,0.9871595471895204
4325.62,0.9715954611000734
4326.52,0.962511902932507
4327.42,0.9630083741649248
4328.32,0.9640470770926841
4329.22,0.9720372278681636
4330.12,0.9836191839303419
4331.02,0.9848255142166801
4331.92,0.9835637242655699
4332.82,0.9754062206189885
4333.72,0.9630916317745423
4334.62,0.9424986302168218
4335.52,0.9102195732630829
4336.42,0.8826840709392665
4337.32,0.8367213348247812
4338.22,0.7980386387349988
4339.12,0.7520734533818803
4340.02,0.7148484024506341
4340.92,0.6957317955008924
4341.82,0.6914156377090638
4342.72,0.7079147284129299
4343.62,0.7356932813217083
4344.52,0.7741548525214983
4345.42,0.8140943629527755
4346.32,0.8498523480202256
4347.22,0.8854623293636741
4348.12,0.9108138688550713
4349.02,0.9334389642510649
