wave,flux
3700.85,-5.717842572692518e-07
3701.75,-5.658356169675021e-07
3702.65,-5.515304356438248e-07
3703.55,-5.255681507762731e-07
3704.45,-4.960534835831858e-07
3705.35,-4.7201972475517404e-07
3706.25,-4.5460722768960337e-07
3707.15,-4.480024906131879e-07
3708.05,-4.479896214693841e-07
3708.96,-4.551008522659573e-07
3709.86,-4.6811265490830574e-07
3710.76,-4.885196337412009e-07
3711.66,-5.11135502998792e-07
3712.56,-5.346068272795284e-07
3713.46,-5.588451459029579e-07
3714.36,-5.79948914760423e-07
3715.26,-5.921400669832386e-07
3716.16,-5.927120131559276e-07
3717.06,-5.809510640056972e-07
3717.96,-5.572342754973057e-07
3718.86,-5.2317108175367e-07
3719.76,-4.850312370311195e-07
3720.66,-4.4874146623770233e-07
3721.56,-4.259364447261998e-07
3722.46,-4.2379000455713505e-07
3723.36,-4.3669704990439293e-07
3724.26,-4.623051523633237e-07
3725.16,-4.919407482630388e-07
3726.06,-5.185523623892316e-07
3726.96,-5.328021866473235e-07
3727.86,-5.399471057742929e-07
3728.76,-5.433290784404589e-07
3729.66,-5.388828096337988e-07
3730.56,-5.296314711093133e-07
3731.46,-5.127000289569758e-07
3732.36,-4.84879768042346e-07
3733.26,-4.5101134106974735e-07
3734.16,-4.162165658443949e-07
3735.06,-3.8999052477208023e-07
3735.96,-3.77225154698438e-07
3736.86,-3.8014257917546055e-07
3737.76,-4.005733114776583e-07
3738.66,-4.346401103601757e-07
3739.56,-4.7192738187056844e-07
3740.46,-5.056991794159981e-07
3741.36,-5.262910419645319e-07
3742.26,-5.374004700551799e-07
3743.16,-5.276530978767553e-07
3744.06,-5.091466348894282e-07
3744.96,-4.850390932223398e-07
3745.86,-4.611643753700337e-07
3746.76,-4.353764775626768e-07
3747.67,-4.142374951476971e-07
3748.57,-3.9909916258617147e-07
3749.47,-3.92421132234952e-07
3750.37,-4.0234983913977113e-07
3751.27,-4.252670038909736e-07
3752.17,-4.624468754507012e-07
3753.07,-5.043908419590863e-07
3753.97,-5.451115017689211e-07
3754.87,-5.764547926611058e-07
3755.77,-5.892679035642561e-07
3756.67,-5.870983842484508e-07
3757.57,-5.736960963990735e-07
3758.47,-5.538676622110422e-07
3759.37,-5.344304380573912e-07
3760.27,-5.26644282461221e-07
3761.17,-5.285911489120688e-07
3762.07,-5.379177402728345e-07
3762.97,-5.504998293219246e-07
3763.87,-5.58431915722976e-07
3764.77,-5.629898556349734e-07
3765.67,-5.618719610677882e-07
3766.57,-5.610863361122171e-07
3767.47,-5.554663058108335e-07
3768.37,-5.532360693065384e-07
3769.27,-5.510494039807264e-07
3770.17,-5.495781117533139e-07
3771.07,-5.572757027855379e-07
3771.97,-5.681109322541786e-07
3772.87,-5.877688615977698e-07
3773.77,-6.065951293859354e-07
3774.67,-6.230452603145598e-07
3775.57,-6.376434036275315e-07
3776.47,-6.480670661744763e-07
3777.37,-6.595722351167172e-07
3778.27,-6.727422239168966e-07
3779.17,-6.843863868416542e-07
3780.07,-6.999759478003406e-07
3780.97,-7.103068719739165e-07
3781.87,-7.208016149859494e-07
3782.77,-7.280595883188994e-07
3783.67,-7.26479590642952e-07
3784.57,-7.188607487437423e-07
3785.47,-7.005098258292965e-07
3786.38,-6.794502363702318e-07
3787.28,-6.555143754696218e-07
3788.18,-6.343681507337477e-07
3789.08,-6.21055280806103e-07
3789.98,-6.142757024950598e-07
3790.88,-6.057200962512966e-07
3791.78,-6.054341899463672e-07
3792.68,-5.998476787210221e-07
3793.58,-5.910581573276963e-07
3794.48,-5.761564986852869e-07
3795.38,-5.570451099559501e-07
3796.28,-5.401642254359999e-07
3797.18,-5.216257372540289e-07
3798.08,-5.099607029456181e-07
3798.98,-5.103730403414307e-07
3799.88,-5.257623895108989e-07
3800.78,-5.528547915613222e-07
3801.68,-5.902460227150661e-07
3802.58,-6.312235742788208e-07
3803.48,-6.659749253228995e-07
3804.38,-6.889220369910072e-07
3805.28,-7.006290998635154e-07
3806.18,-7.065371246994e-07
3807.08,-7.072277564748369e-07
3807.98,-7.07022203819488e-07
3808.88,-7.081625191988679e-07
3809.78,-7.175417267012538e-07
3810.68,-7.18492878870417e-07
3811.58,-7.139938163286966e-07
3812.48,-6.999749108947778e-07
3813.38,-6.791158722780741e-07
3814.28,-6.540058847236438e-07
3815.18,-6.313596044646875e-07
3816.08,-6.150021262529535e-07
3816.98,-6.049003569736062e-07
3817.88,-6.031350261420998e-07
3818.78,-5.978899892304453e-07
3819.68,-5.901138138087586e-07
3820.58,-5.857550647875693e-07
3821.48,-5.743157696899325e-07
3822.38,-5.693777613764398e-07
3823.28,-5.653919422819254e-07
3824.18,-5.515209628059836e-07
3825.09,-5.381874993169988e-07
3825.99,-5.226416880950862e-07
3826.89,-5.109782697194576e-07
3827.79,-5.000304278949747e-07
3828.69,-4.961048780688068e-07
3829.59,-4.905573003838024e-07
3830.49,-4.857129837331934e-07
3831.39,-4.768744613586954e-07
3832.29,-4.618040949935265e-07
3833.19,-4.4621518806776904e-07
3834.09,-4.306947455104042e-07
3834.99,-4.2203874582946483e-07
3835.89,-4.186001256841572e-07
3836.79,-4.198955339060075e-07
3837.69,-4.2762742231709556e-07
3838.59,-4.358563091366559e-07
3839.49,-4.4856543944318476e-07
3840.39,-4.7070008068178653e-07
3841.29,-4.995389799940803e-07
3842.19,-5.385155309620423e-07
3843.09,-5.773719794270252e-07
3843.99,-6.159373714215322e-07
3844.89,-6.434512961341782e-07
3845.79,-6.685816925634044e-07
3846.69,-6.864505799525702e-07
3847.59,-6.911247167819396e-07
3848.49,-6.980913591886145e-07
3849.39,-6.950409294282846e-07
3850.29,-6.929206938802174e-07
3851.19,-6.949089297597976e-07
3852.09,-6.949202270258754e-07
3852.99,-6.967044042871625e-07
3853.89,-6.946282889152154e-07
3854.79,-6.91764129678857e-07
3855.69,-6.796894797626065e-07
3856.59,-6.624621397158983e-07
3857.49,-6.441548335329174e-07
3858.39,-6.271770443724878e-07
3859.29,-6.133171982875586e-07
3860.19,-6.108327297386175e-07
3861.09,-6.17125568500185e-07
3861.99,-6.404312267424349e-07
3862.9,-6.621527967392542e-07
3863.8,-6.88811564999804e-07
3864.7,-7.098183721207672e-07
3865.6,-7.220933907702466e-07
3866.5,-7.233915663216264e-07
3867.4,-7.216218208073017e-07
3868.3,-7.161929455580031e-07
3869.2,-7.107536082859914e-07
3870.1,-6.934682319994907e-07
3871.0,-6.749818740775177e-07
3871.9,-6.58109367903293e-07
3872.8,-6.494545973400124e-07
3873.7,-6.461104456093798e-07
3874.6,-6.522504748477985e-07
3875.5,-6.584013835286758e-07
3876.4,-6.652041959062894e-07
3877.3,-6.676348605744049e-07
3878.2,-6.618281510588371e-07
3879.1,-6.564923795623731e-07
3880.0,-6.521113893885734e-07
3880.9,-6.512636939202921e-07
3881.8,-6.498231549646265e-07
3882.7,-6.51605293747006e-07
3883.6,-6.490314824715786e-07
3884.5,-6.389656602940354e-07
3885.4,-6.217105602500048e-07
3886.3,-6.046929860557733e-07
3887.2,-5.821344150741685e-07
3888.1,-5.696972891490888e-07
3889.0,-5.609163590968233e-07
3889.9,-5.661465638109252e-07
3890.8,-5.866194064726701e-07
3891.7,-6.148890782097885e-07
3892.6,-6.440252927588256e-07
3893.5,-6.648976358044836e-07
3894.4,-6.866243298468941e-07
3895.3,-7.004937402973621e-07
3896.2,-7.087735485808141e-07
3897.1,-7.182685978806464e-07
3898.0,-7.264700205291792e-07
3898.9,-7.304770054035457e-07
3899.8,-7.363512241149406e-07
3900.7,-7.354996842076992e-07
3901.6,-7.423751495206137e-07
3902.51,-7.358280319059331e-07
3903.41,-7.337090158454615e-07
3904.31,-7.254839916197547e-07
3905.21,-7.245058901261349e-07
3906.11,-7.181835795238637e-07
3907.01,-7.2849598183736e-07
3907.91,-7.426891684231392e-07
3908.81,-7.632590259246684e-07
3909.71,-7.88178070942408e-07
3910.61,-8.082740675307275e-07
3911.51,-8.250287533509234e-07
3912.41,-8.326680707146008e-07
3913.31,-8.386010962306679e-07
3914.21,-8.3549271522862e-07
3915.11,-8.273753859400847e-07
3916.01,-8.162380535086646e-07
3916.91,-8.048567075939128e-07
3917.81,-7.878796860211121e-07
3918.71,-7.703684266372508e-07
3919.61,-7.51986413741245e-07
3920.51,-7.391592108882212e-07
3921.41,-7.204891134001588e-07
3922.31,-7.095676772855737e-07
3923.21,-7.010916870805563e-07
3924.11,-6.913090507501754e-07
3925.01,-6.799353566570081e-07
3925.91,-6.601087827973739e-07
3926.81,-6.27811234702387e-07
3927.71,-5.838525917902298e-07
3928.61,-5.313455120689316e-07
3929.51,-4.7291218558055337e-07
3930.41,-4.138895539421195e-07
3931.31,-3.58300539982067e-07
3932.21,-3.078974089356521e-07
3933.11,-2.700395262345463e-07
3934.01,-2.47108722260384e-07
3934.91,-2.448543430344218e-07
3935.81,-2.618578581860053e-07
3936.71,-2.9657599087184353e-07
3937.61,-3.468224148503267e-07
3938.51,-4.0468512806714093e-07
3939.42,-4.636409073149552e-07
3940.32,-5.188056039192854e-07
3941.22,-5.661980365383561e-07
3942.12,-6.018979664159243e-07
3943.02,-6.315252216458544e-07
3943.92,-6.550798748237142e-07
3944.82,-6.789647560886742e-07
3945.72,-7.043282320155121e-07
3946.62,-7.291644206776541e-07
3947.52,-7.530119351562016e-07
3948.42,-7.724158106901889e-07
3949.32,-7.957715841624299e-07
3950.22,-8.084488895438289e-07
3951.12,-8.233995915191352e-07
3952.02,-8.334111220393742e-07
3952.92,-8.402615399506319e-07
3953.82,-8.432476212915151e-07
3954.72,-8.456016676705157e-07
3955.62,-8.478436098822544e-07
3956.52,-8.434745963365334e-07
3957.42,-8.344506409538538e-07
3958.32,-8.240721489022177e-07
3959.22,-8.110552336235944e-07
3960.12,-7.859575045179677e-07
3961.02,-7.503189444529547e-07
3961.92,-7.095364719588321e-07
3962.82,-6.59156903896489e-07
3963.72,-6.072207209851952e-07
3964.62,-5.520033122084079e-07
3965.52,-4.944970767047119e-07
3966.42,-4.3625509150481305e-07
3967.32,-3.8060254193869193e-07
3968.22,-3.3605166450452077e-07
3969.12,-3.092948132300355e-07
3970.02,-3.0483688542534056e-07
3970.92,-3.2363026880264743e-07
3971.82,-3.624095794465233e-07
3972.72,-4.194372490034724e-07
3973.62,-4.849359421451983e-07
3974.52,-5.509124102797891e-07
3975.42,-6.168766849346322e-07
3976.32,-6.786466568441541e-07
3977.22,-7.353150551617085e-07
3978.13,-7.885372679581581e-07
3979.03,-8.337728416895984e-07
3979.93,-8.628609885927808e-07
3980.83,-8.895633078125034e-07
3981.73,-9.118475879262823e-07
3982.63,-9.192665798647803e-07
3983.53,-9.287281566228211e-07
3984.43,-9.357576315054998e-07
3985.33,-9.446533936459868e-07
3986.23,-9.585330282203077e-07
3987.13,-9.725580276803933e-07
3988.03,-9.782137044658687e-07
3988.93,-9.909619708206765e-07
3989.83,-1.006076705044502e-06
3990.73,-1.0153861749897248e-06
3991.63,-1.0217029243933353e-06
3992.53,-1.0273079139786745e-06
3993.43,-1.0366617629235915e-06
3994.33,-1.0317868843334575e-06
3995.23,-1.0248477678393998e-06
3996.13,-1.0171690678086553e-06
3997.03,-1.002937377440618e-06
3997.93,-1.0038260074449477e-06
3998.83,-1.0051401586858562e-06
3999.73,-1.016897640969278e-06
4000.63,-1.0349353940164402e-06
4001.53,-1.0461337459875158e-06
4002.43,-1.057109069473637e-06
4003.33,-1.0612185696566644e-06
4004.23,-1.0503913885385516e-06
4005.13,-1.0395429302517054e-06
4006.03,-1.0284898260831487e-06
4006.93,-1.0209627933379556e-06
4007.83,-1.0234618971243933e-06
4008.73,-1.0392637729980219e-06
4009.63,-1.0588368212252193e-06
4010.53,-1.074885033613107e-06
4011.43,-1.0867837378796531e-06
4012.33,-1.0935983162136268e-06
4013.23,-1.104489085409176e-06
4014.13,-1.1067093033261116e-06
4015.03,-1.107267243634232e-06
4015.93,-1.1090604928546899e-06
4016.84,-1.1161838420371863e-06
4017.74,-1.1135327896189363e-06
4018.64,-1.120289055268494e-06
4019.54,-1.1175732875749127e-06
4020.44,-1.1239103456041038e-06
4021.34,-1.1286439232988754e-06
4022.24,-1.1239988497271472e-06
4023.14,-1.1243220344373651e-06
4024.04,-1.129440828518101e-06
4024.94,-1.1332593802047343e-06
4025.84,-1.1331530909798281e-06
4026.74,-1.142227584097976e-06
4027.64,-1.1486301712233566e-06
4028.54,-1.1405255222274887e-06
4029.44,-1.1343464397416882e-06
4030.34,-1.1139846395977549e-06
4031.24,-1.0879976049575616e-06
4032.14,-1.0678652153801303e-06
4033.04,-1.0519694228252975e-06
4033.94,-1.0507073698628088e-06
4034.84,-1.0646249831741856e-06
4035.74,-1.0873967336030592e-06
4036.64,-1.1125466301244034e-06
4037.54,-1.1474734863899322e-06
4038.44,-1.1772173237465077e-06
4039.34,-1.1919516089954242e-06
4040.24,-1.19746247841122e-06
4041.14,-1.1873178625707582e-06
4042.04,-1.1715030630964592e-06
4042.94,-1.1516539571194787e-06
4043.84,-1.1162467169536385e-06
4044.74,-1.0906389324387188e-06
4045.64,-1.0619225199033268e-06
4046.54,-1.0511381648116002e-06
4047.44,-1.057188161276207e-06
4048.34,-1.0750081833352266e-06
4049.24,-1.1119245943923333e-06
4050.14,-1.1434682902307452e-06
4051.04,-1.1641117984574785e-06
4051.94,-1.1795334178808614e-06
4052.84,-1.1820122483415125e-06
4053.74,-1.1793528248595248e-06
4054.65,-1.1703947334143053e-06
4055.55,-1.1565759624025714e-06
4056.45,-1.1440835546923849e-06
4057.35,-1.144019573506943e-06
4058.25,-1.1449234371182499e-06
4059.15,-1.1460221516726849e-06
4060.05,-1.1455043841177773e-06
4060.95,-1.1457620621121812e-06
4061.85,-1.1347381537177005e-06
4062.75,-1.1242114146371054e-06
4063.65,-1.1069728108142955e-06
4064.55,-1.0926262446611419e-06
4065.45,-1.093806442769159e-06
4066.35,-1.0985060446336123e-06
4067.25,-1.1143647073415182e-06
4068.15,-1.1283601768382626e-06
4069.05,-1.1503526216367865e-06
4069.95,-1.1598955759540696e-06
4070.85,-1.1672958519971781e-06
4071.75,-1.1644878236079105e-06
4072.65,-1.1581974370391769e-06
4073.55,-1.1507780389282245e-06
4074.45,-1.1446577692637494e-06
4075.35,-1.138985304559314e-06
4076.25,-1.1185529510826125e-06
4077.15,-1.1066478147497636e-06
4078.05,-1.0978193519694727e-06
4078.95,-1.1036318035985969e-06
4079.85,-1.1142795254119024e-06
4080.75,-1.1410233173970155e-06
4081.65,-1.1681489931664052e-06
4082.55,-1.188896480039238e-06
4083.45,-1.2050386898694911e-06
4084.35,-1.2091903460480443e-06
4085.25,-1.2202628038094033e-06
4086.15,-1.2344832198170984e-06
4087.05,-1.246665418735288e-06
4087.95,-1.2720043114732114e-06
4088.85,-1.2913851178256104e-06
4089.75,-1.3049909075688444e-06
4090.65,-1.3099966112072665e-06
4091.55,-1.3134047488402671e-06
4092.45,-1.306367572111474e-06
4093.36,-1.292288607422757e-06
4094.26,-1.2804495864788613e-06
4095.16,-1.2523270781342656e-06
4096.06,-1.2334974390017447e-06
4096.96,-1.2004935072009395e-06
4097.86,-1.1690419721240265e-06
4098.76,-1.1329421022503438e-06
4099.66,-1.0954886672696519e-06
4100.56,-1.0542449410574158e-06
4101.46,-1.0221202388275623e-06
4102.36,-1.0046934539665933e-06
4103.26,-1.0082428350941765e-06
4104.16,-1.0297765337240334e-06
4105.06,-1.0650686594950767e-06
4105.96,-1.1070899194991965e-06
4106.86,-1.1501444781819245e-06
4107.76,-1.186743612038978e-06
4108.66,-1.2114146781838615e-06
4109.56,-1.2295136671226573e-06
4110.46,-1.231868601152802e-06
4111.36,-1.2423633040723322e-06
4112.26,-1.2496609361191655e-06
4113.16,-1.2642332009982078e-06
4114.06,-1.2837699053333639e-06
4114.96,-1.294420864443661e-06
4115.86,-1.3074274941953037e-06
4116.76,-1.3109681517830242e-06
4117.66,-1.3064607717968473e-06
4118.56,-1.3018058369822543e-06
4119.46,-1.2974857254930444e-06
4120.36,-1.2882545156078125e-06
4121.26,-1.2852929663096408e-06
4122.16,-1.283708143556558e-06
4123.06,-1.2868276018398018e-06
4123.96,-1.29272447856502e-06
4124.86,-1.3002275077505694e-06
4125.76,-1.308091403516273e-06
4126.66,-1.3097832331051305e-06
4127.56,-1.3001361526411924e-06
4128.46,-1.2909568016954065e-06
4129.36,-1.2833619921442728e-06
4130.26,-1.2799383091886268e-06
4131.17,-1.2596169547679144e-06
4132.06,-1.2448211052464476e-06
4132.97,-1.2404505083589085e-06
4133.87,-1.2340253209545196e-06
4134.77,-1.240138809002495e-06
4135.67,-1.2586171442549155e-06
4136.57,-1.2859835049005368e-06
4137.47,-1.3073540565740554e-06
4138.37,-1.3308069508955587e-06
4139.27,-1.3530362979807156e-06
4140.17,-1.3532303798605673e-06
4141.07,-1.3358432205496635e-06
4141.97,-1.3210359660774342e-06
4142.87,-1.2918379071832065e-06
4143.77,-1.2695213155106874e-06
4144.67,-1.25389381494738e-06
4145.57,-1.259661929849114e-06
4146.47,-1.2746020139912778e-06
4147.37,-1.2926272677567422e-06
4148.27,-1.3106157041870291e-06
4149.17,-1.3208031910781525e-06
4150.07,-1.327230801438e-06
4150.97,-1.330957991925279e-06
4151.87,-1.3206180353613864e-06
4152.77,-1.3189093671567972e-06
4153.67,-1.312328975625421e-06
4154.57,-1.3099619768873556e-06
4155.47,-1.3091671659963938e-06
4156.37,-1.3073647425511751e-06
4157.27,-1.3212233300783792e-06
4158.17,-1.3379853638165553e-06
4159.07,-1.346355136625427e-06
4159.97,-1.3648304314411905e-06
4160.87,-1.3769202720567274e-06
4161.77,-1.397120775285546e-06
4162.67,-1.3997224419391312e-06
4163.57,-1.405584169380597e-06
4164.47,-1.4120357692662528e-06
4165.37,-1.4021143994255664e-06
4166.27,-1.3963814663476007e-06
4167.17,-1.3867862200291214e-06
4168.07,-1.3790615465622839e-06
4168.98,-1.3728640760188085e-06
4169.88,-1.3609554617792162e-06
4170.78,-1.3363328765879724e-06
4171.68,-1.3191797419960435e-06
4172.58,-1.300457291561489e-06
4173.48,-1.279210059641397e-06
4174.38,-1.2724898990657166e-06
4175.28,-1.2694931962248605e-06
4176.18,-1.2806481185648534e-06
4177.08,-1.2951285227474897e-06
4177.98,-1.3111801039898698e-06
4178.88,-1.3235099070036168e-06
4179.78,-1.3430807253435057e-06
4180.68,-1.3480183431304556e-06
4181.58,-1.358351737323193e-06
4182.48,-1.3633859818215754e-06
4183.38,-1.3651757102492734e-06
4184.28,-1.3634892570019357e-06
4185.18,-1.3649100865952177e-06
4186.08,-1.3586941432555503e-06
4186.98,-1.3575127588141232e-06
4187.88,-1.3557335340341554e-06
4188.78,-1.355139833242514e-06
4189.68,-1.3595323380909943e-06
4190.58,-1.3674352886935058e-06
4191.48,-1.3819923545774919e-06
4192.38,-1.3926193775576548e-06
4193.28,-1.4029673671734938e-06
4194.18,-1.4049545689865376e-06
4195.08,-1.4068697220378974e-06
4195.98,-1.393193528458016e-06
4196.88,-1.3745361423588275e-06
4197.78,-1.3480282334734932e-06
4198.68,-1.3289109780867399e-06
4199.58,-1.3130666194588487e-06
4200.48,-1.3029159285381391e-06
4201.38,-1.3055651920016113e-06
4202.28,-1.306104892609316e-06
4203.18,-1.3202468720362779e-06
4204.08,-1.3380467524698072e-06
4204.98,-1.3555780578223592e-06
4205.88,-1.3803434617756435e-06
4206.79,-1.3957646954261588e-06
4207.69,-1.4161366214578489e-06
4208.59,-1.435103543440948e-06
4209.49,-1.4439863517950605e-06
4210.39,-1.4561610438004192e-06
4211.29,-1.4583704881479106e-06
4212.19,-1.4600489303551194e-06
4213.09,-1.4524089723642748e-06
4213.99,-1.440393644817388e-06
4214.89,-1.4261333223168756e-06
4215.79,-1.4190463953023975e-06
4216.69,-1.4071886798386932e-06
4217.59,-1.4090497090388034e-06
4218.49,-1.4196748685166272e-06
4219.39,-1.4314740603323259e-06
4220.29,-1.4491482933861464e-06
4221.19,-1.4569126034976594e-06
4222.09,-1.4433945027072604e-06
4222.99,-1.4197300112935603e-06
4223.89,-1.3803993920188614e-06
4224.79,-1.3245819226276585e-06
4225.69,-1.2675674841181058e-06
4226.59,-1.2289721350163696e-06
4227.49,-1.2090840000659866e-06
4228.39,-1.2222563737591424e-06
4229.29,-1.2579324410934816e-06
4230.19,-1.3111188193913114e-06
4231.09,-1.3614488593493682e-06
4231.99,-1.3979140538592131e-06
4232.89,-1.4242211061015878e-06
4233.79,-1.4293176799894472e-06
4234.69,-1.423390491959362e-06
4235.59,-1.4148655989859065e-06
4236.49,-1.4066361537730598e-06
4237.39,-1.4034904545087715e-06
4238.29,-1.404736728835439e-06
4239.19,-1.4066134967784354e-06
4240.09,-1.4306912535591333e-06
4240.99,-1.4433118193293696e-06
4241.89,-1.4636074025204465e-06
4242.79,-1.4743100715207662e-06
4243.69,-1.4906443650014155e-06
4244.59,-1.5002065455038766e-06
4245.5,-1.5034681003969874e-06
4246.4,-1.495858049417324e-06
4247.3,-1.473472232189287e-06
4248.2,-1.4547735983298803e-06
4249.1,-1.4279262494029898e-06
4250.0,-1.4151113475942211e-06
4250.9,-1.4176458937727013e-06
4251.8,-1.4211413957963308e-06
4252.7,-1.4266385281084412e-06
4253.6,-1.4364606965138075e-06
4254.5,-1.4412620671152467e-06
4255.4,-1.4518370034624e-06
4256.3,-1.458825239891132e-06
4257.2,-1.4626973329180468e-06
4258.1,-1.4584645362298422e-06
4259.0,-1.457357377332941e-06
4259.9,-1.4493261142897978e-06
4260.8,-1.4378942597115463e-06
4261.7,-1.447645339840863e-06
4262.6,-1.4646793545333641e-06
4263.5,-1.4966940251318786e-06
4264.4,-1.516478353086291e-06
4265.3,-1.5396206664415717e-06
4266.2,-1.5601339705931815e-06
4267.1,-1.5592707906244894e-06
4268.0,-1.5476855643122462e-06
4268.9,-1.5172172254060695e-06
4269.8,-1.4740741248125205e-06
4270.7,-1.439069383388695e-06
4271.6,-1.3953504425888736e-06
4272.5,-1.3697423293264506e-06
4273.4,-1.3483297121971004e-06
4274.3,-1.3498528566880526e-06
4275.2,-1.3707792831542932e-06
