wave,flux
3700.85,-5.377579601826619e-07
3701.75,-5.335398326983923e-07
3702.65,-5.192058635173187e-07
3703.55,-4.984491535936833e-07
3704.45,-4.775173203927054e-07
3705.35,-4.5745498332469296e-07
3706.25,-4.4767829675595034e-07
3707.15,-4.444814306069113e-07
3708.05,-4.4819829200794443e-07
3708.96,-4.544786550216729e-07
3709.86,-4.626074362143691e-07
3710.76,-4.7534947732534524e-07
3711.66,-4.861694814663674e-07
3712.56,-5.006227800301032e-07
3713.46,-5.190370863276954e-07
3714.36,-5.390157509376438e-07
3715.26,-5.543503740775879e-07
3716.16,-5.597869771051288e-07
3717.06,-5.604056290065945e-07
3717.96,-5.479477633705241e-07
3718.86,-5.241369115433179e-07
3719.76,-4.928429016593908e-07
3720.66,-4.630742178980217e-07
3721.56,-4.3860188839860634e-07
3722.46,-4.306506211969308e-07
3723.36,-4.4091063905793354e-07
3724.26,-4.636848962709288e-07
3725.16,-4.894353591014536e-07
3726.06,-5.112867882151967e-07
3726.96,-5.297725805489855e-07
3727.86,-5.390164717182765e-07
3728.76,-5.422426670209072e-07
3729.66,-5.381221261719528e-07
3730.56,-5.298495345115194e-07
3731.46,-5.123956316297552e-07
3732.36,-4.859788294081731e-07
3733.26,-4.5452787710877984e-07
3734.16,-4.2314207612836205e-07
3735.06,-4.0272646640394874e-07
3735.96,-3.935341392103942e-07
3736.86,-4.027357635718705e-07
3737.76,-4.259012393550093e-07
3738.66,-4.5770819934815883e-07
3739.56,-4.937126648771277e-07
3740.46,-5.256981082549661e-07
3741.36,-5.481158949298552e-07
3742.26,-5.553361543062977e-07
3743.16,-5.487918987737982e-07
3744.06,-5.357813499470594e-07
3744.96,-5.172715037206166e-07
3745.86,-4.967575878271717e-07
3746.76,-4.7045401107472977e-07
3747.67,-4.46081426600302e-07
3748.57,-4.260028677135806e-07
3749.47,-4.11882670625582e-07
3750.37,-4.107266996788058e-07
3751.27,-4.241589836674791e-07
3752.17,-4.5641197635206995e-07
3753.07,-4.939739580824379e-07
3753.97,-5.342104759124936e-07
3754.87,-5.649709624776815e-07
3755.77,-5.844055275284129e-07
3756.67,-5.896617185510335e-07
3757.57,-5.851662627683372e-07
3758.47,-5.707889052615175e-07
3759.37,-5.595060432175885e-07
3760.27,-5.538457151868347e-07
3761.17,-5.593463485062895e-07
3762.07,-5.642098402174707e-07
3762.97,-5.763688219238233e-07
3763.87,-5.838889347462518e-07
3764.77,-5.882846004017891e-07
3765.67,-5.854228946035418e-07
3766.57,-5.745717126055239e-07
3767.47,-5.634069623747415e-07
3768.37,-5.486738967096202e-07
3769.27,-5.313504474103761e-07
3770.17,-5.223026144522006e-07
3771.07,-5.193004871976351e-07
3771.97,-5.274380426665952e-07
3772.87,-5.455434326317265e-07
3773.77,-5.671849150996632e-07
3774.67,-5.92541039357689e-07
3775.57,-6.102246502811455e-07
3776.47,-6.285535821075756e-07
3777.37,-6.477413823334736e-07
3778.27,-6.634014499647106e-07
3779.17,-6.827182891102763e-07
3780.07,-6.971417731429204e-07
3780.97,-7.095712049184591e-07
3781.87,-7.255762844293943e-07
3782.77,-7.292993896485378e-07
3783.67,-7.316218014148092e-07
3784.57,-7.259679348646341e-07
3785.47,-7.10714415853733e-07
3786.38,-6.954398139301393e-07
3787.28,-6.732621101421966e-07
3788.18,-6.59117071575445e-07
3789.08,-6.48268237833223e-07
3789.98,-6.357474245765943e-07
3790.88,-6.302465710211453e-07
3791.78,-6.240260986186532e-07
3792.68,-6.110392794614095e-07
3793.58,-5.978132041744196e-07
3794.48,-5.74649431928177e-07
3795.38,-5.541611158980958e-07
3796.28,-5.255390873731543e-07
3797.18,-5.045577161824019e-07
3798.08,-4.901131480637406e-07
3798.98,-4.877436213204362e-07
3799.88,-5.037008425417868e-07
3800.78,-5.296414950732389e-07
3801.68,-5.704118430458003e-07
3802.58,-6.099522678357287e-07
3803.48,-6.48759522164695e-07
3804.38,-6.766446402591389e-07
3805.28,-6.948413944123932e-07
3806.18,-7.094509226734688e-07
3807.08,-7.126059480712405e-07
3807.98,-7.188465559651712e-07
3808.88,-7.25622838975734e-07
3809.78,-7.335052800245807e-07
3810.68,-7.414673132950826e-07
3811.58,-7.419009128394179e-07
3812.48,-7.306158246665074e-07
3813.38,-7.186727031709712e-07
3814.28,-6.988364876589328e-07
3815.18,-6.852132901251337e-07
3816.08,-6.769390993848248e-07
3816.98,-6.761449610861614e-07
3817.88,-6.768494171826876e-07
3818.78,-6.755669772868822e-07
3819.68,-6.746133515650915e-07
3820.58,-6.679268340843592e-07
3821.48,-6.626007632604208e-07
3822.38,-6.57441874224511e-07
3823.28,-6.48523551095231e-07
3824.18,-6.382560923931963e-07
3825.09,-6.246639127966594e-07
3825.99,-6.074580970471744e-07
3826.89,-5.946741048072263e-07
3827.79,-5.828470630818213e-07
3828.69,-5.72403490030765e-07
3829.59,-5.631685664000315e-07
3830.49,-5.496699359195547e-07
3831.39,-5.352290828048043e-07
3832.29,-5.089839898624156e-07
3833.19,-4.85088537759649e-07
3834.09,-4.598031462510445e-07
3834.99,-4.415660489362008e-07
3835.89,-4.3311583608930643e-07
3836.79,-4.3398456194735193e-07
3837.69,-4.4322973854546374e-07
3838.59,-4.594096321121257e-07
3839.49,-4.822500590285606e-07
3840.39,-5.116564097738093e-07
3841.29,-5.470817736709222e-07
3842.19,-5.844489394121203e-07
3843.09,-6.186017473342483e-07
3843.99,-6.532926117285155e-07
3844.89,-6.820366459341853e-07
3845.79,-7.055892279051161e-07
3846.69,-7.222319430010814e-07
3847.59,-7.354252283284697e-07
3848.49,-7.402428144156317e-07
3849.39,-7.493976392753271e-07
3850.29,-7.516590201090603e-07
3851.19,-7.567315873711198e-07
3852.09,-7.638919964928487e-07
3852.99,-7.680465654993068e-07
3853.89,-7.694616572694575e-07
3854.79,-7.692751832551085e-07
3855.69,-7.620482047463973e-07
3856.59,-7.513876518097402e-07
3857.49,-7.416718440926299e-07
3858.39,-7.27936755011053e-07
3859.29,-7.205970717921077e-07
3860.19,-7.17435971025997e-07
3861.09,-7.28079889560229e-07
3861.99,-7.437740374559099e-07
3862.9,-7.604514588813988e-07
3863.8,-7.827468212600368e-07
3864.7,-7.927477652232218e-07
3865.6,-7.987592645852014e-07
3866.5,-8.05453683787218e-07
3867.4,-8.005566296627144e-07
3868.3,-8.00992441354257e-07
3869.2,-7.941747252607113e-07
3870.1,-7.835973079558567e-07
3871.0,-7.678056830913493e-07
3871.9,-7.547820544969714e-07
3872.8,-7.387936457912033e-07
3873.7,-7.330989216179567e-07
3874.6,-7.323961553744476e-07
3875.5,-7.365821827303203e-07
3876.4,-7.390188376848755e-07
3877.3,-7.35176740634906e-07
3878.2,-7.325002922323049e-07
3879.1,-7.246513853833315e-07
3880.0,-7.18738662204788e-07
3880.9,-7.152145746793477e-07
3881.8,-7.117776978927602e-07
3882.7,-7.0418506626735e-07
3883.6,-6.928734672759102e-07
3884.5,-6.76486426178762e-07
3885.4,-6.509912696561178e-07
3886.3,-6.235082972450229e-07
3887.2,-5.924453036212303e-07
3888.1,-5.666579146231284e-07
3889.0,-5.501706285058622e-07
3889.9,-5.49326433283344e-07
3890.8,-5.625762056569006e-07
3891.7,-5.879605461408234e-07
3892.6,-6.207502476070257e-07
3893.5,-6.510021377105322e-07
3894.4,-6.757506115216957e-07
3895.3,-6.984669040188335e-07
3896.2,-7.184282222952777e-07
3897.1,-7.330907880477348e-07
3898.0,-7.432779716596384e-07
3898.9,-7.592122940386253e-07
3899.8,-7.655309796374318e-07
3900.7,-7.744303910476194e-07
3901.6,-7.815190452826544e-07
3902.51,-7.847549841362942e-07
3903.41,-7.856765267761719e-07
3904.31,-7.797779116412823e-07
3905.21,-7.786930170285076e-07
3906.11,-7.808656244831525e-07
3907.01,-7.873441710058277e-07
3907.91,-7.965922844018876e-07
3908.81,-8.207256334974585e-07
3909.71,-8.388922048325222e-07
3910.61,-8.574801963261376e-07
3911.51,-8.710026635270314e-07
3912.41,-8.80247528886265e-07
3913.31,-8.805073640700981e-07
3914.21,-8.792572960188129e-07
3915.11,-8.659147411535913e-07
3916.01,-8.64403585539466e-07
3916.91,-8.493850170838558e-07
3917.81,-8.416950034315917e-07
3918.71,-8.312499884865399e-07
3919.61,-8.186055051066398e-07
3920.51,-8.095399519170928e-07
3921.41,-8.016345438876198e-07
3922.31,-7.969307322292303e-07
3923.21,-7.91013207875801e-07
3924.11,-7.85330118993787e-07
3925.01,-7.724699296967106e-07
3925.91,-7.516731048955464e-07
3926.81,-7.20968410215677e-07
3927.71,-6.816122343701395e-07
3928.61,-6.333579412010161e-07
3929.51,-5.733850000687886e-07
3930.41,-5.107736576727287e-07
3931.31,-4.4640896189184483e-07
3932.21,-3.896146462945464e-07
3933.11,-3.4180273183257437e-07
3934.01,-3.1261793206487607e-07
3934.91,-3.094272094648948e-07
3935.81,-3.286179608724875e-07
3936.71,-3.6933075645922037e-07
3937.61,-4.260373040229044e-07
3938.51,-4.924143637857808e-07
3939.42,-5.584463112677035e-07
3940.32,-6.172656434367761e-07
3941.22,-6.664779744859771e-07
3942.12,-7.017948271227252e-07
3943.02,-7.263133207194646e-07
3943.92,-7.539411744758758e-07
3944.82,-7.719927279387132e-07
3945.72,-7.871086266161045e-07
3946.62,-8.109913677975355e-07
3947.52,-8.256165722864948e-07
3948.42,-8.389313758029755e-07
3949.32,-8.519927883664655e-07
3950.22,-8.569129711887692e-07
3951.12,-8.664216263279714e-07
3952.02,-8.735668403255223e-07
3952.92,-8.801418157471013e-07
3953.82,-8.784057848456788e-07
3954.72,-8.82050277247904e-07
3955.62,-8.797776944859185e-07
3956.52,-8.748538594068905e-07
3957.42,-8.683919696694743e-07
3958.32,-8.599033163392222e-07
3959.22,-8.478766503221868e-07
3960.12,-8.267083716726671e-07
3961.02,-8.000030369449296e-07
3961.92,-7.64008948113037e-07
3962.82,-7.186230901483992e-07
3963.72,-6.679723682924962e-07
3964.62,-6.154807313198452e-07
3965.52,-5.550554288064881e-07
3966.42,-4.942073276001851e-07
3967.32,-4.314684795519242e-07
3968.22,-3.799192295847443e-07
3969.12,-3.4938899066295455e-07
3970.02,-3.3805336741643647e-07
3970.92,-3.53380481268942e-07
3971.82,-3.9280845875113267e-07
3972.72,-4.482271858726963e-07
3973.62,-5.102005843416495e-07
3974.52,-5.774765488174707e-07
3975.42,-6.421539936193181e-07
3976.32,-6.979905755848941e-07
3977.22,-7.562984391582185e-07
3978.13,-8.02569487852592e-07
3979.03,-8.437089910313709e-07
3979.93,-8.759030068423249e-07
3980.83,-8.978732035934102e-07
3981.73,-9.175068192620678e-07
3982.63,-9.285209166926464e-07
3983.53,-9.398169591497969e-07
3984.43,-9.447145740349867e-07
3985.33,-9.533185727282694e-07
3986.23,-9.606781807512738e-07
3987.13,-9.756182582788888e-07
3988.03,-9.906385445164304e-07
3988.93,-9.997635049811834e-07
3989.83,-1.010143487893111e-06
3990.73,-1.020779802174572e-06
3991.63,-1.0280563983966272e-06
3992.53,-1.0377771370378986e-06
3993.43,-1.0451086497652696e-06
3994.33,-1.0424458496998567e-06
3995.23,-1.0331257827125413e-06
3996.13,-1.030683814454335e-06
3997.03,-1.0200855692000732e-06
3997.93,-1.0200434935503619e-06
3998.83,-1.0213306471300475e-06
3999.73,-1.0307137844061806e-06
4000.63,-1.0470166585952617e-06
4001.53,-1.0621226454739453e-06
4002.43,-1.0719162267056738e-06
4003.33,-1.0694866290144779e-06
4004.23,-1.0659280478092005e-06
4005.13,-1.055640676803194e-06
4006.03,-1.0461370956487644e-06
4006.93,-1.0428926558099494e-06
4007.83,-1.0455492709654128e-06
4008.73,-1.0578600968958504e-06
4009.63,-1.0760859073368095e-06
4010.53,-1.0862932447442196e-06
4011.43,-1.0961418491055526e-06
4012.33,-1.1051719739196704e-06
4013.23,-1.1103023393218972e-06
4014.13,-1.1181991352001732e-06
4015.03,-1.114393396701146e-06
4015.93,-1.1219283613141227e-06
4016.84,-1.119620285461479e-06
4017.74,-1.1203887633974796e-06
4018.64,-1.1239557083002497e-06
4019.54,-1.130274744897285e-06
4020.44,-1.1326316471104877e-06
4021.34,-1.1344474187529544e-06
4022.24,-1.1364021787849762e-06
4023.14,-1.133365255067618e-06
4024.04,-1.1375066058487148e-06
4024.94,-1.139686208604745e-06
4025.84,-1.143566168542339e-06
4026.74,-1.1554801233869922e-06
4027.64,-1.155843323170702e-06
4028.54,-1.15197914269497e-06
4029.44,-1.1474748026941595e-06
4030.34,-1.1292099604354256e-06
4031.24,-1.1082666462478895e-06
4032.14,-1.0915810116602525e-06
4033.04,-1.0781448167889566e-06
4033.94,-1.0795073453070101e-06
4034.84,-1.0896592795651532e-06
4035.74,-1.110700372774585e-06
4036.64,-1.1357124823025108e-06
4037.54,-1.1608271047633861e-06
4038.44,-1.1859890012504407e-06
4039.34,-1.191622939727259e-06
4040.24,-1.198267363248805e-06
4041.14,-1.194825133440223e-06
4042.04,-1.179763540293083e-06
4042.94,-1.1597108227883149e-06
4043.84,-1.1415996837425635e-06
4044.74,-1.1218611670879407e-06
4045.64,-1.1019721515205588e-06
4046.54,-1.096090148284794e-06
4047.44,-1.1000544842269925e-06
4048.34,-1.1196404402214572e-06
4049.24,-1.1357836737324895e-06
4050.14,-1.1624337688200306e-06
4051.04,-1.1804749291745902e-06
4051.94,-1.182621765209534e-06
4052.84,-1.184490182432396e-06
4053.74,-1.17888947630983e-06
4054.65,-1.166939476251474e-06
4055.55,-1.1550377921534417e-06
4056.45,-1.153744663037042e-06
4057.35,-1.1487969190119005e-06
4058.25,-1.1488818738769734e-06
4059.15,-1.1529931378941608e-06
4060.05,-1.1587578827366458e-06
4060.95,-1.1581682282477825e-06
4061.85,-1.1525140978706272e-06
4062.75,-1.1440298666564248e-06
4063.65,-1.1280625589100316e-06
4064.55,-1.127123922318011e-06
4065.45,-1.1184739620766386e-06
4066.35,-1.1296969480270882e-06
4067.25,-1.1399681527756067e-06
4068.15,-1.154725133344193e-06
4069.05,-1.1638921909949148e-06
4069.95,-1.1703219799156452e-06
4070.85,-1.1724558820699387e-06
4071.75,-1.1731558461040897e-06
4072.65,-1.1656851406104166e-06
4073.55,-1.157939958900926e-06
4074.45,-1.1508131681422947e-06
4075.35,-1.1381892965467044e-06
4076.25,-1.124991420795442e-06
4077.15,-1.110119293040935e-06
4078.05,-1.0953333566206755e-06
4078.95,-1.1031700328072406e-06
4079.85,-1.1140365065096505e-06
4080.75,-1.132323988477099e-06
4081.65,-1.1513432357864349e-06
4082.55,-1.168275673966888e-06
4083.45,-1.1851527006804392e-06
4084.35,-1.186561578797774e-06
4085.25,-1.189313827277115e-06
4086.15,-1.1982299677828433e-06
4087.05,-1.2078053322065163e-06
4087.95,-1.2228970195733865e-06
4088.85,-1.2349137342998053e-06
4089.75,-1.2483594617750294e-06
4090.65,-1.2488943485564128e-06
4091.55,-1.2471391341225311e-06
4092.45,-1.24047143206935e-06
4093.36,-1.2257423592828016e-06
4094.26,-1.1981607488144384e-06
4095.16,-1.1792496469009783e-06
4096.06,-1.1611861051285827e-06
4096.96,-1.1222361195509508e-06
4097.86,-1.0855450650106043e-06
4098.76,-1.050527793724814e-06
4099.66,-9.985290443270377e-07
4100.56,-9.554415615354388e-07
4101.46,-9.221817372165198e-07
4102.36,-9.02788592220605e-07
4103.26,-8.988785609169518e-07
4104.16,-9.221046169532177e-07
4105.06,-9.64084841161776e-07
4105.96,-1.0068617287246224e-06
4106.86,-1.0554225364006336e-06
4107.76,-1.089734908775115e-06
4108.66,-1.1202251465282399e-06
4109.56,-1.1469119528413175e-06
4110.46,-1.161423415819844e-06
4111.36,-1.179111853725997e-06
4112.26,-1.1923300928658162e-06
4113.16,-1.205392870652444e-06
4114.06,-1.228407827654376e-06
4114.96,-1.2388493775105247e-06
4115.86,-1.253650858292852e-06
4116.76,-1.2596097742756208e-06
4117.66,-1.2598411504432284e-06
4118.56,-1.2562932080837958e-06
4119.46,-1.2501350325146269e-06
4120.36,-1.2510213780918213e-06
4121.26,-1.2438739370109315e-06
4122.16,-1.2507327287524294e-06
4123.06,-1.2526826792494002e-06
4123.96,-1.252750199103886e-06
4124.86,-1.2692532823072758e-06
4125.76,-1.2703711273941836e-06
4126.66,-1.2727100902357872e-06
4127.56,-1.2704125601160346e-06
4128.46,-1.266276168953589e-06
4129.36,-1.2599590758045575e-06
4130.26,-1.251240577652199e-06
4131.17,-1.2455516166092367e-06
4132.06,-1.2380135814630372e-06
4132.97,-1.2371194723446548e-06
4133.87,-1.23067655195727e-06
4134.77,-1.2384036851931102e-06
4135.67,-1.256954816202245e-06
4136.57,-1.2778225599269684e-06
4137.47,-1.2974959267623518e-06
4138.37,-1.3159404722320104e-06
4139.27,-1.3272472054228295e-06
4140.17,-1.3278979446812004e-06
4141.07,-1.3250173913673867e-06
4141.97,-1.3116801545196908e-06
4142.87,-1.2928217836545494e-06
4143.77,-1.2747021716519075e-06
4144.67,-1.2691416558338021e-06
4145.57,-1.2670870438434166e-06
4146.47,-1.2764636616290217e-06
4147.37,-1.2973363685652387e-06
4148.27,-1.3073211823599394e-06
4149.17,-1.3100113577811954e-06
4150.07,-1.3210899211427483e-06
4150.97,-1.3174713528385359e-06
4151.87,-1.3134998667665787e-06
4152.77,-1.3087665398256368e-06
4153.67,-1.3021698863626184e-06
4154.57,-1.2983572430409137e-06
4155.47,-1.2976200591241027e-06
4156.37,-1.2979829284198806e-06
4157.27,-1.307237218143276e-06
4158.17,-1.3220951798433323e-06
4159.07,-1.3230173123931937e-06
4159.97,-1.3429462945670412e-06
4160.87,-1.355727785541196e-06
4161.77,-1.3642557667407202e-06
4162.67,-1.3718162660536488e-06
4163.57,-1.3808828121069115e-06
4164.47,-1.3788113612393855e-06
4165.37,-1.3826198810724917e-06
4166.27,-1.3790154834613183e-06
4167.17,-1.3727892330454912e-06
4168.07,-1.3643162485600777e-06
4168.98,-1.3551377240770893e-06
4169.88,-1.3391476445848996e-06
4170.78,-1.327989039155279e-06
4171.68,-1.309375928339834e-06
4172.58,-1.2976187417254922e-06
4173.48,-1.2764333791250481e-06
4174.38,-1.265646469173109e-06
4175.28,-1.2669932973793721e-06
4176.18,-1.2730738295373911e-06
4177.08,-1.2861254449793198e-06
4177.98,-1.2932670966928234e-06
4178.88,-1.3112054547174398e-06
4179.78,-1.3240720360532584e-06
4180.68,-1.3290372947061579e-06
4181.58,-1.3404877666170296e-06
4182.48,-1.34593084909896e-06
4183.38,-1.3516432386257306e-06
4184.28,-1.3511625397944619e-06
4185.18,-1.3553613494516245e-06
4186.08,-1.3521477016704275e-06
4186.98,-1.3453433974725316e-06
4187.88,-1.3520891465163023e-06
4188.78,-1.3535269851660907e-06
4189.68,-1.3550646403366668e-06
4190.58,-1.3613137030022074e-06
4191.48,-1.3764457421454506e-06
4192.38,-1.3865275245028319e-06
4193.28,-1.3892150688635819e-06
4194.18,-1.396569322690677e-06
4195.08,-1.3913819853883207e-06
4195.98,-1.379636282058609e-06
4196.88,-1.3679320355252984e-06
4197.78,-1.3562693973514616e-06
4198.68,-1.3356401993452585e-06
4199.58,-1.3242504663146482e-06
4200.48,-1.3194496782788882e-06
4201.38,-1.3182126789005199e-06
4202.28,-1.323399191574255e-06
4203.18,-1.32869447376835e-06
4204.08,-1.3423311477377475e-06
4204.98,-1.353302459044048e-06
4205.88,-1.3705143350981185e-06
4206.79,-1.384245546685266e-06
4207.69,-1.4012872653501733e-06
4208.59,-1.4208305203883855e-06
4209.49,-1.4266533196951402e-06
4210.39,-1.4343250962814461e-06
4211.29,-1.4377615630568885e-06
4212.19,-1.4357777603832334e-06
4213.09,-1.435331124084919e-06
4213.99,-1.424310887907185e-06
4214.89,-1.4225395036029534e-06
4215.79,-1.4016630253016842e-06
4216.69,-1.4012097185812178e-06
4217.59,-1.398665335611897e-06
4218.49,-1.4095386280587849e-06
4219.39,-1.422188144293773e-06
4220.29,-1.437126113327614e-06
4221.19,-1.444684154786251e-06
4222.09,-1.4333605069059274e-06
4222.99,-1.4131998769756577e-06
4223.89,-1.3822417461251482e-06
4224.79,-1.343952164668833e-06
4225.69,-1.3026270608100514e-06
4226.59,-1.2753418432762174e-06
4227.49,-1.260844191088644e-06
4228.39,-1.275950137734209e-06
4229.29,-1.3037152315796155e-06
4230.19,-1.343459885138109e-06
4231.09,-1.3760661650657336e-06
4231.99,-1.403601029702486e-06
4232.89,-1.4217994679293497e-06
4233.79,-1.4312165704205522e-06
4234.69,-1.4178836773393565e-06
4235.59,-1.411604157870383e-06
4236.49,-1.4071002124373872e-06
4237.39,-1.40606494160843e-06
4238.29,-1.403164646828545e-06
4239.19,-1.4099555431149534e-06
4240.09,-1.4201445999485006e-06
4240.99,-1.4383068734574502e-06
4241.89,-1.443661604112952e-06
4242.79,-1.45675324248903e-06
4243.69,-1.465846390455364e-06
4244.59,-1.481275892962808e-06
4245.5,-1.4712406680539244e-06
4246.4,-1.4659339702025474e-06
4247.3,-1.4539984371912856e-06
4248.2,-1.4363553564719727e-06
4249.1,-1.4219210117131532e-06
4250.0,-1.4140934690020617e-06
4250.9,-1.4103751004438245e-06
4251.8,-1.4258990542783733e-06
4252.7,-1.4313975169929664e-06
4253.6,-1.4427278774001341e-06
4254.5,-1.4456190001175862e-06
4255.4,-1.4585304759204133e-06
4256.3,-1.467808259679853e-06
4257.2,-1.4617152267654307e-06
4258.1,-1.4626585496271765e-06
4259.0,-1.4546756111963623e-06
4259.9,-1.4625341308035642e-06
4260.8,-1.439753946058523e-06
4261.7,-1.4499113690299118e-06
4262.6,-1.463985083155871e-06
4263.5,-1.4867389154627395e-06
4264.4,-1.502082784784615e-06
4265.3,-1.5188067164375884e-06
4266.2,-1.534140380014037e-06
4267.1,-1.5358310478950168e-06
4268.0,-1.5236235178387428e-06
4268.9,-1.5012932334936123e-06
4269.8,-1.4753809338253564e-06
4270.7,-1.4478420735163142e-06
4271.6,-1.4154510295747002e-06
4272.5,-1.3953162424758685e-06
4273.4,-1.3861840450240392e-06
4274.3,-1.387800695608213e-06
4275.2,-1.4057322102146599e-06
4276.1,-1.42495772994276e-06
