wave,flux
3700.85,-1.1169457971834924e-06
3701.75,-1.1101074902569248e-06
3702.65,-1.07597946781838e-06
3703.55,-1.0305060121698023e-06
3704.45,-9.770286675090404e-07
3705.35,-9.356644600853197e-07
3706.25,-9.019367619476886e-07
3707.15,-8.886328874691512e-07
3708.05,-8.910770209970042e-07
3708.96,-9.118564386003915e-07
3709.86,-9.351530706126305e-07
3710.76,-9.748563545064357e-07
3711.66,-1.0164868939982293e-06
3712.56,-1.0707849051682065e-06
3713.46,-1.1178228758639016e-06
3714.36,-1.1614911771676815e-06
3715.26,-1.191359727844797e-06
3716.16,-1.1906750828379296e-06
3717.06,-1.176946906873902e-06
3717.96,-1.1334199910542165e-06
3718.86,-1.0637704344229428e-06
3719.76,-9.926402787449964e-07
3720.66,-9.235435922397102e-07
3721.56,-8.81410091902155e-07
3722.46,-8.71866235471721e-07
3723.36,-8.987379531587583e-07
3724.26,-9.562180931205854e-07
3725.16,-1.0135854849553856e-06
3726.06,-1.0729713842939275e-06
3726.96,-1.1062391890685943e-06
3727.86,-1.1256122792744442e-06
3728.76,-1.1287371239728518e-06
3729.66,-1.1280754244189641e-06
3730.56,-1.1084539405630646e-06
3731.46,-1.0680660853726006e-06
3732.36,-1.0162226148679777e-06
3733.26,-9.496005896444806e-07
3734.16,-8.776141007380522e-07
3735.06,-8.289437141268446e-07
3735.96,-8.014982585529624e-07
3736.86,-8.128449329324937e-07
3737.76,-8.607873140602011e-07
3738.66,-9.29742322697924e-07
3739.56,-1.0086665910065256e-06
3740.46,-1.0802637943978304e-06
3741.36,-1.12604209003692e-06
3742.26,-1.149641270687774e-06
3743.16,-1.1389996253734492e-06
3744.06,-1.1044746507924846e-06
3744.96,-1.0583503775032741e-06
3745.86,-1.0052475015915377e-06
3746.76,-9.531139056026385e-07
3747.67,-9.088564264123662e-07
3748.57,-8.763451441921736e-07
3749.47,-8.616635868111564e-07
3750.37,-8.768394023288096e-07
3751.27,-9.290249092440515e-07
3752.17,-1.0079568020480877e-06
3753.07,-1.1075505444285751e-06
3753.97,-1.1921598541818383e-06
3754.87,-1.262402827489195e-06
3755.77,-1.2929892006564433e-06
3756.67,-1.3037548861364714e-06
3757.57,-1.2705400559608402e-06
3758.47,-1.230053174577531e-06
3759.37,-1.1919790252237014e-06
3760.27,-1.1779721492940533e-06
3761.17,-1.188997949311374e-06
3762.07,-1.2117189616076166e-06
3762.97,-1.2318807794886474e-06
3763.87,-1.2613600172218723e-06
3764.77,-1.2710780193756686e-06
3765.67,-1.2725433208361646e-06
3766.57,-1.2750727382043008e-06
3767.47,-1.2620804488673894e-06
3768.37,-1.2535800592046573e-06
3769.27,-1.24756045690609e-06
3770.17,-1.24825135536782e-06
3771.07,-1.2610098781715508e-06
3771.97,-1.2866275088867977e-06
3772.87,-1.3287666470105736e-06
3773.77,-1.377767742152097e-06
3774.67,-1.427732383001911e-06
3775.57,-1.4590570613029262e-06
3776.47,-1.4868559850597872e-06
3777.37,-1.524413473230391e-06
3778.27,-1.5555478173242344e-06
3779.17,-1.5794987516433754e-06
3780.07,-1.624172571773151e-06
3780.97,-1.6504585546476724e-06
3781.87,-1.6803353030639176e-06
3782.77,-1.6944848601212392e-06
3783.67,-1.700635713456267e-06
3784.57,-1.671170247228537e-06
3785.47,-1.6466603326847033e-06
3786.38,-1.5973303229915618e-06
3787.28,-1.5524067526528198e-06
3788.18,-1.5027614905409897e-06
3789.08,-1.4752611121215798e-06
3789.98,-1.456656996970035e-06
3790.88,-1.4513095770501444e-06
3791.78,-1.454094044344688e-06
3792.68,-1.4382857793390106e-06
3793.58,-1.4116285114455352e-06
3794.48,-1.3786793317262114e-06
3795.38,-1.3405505881342454e-06
3796.28,-1.2926282842280895e-06
3797.18,-1.2496449042127257e-06
3798.08,-1.2256470513498907e-06
3798.98,-1.2329125768874662e-06
3799.88,-1.2685932514526078e-06
3800.78,-1.3396181262544446e-06
3801.68,-1.4334238343221003e-06
3802.58,-1.5366505992882992e-06
3803.48,-1.620341988301574e-06
3804.38,-1.6825824471383454e-06
3805.28,-1.7218727212566745e-06
3806.18,-1.7316515527836589e-06
3807.08,-1.7421345068935599e-06
3807.98,-1.7452740676292194e-06
3808.88,-1.756606614100033e-06
3809.78,-1.7740947315102051e-06
3810.68,-1.7826577561772346e-06
3811.58,-1.7776426215974279e-06
3812.48,-1.7526641550690506e-06
3813.38,-1.7040701257890043e-06
3814.28,-1.6415624334756874e-06
3815.18,-1.5947121726514264e-06
3816.08,-1.5605995430400753e-06
3816.98,-1.543083036920416e-06
3817.88,-1.5395744230468023e-06
3818.78,-1.5335219997062587e-06
3819.68,-1.52066602361358e-06
3820.58,-1.5119746341833638e-06
3821.48,-1.4860574480339655e-06
3822.38,-1.4745362387149057e-06
3823.28,-1.4630534178996093e-06
3824.18,-1.4402216824752182e-06
3825.09,-1.4027245476379991e-06
3825.99,-1.3661215334149775e-06
3826.89,-1.333515793526781e-06
3827.79,-1.3114089156208685e-06
3828.69,-1.2981246132122835e-06
3829.59,-1.2951593138654655e-06
3830.49,-1.285526280369686e-06
3831.39,-1.2552518539714253e-06
3832.29,-1.2219290469555305e-06
3833.19,-1.1743704331772308e-06
3834.09,-1.1374798135933435e-06
3834.99,-1.1123622995202284e-06
3835.89,-1.1024403984987686e-06
3836.79,-1.112555802334449e-06
3837.69,-1.1303937374843847e-06
3838.59,-1.1645920811461638e-06
3839.49,-1.1986035044819461e-06
3840.39,-1.2579445349448668e-06
3841.29,-1.3496771227583234e-06
3842.19,-1.4445237232811259e-06
3843.09,-1.5594331868263225e-06
3843.99,-1.6434127212177066e-06
3844.89,-1.7409194029900058e-06
3845.79,-1.8038432131177434e-06
3846.69,-1.844876148310636e-06
3847.59,-1.8814985577245618e-06
3848.49,-1.8935559544844049e-06
3849.39,-1.8941964148857586e-06
3850.29,-1.8952060543961237e-06
3851.19,-1.9064807369859507e-06
3852.09,-1.910811652635693e-06
3852.99,-1.9201293714784143e-06
3853.89,-1.9253933727947256e-06
3854.79,-1.9133500502800355e-06
3855.69,-1.8923409544179718e-06
3856.59,-1.8477007341292117e-06
3857.49,-1.8000646768050727e-06
3858.39,-1.7596651018613738e-06
3859.29,-1.725525293248787e-06
3860.19,-1.716248561471842e-06
3861.09,-1.740308719087245e-06
3861.99,-1.8061471635016034e-06
3862.9,-1.8884998049096896e-06
3863.8,-1.951441177114664e-06
3864.7,-2.0107638945608624e-06
3865.6,-2.037052620063971e-06
3866.5,-2.05188104312847e-06
3867.4,-2.057152890336868e-06
3868.3,-2.053051218986325e-06
3869.2,-2.022003571787643e-06
3870.1,-1.988462637438727e-06
3871.0,-1.9473997546183115e-06
3871.9,-1.901327665509748e-06
3872.8,-1.8820581785775177e-06
3873.7,-1.8629330086634084e-06
3874.6,-1.8909257750829425e-06
3875.5,-1.91591177982293e-06
3876.4,-1.93455737056494e-06
3877.3,-1.940449646368818e-06
3878.2,-1.9372160377564867e-06
3879.1,-1.921856087108118e-06
3880.0,-1.9137785260453616e-06
3880.9,-1.9064771806282385e-06
3881.8,-1.919732918745965e-06
3882.7,-1.9261610165476482e-06
3883.6,-1.9093351699389005e-06
3884.5,-1.8873002888619675e-06
3885.4,-1.839147813076612e-06
3886.3,-1.774181296992407e-06
3887.2,-1.7150943029351832e-06
3888.1,-1.6772631349450708e-06
3889.0,-1.6605926641037714e-06
3889.9,-1.6736289320518264e-06
3890.8,-1.7351333688485731e-06
3891.7,-1.82612206877188e-06
3892.6,-1.9089215310233827e-06
3893.5,-1.985205507468608e-06
3894.4,-2.0462861678330032e-06
3895.3,-2.099651505438151e-06
3896.2,-2.135080430535158e-06
3897.1,-2.174247063014345e-06
3898.0,-2.1943938622637556e-06
3898.9,-2.2202854881277004e-06
3899.8,-2.2375318762883886e-06
3900.7,-2.253520885758462e-06
3901.6,-2.261351004381201e-06
3902.51,-2.262075382369881e-06
3903.41,-2.244326840414226e-06
3904.31,-2.2444395179254633e-06
3905.21,-2.2283146278378656e-06
3906.11,-2.240509033034242e-06
3907.01,-2.2545898291924834e-06
3907.91,-2.3140180990918924e-06
3908.81,-2.383607542351378e-06
3909.71,-2.4649878848092644e-06
3910.61,-2.5236870505442728e-06
3911.51,-2.5864378648787917e-06
3912.41,-2.6090156747381615e-06
3913.31,-2.6285945204437052e-06
3914.21,-2.6145235931958993e-06
3915.11,-2.617115139120116e-06
3916.01,-2.582605399144024e-06
3916.91,-2.551965124604941e-06
3917.81,-2.5083090631953005e-06
3918.71,-2.454374709356355e-06
3919.61,-2.414253431241972e-06
3920.51,-2.3623787623339574e-06
3921.41,-2.3111302312738583e-06
3922.31,-2.2870071083581237e-06
3923.21,-2.2628800318665677e-06
3924.11,-2.2534494994092075e-06
3925.01,-2.2095934202507826e-06
3925.91,-2.1483874921229303e-06
3926.81,-2.044895520527752e-06
3927.71,-1.9119770471583574e-06
3928.61,-1.7523176357875546e-06
3929.51,-1.5677321928372941e-06
3930.41,-1.371346119857227e-06
3931.31,-1.187883694822674e-06
3932.21,-1.0301191847776815e-06
3933.11,-9.013734505919696e-07
3934.01,-8.336877559185896e-07
3934.91,-8.199013160908324e-07
3935.81,-8.790481520694916e-07
3936.71,-9.98935795159306e-07
3937.61,-1.165358843387012e-06
3938.51,-1.3685314121682332e-06
3939.42,-1.5732829615474666e-06
3940.32,-1.7578145005610943e-06
3941.22,-1.924977698047991e-06
3942.12,-2.0517706681865614e-06
3943.02,-2.148840715637844e-06
3943.92,-2.241998692358395e-06
3944.82,-2.312663311632482e-06
3945.72,-2.404777926955788e-06
3946.62,-2.4946507140281263e-06
3947.52,-2.5876807501158674e-06
3948.42,-2.6621403823179872e-06
3949.32,-2.7132802626860684e-06
3950.22,-2.783954800353696e-06
3951.12,-2.8261810059230556e-06
3952.02,-2.866158453545741e-06
3952.92,-2.895848044798896e-06
3953.82,-2.910328339030816e-06
3954.72,-2.925232981357983e-06
3955.62,-2.930495788155376e-06
3956.52,-2.917910196167346e-06
3957.42,-2.906308370698912e-06
3958.32,-2.8791840621141304e-06
3959.22,-2.8312959595322143e-06
3960.12,-2.7480251055411267e-06
3961.02,-2.641683487250201e-06
3961.92,-2.5100374130481337e-06
3962.82,-2.350273654406607e-06
3963.72,-2.160469776323831e-06
3964.62,-1.969468288290155e-06
3965.52,-1.77114197900369e-06
3966.42,-1.5677601061111828e-06
3967.32,-1.3734889903502601e-06
3968.22,-1.2183324393531317e-06
3969.12,-1.1154315940196537e-06
3970.02,-1.0986661902347161e-06
3970.92,-1.1622283969616625e-06
3971.82,-1.3189616794725446e-06
3972.72,-1.521711220814798e-06
3973.62,-1.7628107576510188e-06
3974.52,-2.0128096396942553e-06
3975.42,-2.2497230353482462e-06
3976.32,-2.4736152801109608e-06
3977.22,-2.680484096595704e-06
3978.13,-2.8784257397267544e-06
3979.03,-3.031873576841082e-06
3979.93,-3.170222260152621e-06
3980.83,-3.2713563554445118e-06
3981.73,-3.3504680750241983e-06
3982.63,-3.3860298860489916e-06
3983.53,-3.4227764500214507e-06
3984.43,-3.4678687285611038e-06
3985.33,-3.5068389654205174e-06
3986.23,-3.550821593950777e-06
3987.13,-3.6078830861613886e-06
3988.03,-3.666278680208753e-06
3988.93,-3.7056411681823713e-06
3989.83,-3.757566550338205e-06
3990.73,-3.7980110058200307e-06
3991.63,-3.838270771633163e-06
3992.53,-3.895710081866425e-06
3993.43,-3.898139301301101e-06
3994.33,-3.8995227156951735e-06
3995.23,-3.890775273063702e-06
3996.13,-3.8689045168897685e-06
3997.03,-3.8288051769438495e-06
3997.93,-3.83568390341527e-06
3998.83,-3.859282972531575e-06
3999.73,-3.9202946165483415e-06
4000.63,-3.9749327892593675e-06
4001.53,-4.032413214546702e-06
4002.43,-4.07097465169447e-06
4003.33,-4.104016404140036e-06
4004.23,-4.08571928286176e-06
4005.13,-4.031823591525136e-06
4006.03,-3.9910467632925236e-06
4006.93,-3.990806655131909e-06
4007.83,-4.031921290192027e-06
4008.73,-4.090130782906685e-06
4009.63,-4.145203960554034e-06
4010.53,-4.227360907063516e-06
4011.43,-4.300397768710683e-06
4012.33,-4.349113016908755e-06
4013.23,-4.38008402896701e-06
4014.13,-4.408349034948078e-06
4015.03,-4.429016848406518e-06
4015.93,-4.4211628249607005e-06
4016.84,-4.434962505382872e-06
4017.74,-4.452226432343786e-06
4018.64,-4.4789681793926825e-06
4019.54,-4.512582019713279e-06
4020.44,-4.539384276002823e-06
4021.34,-4.562926673105074e-06
4022.24,-4.560947634926803e-06
4023.14,-4.5766656366972886e-06
4024.04,-4.591987679290566e-06
4024.94,-4.625231014013976e-06
4025.84,-4.66025516432624e-06
4026.74,-4.7115970813221036e-06
4027.64,-4.724612552458676e-06
4028.54,-4.731174989573374e-06
4029.44,-4.688170752442298e-06
4030.34,-4.614032621023074e-06
4031.24,-4.517127621345364e-06
4032.14,-4.454803166251663e-06
4033.04,-4.393688295006577e-06
4033.94,-4.406629357048419e-06
4034.84,-4.456385578376286e-06
4035.74,-4.566873497043069e-06
4036.64,-4.7133697474692945e-06
4037.54,-4.849750671552364e-06
4038.44,-4.963659329327606e-06
4039.34,-5.040410325116548e-06
4040.24,-5.0755297227363655e-06
4041.14,-5.056238305607944e-06
4042.04,-5.008540752982532e-06
4042.94,-4.9192197367972535e-06
4043.84,-4.788118187740874e-06
4044.74,-4.674804657292789e-06
4045.64,-4.5952363631538664e-06
4046.54,-4.554938888991578e-06
4047.44,-4.595989552811044e-06
4048.34,-4.688555226765198e-06
4049.24,-4.827140714999909e-06
4050.14,-4.974601570689905e-06
4051.04,-5.09180058249592e-06
4051.94,-5.171377004990223e-06
4052.84,-5.182343070859276e-06
4053.74,-5.185717701457197e-06
4054.65,-5.151049526262572e-06
4055.55,-5.0947121899513355e-06
4056.45,-5.077697402461855e-06
4057.35,-5.081615542702443e-06
4058.25,-5.114670525255721e-06
4059.15,-5.104145588344805e-06
4060.05,-5.137137496850323e-06
4060.95,-5.123397209681084e-06
4061.85,-5.113964504470297e-06
4062.75,-5.060887910785755e-06
4063.65,-4.99242037747794e-06
4064.55,-4.955136837853634e-06
4065.45,-4.939016146781427e-06
4066.35,-4.986780010030707e-06
4067.25,-5.055603949415686e-06
4068.15,-5.164949709481948e-06
4069.05,-5.255914021065139e-06
4069.95,-5.311892067508259e-06
4070.85,-5.344421246375068e-06
4071.75,-5.340533968273654e-06
4072.65,-5.354514607064475e-06
4073.55,-5.31753352263598e-06
4074.45,-5.324317143131767e-06
4075.35,-5.263558383419377e-06
4076.25,-5.215572545232898e-06
4077.15,-5.1619718381451836e-06
4078.05,-5.13846891425046e-06
4078.95,-5.164278232470407e-06
4079.85,-5.240724830439842e-06
4080.75,-5.375028614589323e-06
4081.65,-5.4874134078039226e-06
4082.55,-5.617682423851561e-06
4083.45,-5.69446470206592e-06
4084.35,-5.747585199226517e-06
4085.25,-5.8004339847292505e-06
4086.15,-5.8664300205202895e-06
4087.05,-5.922779094962278e-06
4087.95,-6.04758031611519e-06
4088.85,-6.174882272268869e-06
4089.75,-6.264770235764133e-06
4090.65,-6.3215147623124615e-06
4091.55,-6.3168181201371345e-06
4092.45,-6.302970297598789e-06
4093.36,-6.2460936826625e-06
4094.26,-6.17707207969438e-06
4095.16,-6.1243602478565795e-06
4096.06,-6.003117082299114e-06
4096.96,-5.881902074930997e-06
4097.86,-5.728219813994229e-06
4098.76,-5.539356820541836e-06
4099.66,-5.3659911427045885e-06
4100.56,-5.185697224948081e-06
4101.46,-5.020467622536103e-06
4102.36,-4.9423054391234746e-06
4103.26,-4.9679025707726805e-06
4104.16,-5.094332007741944e-06
4105.06,-5.262281706337403e-06
4105.96,-5.5173249258259446e-06
4106.86,-5.747512261469757e-06
4107.76,-5.938360816364173e-06
4108.66,-6.090090256526081e-06
4109.56,-6.172413662093523e-06
4110.46,-6.222428953390917e-06
4111.36,-6.315033208908067e-06
4112.26,-6.395618671757075e-06
4113.16,-6.461853257724259e-06
4114.06,-6.548099137352081e-06
4114.96,-6.670120978554829e-06
4115.86,-6.715768078551135e-06
4116.76,-6.746627109443612e-06
4117.66,-6.748750713184403e-06
4118.56,-6.724102082635501e-06
4119.46,-6.704390812082385e-06
4120.36,-6.688371146203233e-06
4121.26,-6.6884387746881775e-06
4122.16,-6.717808692752861e-06
4123.06,-6.756151178681778e-06
4123.96,-6.795343750308752e-06
4124.86,-6.843304615631938e-06
4125.76,-6.887554194876615e-06
4126.66,-6.930044679969796e-06
4127.56,-6.9035000985323824e-06
4128.46,-6.907109757234864e-06
4129.36,-6.856037154962823e-06
4130.26,-6.786389020005446e-06
4131.17,-6.761678648006537e-06
4132.06,-6.7013469702135646e-06
4132.97,-6.685556789463565e-06
4133.87,-6.702751856364976e-06
4134.77,-6.7220502388507824e-06
4135.67,-6.8419854946337644e-06
4136.57,-6.995043209820481e-06
4137.47,-7.123153792273709e-06
4138.37,-7.30511917991098e-06
4139.27,-7.414836468539101e-06
4140.17,-7.429569215208406e-06
4141.07,-7.3486954854565525e-06
4141.97,-7.293559954051292e-06
4142.87,-7.159325413971735e-06
4143.77,-7.051707771597458e-06
4144.67,-7.004362790256132e-06
4145.57,-7.035725908124319e-06
4146.47,-7.129085327472249e-06
4147.37,-7.239155392487509e-06
4148.27,-7.3837432689621845e-06
4149.17,-7.4660363521740576e-06
4150.07,-7.482129835437053e-06
4150.97,-7.505168437544266e-06
4151.87,-7.528289664962389e-06
4152.77,-7.497667079585482e-06
4153.67,-7.4998271670288564e-06
4154.57,-7.468376673439307e-06
4155.47,-7.496936128207002e-06
4156.37,-7.540835993437684e-06
4157.27,-7.5860789718049e-06
4158.17,-7.668559297421312e-06
4159.07,-7.805536702258462e-06
4159.97,-7.908378420892322e-06
4160.87,-8.009960067486222e-06
4161.77,-8.084877312420049e-06
4162.67,-8.199012918233317e-06
4163.57,-8.245937453119512e-06
4164.47,-8.28276474270254e-06
4165.37,-8.25406751000118e-06
4166.27,-8.230099558260237e-06
4167.17,-8.223676396084165e-06
4168.07,-8.175202782485403e-06
4168.98,-8.197514945915622e-06
4169.88,-8.106230476664565e-06
4170.78,-7.975401258691747e-06
4171.68,-7.89081326431789e-06
4172.58,-7.78739097060863e-06
4173.48,-7.7247836938785e-06
4174.38,-7.673593058435156e-06
4175.28,-7.683422809660014e-06
4176.18,-7.75891376652995e-06
4177.08,-7.881461312472605e-06
4177.98,-7.954376509057332e-06
4178.88,-8.076271373606334e-06
4179.78,-8.185125905580445e-06
4180.68,-8.278763363226747e-06
4181.58,-8.358248401552122e-06
4182.48,-8.383633585218108e-06
4183.38,-8.426400411175725e-06
4184.28,-8.434674203005205e-06
4185.18,-8.479815618141654e-06
4186.08,-8.496478213834778e-06
4186.98,-8.490207492686475e-06
4187.88,-8.492183033773253e-06
4188.78,-8.510058731213918e-06
4189.68,-8.532189174432476e-06
4190.58,-8.636512768665146e-06
4191.48,-8.769514472461247e-06
4192.38,-8.836852722161873e-06
4193.28,-8.92638786930919e-06
4194.18,-8.980825825223567e-06
4195.08,-8.97911683983077e-06
4195.98,-8.847609037826671e-06
4196.88,-8.80922402697233e-06
4197.78,-8.724329693164157e-06
4198.68,-8.617339516448446e-06
4199.58,-8.555100088615896e-06
4200.48,-8.49629163843546e-06
4201.38,-8.515123802377257e-06
4202.28,-8.537099719807058e-06
4203.18,-8.647172249167861e-06
4204.08,-8.744544018043155e-06
4204.98,-8.910567054722274e-06
4205.88,-9.056549128340738e-06
4206.79,-9.206982327152135e-06
4207.69,-9.373861810819628e-06
4208.59,-9.492776903068269e-06
4209.49,-9.602861683138903e-06
4210.39,-9.716824138040313e-06
4211.29,-9.75668170183192e-06
4212.19,-9.787966284729963e-06
4213.09,-9.705667217874468e-06
4213.99,-9.657931571779451e-06
4214.89,-9.655370039913823e-06
4215.79,-9.566268141847552e-06
4216.69,-9.495181617137046e-06
4217.59,-9.578264007957962e-06
4218.49,-9.704324036484828e-06
4219.39,-9.76200232211558e-06
4220.29,-9.950741126065995e-06
4221.19,-1.0006632659298263e-05
4222.09,-9.992421133653553e-06
4222.99,-9.84824696058858e-06
4223.89,-9.552467124833463e-06
4224.79,-9.197845583362426e-06
4225.69,-8.862935534444214e-06
4226.59,-8.641550489026417e-06
4227.49,-8.550570781293796e-06
4228.39,-8.637548381212209e-06
4229.29,-8.910798023456947e-06
4230.19,-9.272929126483884e-06
4231.09,-9.643506351584877e-06
4231.99,-9.91255219388166e-06
4232.89,-1.0105452822511994e-05
4233.79,-1.016219717681077e-05
4234.69,-1.0146249578559592e-05
4235.59,-1.0144220433244542e-05
4236.49,-1.0107083558030608e-05
4237.39,-1.0117395087976747e-05
4238.29,-1.0149115153906061e-05
4239.19,-1.0222460111186625e-05
4240.09,-1.0348678112152447e-05
4240.99,-1.0522143488301282e-05
4241.89,-1.064701377084574e-05
4242.79,-1.0834010203054488e-05
4243.69,-1.096797416127996e-05
4244.59,-1.1020574868235225e-05
4245.5,-1.1055482018121064e-05
4246.4,-1.1000940390260758e-05
4247.3,-1.0916239746233811e-05
4248.2,-1.079468081861245e-05
4249.1,-1.0674254419442412e-05
4250.0,-1.0594573100808387e-05
4250.9,-1.0560379255569594e-05
4251.8,-1.0670259557770884e-05
4252.7,-1.0763507622559091e-05
4253.6,-1.0895311665392e-05
4254.5,-1.0905362377942677e-05
4255.4,-1.101706938640355e-05
4256.3,-1.1119036679705808e-05
4257.2,-1.116874460967986e-05
4258.1,-1.1170043137526654e-05
4259.0,-1.1152361995491428e-05
4259.9,-1.117228863813626e-05
4260.8,-1.1124056641851129e-05
4261.7,-1.1199297561849835e-05
4262.6,-1.1333501864813296e-05
4263.5,-1.1600190481098748e-05
4264.4,-1.1821631512899261e-05
4265.3,-1.2032035160742445e-05
4266.2,-1.2149598332492786e-05
4267.1,-1.2180749903694416e-05
4268.0,-1.2123964384730602e-05
4268.9,-1.1951138004804017e-05
4269.8,-1.1674330239665827e-05
4270.7,-1.1417464240836529e-05
4271.6,-1.1135816854897934e-05
4272.5,-1.0973263477895415e-05
4273.4,-1.0834678550160448e-05
4274.3,-1.0929272619035089e-05
4275.2,-1.1117441195090912e-05
