wave,flux
3700.85,-2.642959182727526e-07
3701.75,-2.595923169073042e-07
3702.65,-2.496546807402381e-07
3703.55,-2.3581345338078369e-07
3704.45,-2.1800601728078788e-07
3705.35,-2.0162906204700506e-07
3706.25,-1.9013323120345553e-07
3707.15,-1.8232437393836916e-07
3708.05,-1.8166857633699736e-07
3708.96,-1.8644807566834956e-07
3709.86,-1.9614001267595484e-07
3710.76,-2.093452410815106e-07
3711.66,-2.2678946094027633e-07
3712.56,-2.4437807643816107e-07
3713.46,-2.585791810365028e-07
3714.36,-2.6955762676721026e-07
3715.26,-2.718139368334918e-07
3716.16,-2.655242633423732e-07
3717.06,-2.5478125755006994e-07
3717.96,-2.3733200055626345e-07
3718.86,-2.1497826333256357e-07
3719.76,-1.9322042467076175e-07
3720.66,-1.7560121847044052e-07
3721.56,-1.6499391681066007e-07
3722.46,-1.6477695262427155e-07
3723.36,-1.737287358600983e-07
3724.26,-1.8839042684058466e-07
3725.16,-2.0306124331901156e-07
3726.06,-2.151303405341409e-07
3726.96,-2.2129011399866352e-07
3727.86,-2.2359074835579033e-07
3728.76,-2.2203782443963913e-07
3729.66,-2.2021269026406006e-07
3730.56,-2.1393262728855637e-07
3731.46,-2.0478601709742928e-07
3732.36,-1.915482501667608e-07
3733.26,-1.754917111568302e-07
3734.16,-1.5831577545362008e-07
3735.06,-1.4566025422989434e-07
3735.96,-1.391858737552523e-07
3736.86,-1.4021414919430885e-07
3737.76,-1.4914503933394394e-07
3738.66,-1.654381014452633e-07
3739.56,-1.837117797535235e-07
3740.46,-2.00004980702618e-07
3741.36,-2.102867480815944e-07
3742.26,-2.130962528986716e-07
3743.16,-2.0688410835730966e-07
3744.06,-1.9624509331073897e-07
3744.96,-1.830717358908119e-07
3745.86,-1.6927072260775933e-07
3746.76,-1.5815104362795216e-07
3747.67,-1.4977602162140092e-07
3748.57,-1.45418773789561e-07
3749.47,-1.467742784671826e-07
3750.37,-1.5397239159674796e-07
3751.27,-1.694252285011806e-07
3752.17,-1.8911453847344647e-07
3753.07,-2.1056049756664686e-07
3753.97,-2.2946406762460252e-07
3754.87,-2.434771575881569e-07
3755.77,-2.486342966392363e-07
3756.67,-2.4382712069948866e-07
3757.57,-2.3299847493032972e-07
3758.47,-2.2018174406259023e-07
3759.37,-2.0987486752307997e-07
3760.27,-2.0546616680092578e-07
3761.17,-2.0529120096224716e-07
3762.07,-2.0877435225462853e-07
3762.97,-2.1278056127868813e-07
3763.87,-2.1493695037235478e-07
3764.77,-2.160960275440707e-07
3765.67,-2.1545910009835867e-07
3766.57,-2.1760845956885073e-07
3767.47,-2.191428977872779e-07
3768.37,-2.2229072344266727e-07
3769.27,-2.2849158635097992e-07
3770.17,-2.3561653477862727e-07
3771.07,-2.4422615169967237e-07
3771.97,-2.545889870798872e-07
3772.87,-2.630299081496475e-07
3773.77,-2.707177104241824e-07
3774.67,-2.7600676685552267e-07
3775.57,-2.8019215622071477e-07
3776.47,-2.823298407761702e-07
3777.37,-2.844721573591065e-07
3778.27,-2.8873803165381487e-07
3779.17,-2.926160452359251e-07
3780.07,-2.980197026033783e-07
3780.97,-3.046104021998296e-07
3781.87,-3.0892089209100257e-07
3782.77,-3.117474706394795e-07
3783.67,-3.1020948084941866e-07
3784.57,-3.047236203089755e-07
3785.47,-2.938927849562715e-07
3786.38,-2.7894857563083087e-07
3787.28,-2.6548527953264095e-07
3788.18,-2.508568323568405e-07
3789.08,-2.408879411499667e-07
3789.98,-2.357020735417608e-07
3790.88,-2.3417818121627723e-07
3791.78,-2.3422243704858082e-07
3792.68,-2.3446144659646475e-07
3793.58,-2.32726209473582e-07
3794.48,-2.2780277365505377e-07
3795.38,-2.2082142449669932e-07
3796.28,-2.1428248605552574e-07
3797.18,-2.0817288913065522e-07
3798.08,-2.061234525436376e-07
3798.98,-2.0722453897932117e-07
3799.88,-2.124941656621739e-07
3800.78,-2.2348708659250366e-07
3801.68,-2.3959049090220155e-07
3802.58,-2.5668560343748774e-07
3803.48,-2.7130997148649704e-07
3804.38,-2.8121354480453615e-07
3805.28,-2.856820973872914e-07
3806.18,-2.8555208863886334e-07
3807.08,-2.840286810077552e-07
3807.98,-2.827358075501184e-07
3808.88,-2.8317129633189716e-07
3809.78,-2.8586158114036343e-07
3810.68,-2.8827796260843584e-07
3811.58,-2.850990193159198e-07
3812.48,-2.783463533919614e-07
3813.38,-2.6644798090718275e-07
3814.28,-2.5154849827904564e-07
3815.18,-2.3599117696413458e-07
3816.08,-2.248764186545014e-07
3816.98,-2.1899118667892146e-07
3817.88,-2.1401153788465676e-07
3818.78,-2.1101770761033032e-07
3819.68,-2.064323419546888e-07
3820.58,-2.015706910174712e-07
3821.48,-1.9812549326844268e-07
3822.38,-1.942791070730104e-07
3823.28,-1.9191842747184084e-07
3824.18,-1.8685262586413902e-07
3825.09,-1.8087628539296732e-07
3825.99,-1.740634399085888e-07
3826.89,-1.6787599059897033e-07
3827.79,-1.6368892574602585e-07
3828.69,-1.639471982891003e-07
3829.59,-1.646971022326026e-07
3830.49,-1.659189790265466e-07
3831.39,-1.6469093773408432e-07
3832.29,-1.629669144546695e-07
3833.19,-1.5880179960435783e-07
3834.09,-1.5702659770905677e-07
3834.99,-1.5694919750142634e-07
3835.89,-1.5774196227628757e-07
3836.79,-1.5923240968238545e-07
3837.69,-1.6078475784758065e-07
3838.59,-1.6119534773735846e-07
3839.49,-1.6333120547222965e-07
3840.39,-1.6924049439286097e-07
3841.29,-1.790696791713239e-07
3842.19,-1.9296898805065275e-07
3843.09,-2.096796649794751e-07
3843.99,-2.2667802664677247e-07
3844.89,-2.395238143198326e-07
3845.79,-2.492804627320687e-07
3846.69,-2.556750055731943e-07
3847.59,-2.5816149214996336e-07
3848.49,-2.5822392503867525e-07
3849.39,-2.5594454029774363e-07
3850.29,-2.543083094525201e-07
3851.19,-2.532673007063531e-07
3852.09,-2.529084432193492e-07
3852.99,-2.509695051128187e-07
3853.89,-2.4992320328536283e-07
3854.79,-2.4592950441632647e-07
3855.69,-2.394641003623496e-07
3856.59,-2.3087853544430477e-07
3857.49,-2.2224717986773026e-07
3858.39,-2.1302507113883207e-07
3859.29,-2.085538634920244e-07
3860.19,-2.0622776423589053e-07
3861.09,-2.1129942722420444e-07
3861.99,-2.2183774129792996e-07
3862.9,-2.3511530997827732e-07
3863.8,-2.4827748461062465e-07
3864.7,-2.5922834606737915e-07
3865.6,-2.635472639623183e-07
3866.5,-2.6323402225594126e-07
3867.4,-2.595863363024346e-07
3868.3,-2.541102477632703e-07
3869.2,-2.4784665673694776e-07
3870.1,-2.3961552431949176e-07
3871.0,-2.3210535122348814e-07
3871.9,-2.2748537153613615e-07
3872.8,-2.2861940700142364e-07
3873.7,-2.33953993624828e-07
3874.6,-2.421968369826217e-07
3875.5,-2.4998596254592305e-07
3876.4,-2.5478671935737795e-07
3877.3,-2.552376627171594e-07
3878.2,-2.524384125313301e-07
3879.1,-2.4609750554741983e-07
3880.0,-2.429999783943722e-07
3880.9,-2.4043315667382154e-07
3881.8,-2.40450243234362e-07
3882.7,-2.4199432357839165e-07
3883.6,-2.430932370322966e-07
3884.5,-2.445747394847915e-07
3885.4,-2.42633149143232e-07
3886.3,-2.3963192793471784e-07
3887.2,-2.365805449960392e-07
3888.1,-2.3554723148906637e-07
3889.0,-2.390881854821625e-07
3889.9,-2.4882421704920883e-07
3890.8,-2.635742351266439e-07
3891.7,-2.7948088264806304e-07
3892.6,-2.9460004912456924e-07
3893.5,-3.057277949413707e-07
3894.4,-3.136867535321314e-07
3895.3,-3.169393717432755e-07
3896.2,-3.18421674638558e-07
3897.1,-3.2065373869080445e-07
3898.0,-3.215125939997338e-07
3898.9,-3.2276068112902005e-07
3899.8,-3.2438600835176027e-07
3900.7,-3.237543400692329e-07
3901.6,-3.22426753523197e-07
3902.51,-3.198343265284448e-07
3903.41,-3.164345387663604e-07
3904.31,-3.1155580638945484e-07
3905.21,-3.0961290733670993e-07
3906.11,-3.094560649312563e-07
3907.01,-3.1373248542383814e-07
3907.91,-3.241451718805879e-07
3908.81,-3.370263746135284e-07
3909.71,-3.5090725431240476e-07
3910.61,-3.6557758112662516e-07
3911.51,-3.748810139221016e-07
3912.41,-3.816553213803453e-07
3913.31,-3.843249539127641e-07
3914.21,-3.8457986482195903e-07
3915.11,-3.8179695736661504e-07
3916.01,-3.7668301691944436e-07
3916.91,-3.674846478047207e-07
3917.81,-3.581953193751135e-07
3918.71,-3.436013798019784e-07
3919.61,-3.3402342085855047e-07
3920.51,-3.1949195240937616e-07
3921.41,-3.0931406507729433e-07
3922.31,-2.9986616326944293e-07
3923.21,-2.9580208911036145e-07
3924.11,-2.921252038436982e-07
3925.01,-2.846968379518616e-07
3925.91,-2.7656813624540255e-07
3926.81,-2.6400956514229757e-07
3927.71,-2.431070787284127e-07
3928.61,-2.195788877310601e-07
3929.51,-1.93589583160627e-07
3930.41,-1.7063112631222507e-07
3931.31,-1.480079377209008e-07
3932.21,-1.2956257593055294e-07
3933.11,-1.158136421498192e-07
3934.01,-1.0817131983420883e-07
3934.91,-1.0797894367750506e-07
3935.81,-1.1498270688100156e-07
3936.71,-1.2937369460269283e-07
3937.61,-1.4905759458271753e-07
3938.51,-1.72387765450148e-07
3939.42,-1.9663333249538677e-07
3940.32,-2.1789536245063656e-07
3941.22,-2.359709148148391e-07
3942.12,-2.50345917829576e-07
3943.02,-2.606597305314895e-07
3943.92,-2.7126415098474994e-07
3944.82,-2.827319729927066e-07
3945.72,-2.9518362146300465e-07
3946.62,-3.123036459067615e-07
3947.52,-3.303664008929914e-07
3948.42,-3.45203563392207e-07
3949.32,-3.6025480530190194e-07
3950.22,-3.729595706352412e-07
3951.12,-3.8089535729533955e-07
3952.02,-3.8788170215156584e-07
3952.92,-3.924790622892195e-07
3953.82,-3.9604467142430813e-07
3954.72,-3.9673934890077534e-07
3955.62,-3.9473282976759066e-07
3956.52,-3.9189125215656503e-07
3957.42,-3.889701008154367e-07
3958.32,-3.784833290285301e-07
3959.22,-3.6811554676762465e-07
3960.12,-3.5302412545301435e-07
3961.02,-3.337291025934235e-07
3961.92,-3.083656230266704e-07
3962.82,-2.8196524370682954e-07
3963.72,-2.5603234973975024e-07
3964.62,-2.3095897208004387e-07
3965.52,-2.0727414526125718e-07
3966.42,-1.848550515232991e-07
3967.32,-1.6364781437961475e-07
3968.22,-1.475526178903884e-07
3969.12,-1.3765590288433523e-07
3970.02,-1.3753277914345968e-07
3970.92,-1.4624784499637821e-07
3971.82,-1.6445566895243787e-07
3972.72,-1.8820135827397496e-07
3973.62,-2.179406440084528e-07
3974.52,-2.4874624387843445e-07
3975.42,-2.791565145577243e-07
3976.32,-3.106593449895461e-07
3977.22,-3.398754770481712e-07
3978.13,-3.683576356980075e-07
3979.03,-3.9309991823550646e-07
3979.93,-4.1386978396636644e-07
3980.83,-4.3032832439009803e-07
3981.73,-4.3939925996972317e-07
3982.63,-4.4714653434113067e-07
3983.53,-4.521061463509627e-07
3984.43,-4.5423041762475196e-07
3985.33,-4.591346934300845e-07
3986.23,-4.654773138235429e-07
3987.13,-4.7311313879146206e-07
3988.03,-4.809552531794108e-07
3988.93,-4.876099219737453e-07
3989.83,-4.956386952337715e-07
3990.73,-5.007396320393559e-07
3991.63,-5.066089655688336e-07
3992.53,-5.104090485533298e-07
3993.43,-5.132319235554711e-07
3994.33,-5.142767255018287e-07
3995.23,-5.106860533861514e-07
3996.13,-5.062106523051056e-07
3997.03,-5.045053343419509e-07
3997.93,-5.037871729299602e-07
3998.83,-5.11508393166922e-07
3999.73,-5.165707840928014e-07
4000.63,-5.292266731455337e-07
4001.53,-5.397276505646105e-07
4002.43,-5.47182891023731e-07
4003.33,-5.462006338627458e-07
4004.23,-5.39443397076829e-07
4005.13,-5.291244934702906e-07
4006.03,-5.169666712597606e-07
4006.93,-5.121936571557586e-07
4007.83,-5.133245973966161e-07
4008.73,-5.262273503266391e-07
4009.63,-5.368741103059694e-07
4010.53,-5.471582653042077e-07
4011.43,-5.567287133738731e-07
4012.33,-5.667888876943821e-07
4013.23,-5.710299746010607e-07
4014.13,-5.770358953248455e-07
4015.03,-5.800099892967874e-07
4015.93,-5.833816804088656e-07
4016.84,-5.854379911574184e-07
4017.74,-5.869419450368456e-07
4018.64,-5.858196112431792e-07
4019.54,-5.887801013818859e-07
4020.44,-5.899768868557875e-07
4021.34,-5.94917776356153e-07
4022.24,-5.925743504247636e-07
4023.14,-5.909746496610152e-07
4024.04,-5.893702893946222e-07
4024.94,-5.912445229661025e-07
4025.84,-5.948664419303528e-07
4026.74,-5.970680881041976e-07
4027.64,-5.969701526360305e-07
4028.54,-5.949221209479562e-07
4029.44,-5.865357785182235e-07
4030.34,-5.67680395325689e-07
4031.24,-5.490172968077224e-07
4032.14,-5.283486435001277e-07
4033.04,-5.176743640338157e-07
4033.94,-5.109804409103727e-07
4034.84,-5.195563109593783e-07
4035.74,-5.359061236263596e-07
4036.64,-5.590933420694205e-07
4037.54,-5.824580750184231e-07
4038.44,-6.057186420390247e-07
4039.34,-6.17893388589724e-07
4040.24,-6.224173579165249e-07
4041.14,-6.201524761864393e-07
4042.04,-6.08277482363722e-07
4042.94,-5.886230031461431e-07
4043.84,-5.683503640593134e-07
4044.74,-5.418038056673211e-07
4045.64,-5.182449909667161e-07
4046.54,-5.073485238811415e-07
4047.44,-5.118968329337989e-07
4048.34,-5.308029324685612e-07
4049.24,-5.540934450909036e-07
4050.14,-5.829729443224489e-07
4051.04,-6.033077102561264e-07
4051.94,-6.125600296695009e-07
4052.84,-6.13896624621213e-07
4053.74,-6.111177416698968e-07
4054.65,-5.977841526315547e-07
4055.55,-5.865136675798036e-07
4056.45,-5.759997817442675e-07
4057.35,-5.692251630618457e-07
4058.25,-5.654164892158514e-07
4059.15,-5.625518859774378e-07
4060.05,-5.622965253381563e-07
4060.95,-5.634539789197191e-07
4061.85,-5.55993245581123e-07
4062.75,-5.485132311281453e-07
4063.65,-5.400119368532673e-07
4064.55,-5.287717677111266e-07
4065.45,-5.295982070040441e-07
4066.35,-5.377593227382433e-07
4067.25,-5.501777573476937e-07
4068.15,-5.667013751041706e-07
4069.05,-5.788490906470212e-07
4069.95,-5.875309663869524e-07
4070.85,-5.87041506508174e-07
4071.75,-5.858745871480964e-07
4072.65,-5.827595174852926e-07
4073.55,-5.812865960972717e-07
4074.45,-5.792583594419751e-07
4075.35,-5.765030095364863e-07
4076.25,-5.724655417386763e-07
4077.15,-5.651844714444295e-07
4078.05,-5.652099270146575e-07
4078.95,-5.693711236027636e-07
4079.85,-5.834476144411848e-07
4080.75,-6.027741233929534e-07
4081.65,-6.245452885990797e-07
4082.55,-6.384845271352355e-07
4083.45,-6.469224174944312e-07
4084.35,-6.508693775871379e-07
4085.25,-6.575785936744702e-07
4086.15,-6.631408617642358e-07
4087.05,-6.732013867478694e-07
4087.95,-6.918360289372776e-07
4088.85,-7.012643857491247e-07
4089.75,-7.10239357157181e-07
4090.65,-7.136880542467997e-07
4091.55,-7.116330272555201e-07
4092.45,-7.033582967013879e-07
4093.36,-6.960287362420385e-07
4094.26,-6.803932761888479e-07
4095.16,-6.672910204245522e-07
4096.06,-6.496568035777765e-07
4096.96,-6.340325382769689e-07
4097.86,-6.172298352176086e-07
4098.76,-5.961757551944811e-07
4099.66,-5.803787938225716e-07
4100.56,-5.615529261979222e-07
4101.46,-5.509073298302937e-07
4102.36,-5.436266450185629e-07
4103.26,-5.475316444880782e-07
4104.16,-5.604562018077599e-07
4105.06,-5.815499159608368e-07
4105.96,-6.077883056814167e-07
4106.86,-6.269983771340301e-07
4107.76,-6.464780893793364e-07
4108.66,-6.57516617179489e-07
4109.56,-6.617285776345953e-07
4110.46,-6.604694434149107e-07
4111.36,-6.628202095224908e-07
4112.26,-6.666502686182083e-07
4113.16,-6.745595053656878e-07
4114.06,-6.83786659057212e-07
4114.96,-6.90569951297308e-07
4115.86,-6.975042153346359e-07
4116.76,-7.03690885324747e-07
4117.66,-7.025102597635163e-07
4118.56,-6.95556856753469e-07
4119.46,-6.898936254544439e-07
4120.36,-6.843055349223756e-07
4121.26,-6.814620998914749e-07
4122.16,-6.831403943542817e-07
4123.06,-6.850488431771353e-07
4123.96,-6.913663040094764e-07
4124.86,-6.956072548896389e-07
4125.76,-6.966255730288629e-07
4126.66,-6.955486306470367e-07
4127.56,-6.915012234815925e-07
4128.46,-6.803132112356843e-07
4129.36,-6.733973125965583e-07
4130.26,-6.619728562612146e-07
4131.17,-6.491514035729907e-07
4132.06,-6.434898507234594e-07
4132.97,-6.339218431728007e-07
4133.87,-6.312733651050699e-07
4134.77,-6.404676010892564e-07
4135.67,-6.535163878811438e-07
4136.57,-6.715900751778257e-07
4137.47,-6.920231917251541e-07
4138.37,-7.072704435681579e-07
4139.27,-7.186576702710308e-07
4140.17,-7.149724941994334e-07
4141.07,-7.049034700121326e-07
4141.97,-6.881001558716168e-07
4142.87,-6.679882718574965e-07
4143.77,-6.499257538129628e-07
4144.67,-6.425710500970619e-07
4145.57,-6.408150614107484e-07
4146.47,-6.472575740756061e-07
4147.37,-6.612728206106568e-07
4148.27,-6.735370341623388e-07
4149.17,-6.802317131112257e-07
4150.07,-6.799690445016971e-07
4150.97,-6.796576390828434e-07
4151.87,-6.759905794457894e-07
4152.77,-6.697117991491432e-07
4153.67,-6.650263253221476e-07
4154.57,-6.650700329522771e-07
4155.47,-6.659201584278479e-07
4156.37,-6.667715874381468e-07
4157.27,-6.714801205187103e-07
4158.17,-6.859708116603884e-07
4159.07,-6.965843108513958e-07
4159.97,-7.124326881680681e-07
4160.87,-7.292298149346769e-07
4161.77,-7.391702937705785e-07
4162.67,-7.471205722402923e-07
4163.57,-7.545138826865633e-07
4164.47,-7.52931913379507e-07
4165.37,-7.515856650793252e-07
4166.27,-7.437740809557232e-07
4167.17,-7.34300036961088e-07
4168.07,-7.258158328572623e-07
4168.98,-7.18287151229223e-07
4169.88,-7.113093901408361e-07
4170.78,-7.023231806834953e-07
4171.68,-6.911264588296222e-07
4172.58,-6.787324174219608e-07
4173.48,-6.664030421333423e-07
4174.38,-6.582846155692776e-07
4175.28,-6.56542341134466e-07
4176.18,-6.619343732470762e-07
4177.08,-6.687593802346458e-07
4177.98,-6.770718992497739e-07
4178.88,-6.845703812079162e-07
4179.78,-6.900719562528197e-07
4180.68,-6.948977471941093e-07
4181.58,-7.031846913438204e-07
4182.48,-7.100117384843132e-07
4183.38,-7.149779522883572e-07
4184.28,-7.204012635321221e-07
4185.18,-7.223701490474863e-07
4186.08,-7.224087930875493e-07
4186.98,-7.222975853318299e-07
4187.88,-7.192512347580637e-07
4188.78,-7.192831105459281e-07
4189.68,-7.246486392790523e-07
4190.58,-7.29877302366003e-07
4191.48,-7.407667228627467e-07
4192.38,-7.506823231122067e-07
4193.28,-7.58467675207918e-07
4194.18,-7.582938031357008e-07
4195.08,-7.508332131617082e-07
4195.98,-7.372650347688713e-07
4196.88,-7.184219441834988e-07
4197.78,-7.035641757466908e-07
4198.68,-6.881114506114746e-07
4199.58,-6.788377601256193e-07
4200.48,-6.761216083687508e-07
4201.38,-6.755776094549048e-07
4202.28,-6.844737089686705e-07
4203.18,-6.952727168055741e-07
4204.08,-7.11544810207424e-07
4204.98,-7.299476523962851e-07
4205.88,-7.519693198733174e-07
4206.79,-7.728830625728697e-07
4207.69,-7.869322460308711e-07
4208.59,-7.980455667052894e-07
4209.49,-8.072887415950591e-07
4210.39,-8.141408209091642e-07
4211.29,-8.132952840165026e-07
4212.19,-8.064729565999431e-07
4213.09,-8.036536765356234e-07
4213.99,-7.902935471991286e-07
4214.89,-7.845486988564394e-07
4215.79,-7.788396019738111e-07
4216.69,-7.838436531144005e-07
4217.59,-7.900014387486318e-07
4218.49,-8.066193938795632e-07
4219.39,-8.246324194399729e-07
4220.29,-8.361264548520164e-07
4221.19,-8.405020926531814e-07
4222.09,-8.264481846167163e-07
4222.99,-8.038830171391039e-07
4223.89,-7.662266602661499e-07
4224.79,-7.171435603923312e-07
4225.69,-6.711870404286709e-07
4226.59,-6.375182526413236e-07
4227.49,-6.235034753117102e-07
4228.39,-6.312757265300879e-07
4229.29,-6.630317859196378e-07
4230.19,-6.98992515493979e-07
4231.09,-7.41767483100534e-07
4231.99,-7.72412095383708e-07
4232.89,-7.965561814558247e-07
4233.79,-8.016352914505292e-07
4234.69,-7.983209717735327e-07
4235.59,-7.92333398871287e-07
4236.49,-7.843555083371429e-07
4237.39,-7.847408913739694e-07
4238.29,-7.86356223884595e-07
4239.19,-7.929547711755544e-07
4240.09,-8.076123979368541e-07
4240.99,-8.25743454194133e-07
4241.89,-8.437058678127778e-07
4242.79,-8.661821311577583e-07
4243.69,-8.823558634662233e-07
4244.59,-8.89125808524211e-07
4245.5,-8.969521596670631e-07
4246.4,-8.941785070075737e-07
4247.3,-8.790421711823512e-07
4248.2,-8.560519940012205e-07
4249.1,-8.366944901518327e-07
4250.0,-8.12334685800422e-07
4250.9,-7.998931453185809e-07
4251.8,-7.911811596234461e-07
4252.7,-7.91292525384335e-07
4253.6,-7.935904915167207e-07
4254.5,-8.041069570364111e-07
4255.4,-8.086736181350425e-07
4256.3,-8.116590436904426e-07
4257.2,-8.176197674976957e-07
4258.1,-8.218886350637432e-07
4259.0,-8.193880598444655e-07
4259.9,-8.114158600550693e-07
4260.8,-8.147505434574406e-07
4261.7,-8.193656203148374e-07
4262.6,-8.339654005410652e-07
4263.5,-8.616963665446408e-07
4264.4,-8.908881920619297e-07
4265.3,-9.123121632549577e-07
4266.2,-9.278869894829269e-07
4267.1,-9.289999675977539e-07
4268.0,-9.146443241239892e-07
4268.9,-8.850383971955179e-07
4269.8,-8.437616237278626e-07
4270.7,-8.051780959641447e-07
4271.6,-7.71488319804071e-07
4272.5,-7.382143275250377e-07
4273.4,-7.239347753656394e-07
4274.3,-7.256812911047394e-07
4275.2,-7.457187920071918e-07
4276.1,-7.732120527837674e-07
4277.0,-8.057571355604298e-07
4277.9,-8.399173052150654e-07
